gsr; bvp; skt; skt2; Cont; time
12892;172874;34.48;950;03.25.27.143
12908;172873;34.48;951;03.25.27.143
12928;172863;34.48;952;03.25.27.143
12916;172876;34.48;953;03.25.27.143
12944;172879;34.48;954;03.25.27.143
12928;172876;34.48;955;03.25.27.143
12924;172877;34.48;956;03.25.27.143
12908;172880;34.48;957;03.25.27.143
12924;172881;34.48;958;03.25.27.170
12928;172877;34.48;959;03.25.27.170
12928;172877;34.48;960;03.25.27.170
12908;172878;34.48;961;03.25.27.170
12916;172876;34.48;962;03.25.27.170
12920;172874;34.48;963;03.25.27.170
12912;172880;34.48;964;03.25.27.170
12900;172872;34.48;965;03.25.27.170
12900;172881;34.48;966;03.25.27.170
12904;172869;34.48;967;03.25.27.170
12908;172877;34.48;968;03.25.27.170
12928;172878;34.48;969;03.25.27.170
12920;172876;34.48;970;03.25.27.170
12908;172876;34.48;971;03.25.27.170
12912;172872;34.48;972;03.25.27.170
12892;172876;34.48;973;03.25.27.170
12924;172875;34.48;974;03.25.27.170
12908;172865;34.48;975;03.25.27.227
12928;172868;34.48;976;03.25.27.227
12932;172871;34.48;977;03.25.27.227
12928;172867;34.48;978;03.25.27.227
12892;172868;34.48;979;03.25.27.227
12900;172871;34.48;980;03.25.27.237
12916;172873;34.48;981;03.25.27.237
12928;172866;34.48;982;03.25.27.237
12912;172868;34.48;983;03.25.27.248
12908;172871;34.48;984;03.25.27.248
12924;172864;34.48;985;03.25.27.248
12916;172874;34.48;986;03.25.27.248
12904;172869;34.48;987;03.25.27.248
12928;172867;34.48;988;03.25.27.259
12928;172864;34.48;989;03.25.27.259
12900;172863;34.48;990;03.25.27.259
12892;172864;34.48;991;03.25.27.259
12908;172873;34.48;992;03.25.27.259
12924;172873;34.48;993;03.25.27.259
12908;172869;34.48;994;03.25.27.259
12912;172873;34.48;995;03.25.27.259
12908;172870;34.48;996;03.25.27.259
12916;172863;34.48;997;03.25.27.259
12900;172866;34.48;998;03.25.27.259
12932;172870;34.48;999;03.25.27.259
12900;172873;34.44;000;03.25.27.347
12904;172873;34.44;001;03.25.27.357
12904;172879;34.44;002;03.25.27.357
12920;172874;34.44;003;03.25.27.357
12928;172868;34.44;004;03.25.27.357
12932;172879;34.44;005;03.25.27.357
12932;172874;34.44;006;03.25.27.357
12944;172872;34.44;007;03.25.27.357
12912;172877;34.44;008;03.25.27.357
12920;172876;34.44;009;03.25.27.357
12932;172877;34.44;010;03.25.27.357
12900;172876;34.44;011;03.25.27.357
12928;172879;34.44;012;03.25.27.368
12916;172884;34.44;013;03.25.27.368
12892;172885;34.44;014;03.25.27.368
12924;172883;34.44;015;03.25.27.368
12928;172884;34.44;016;03.25.27.368
12900;172888;34.44;017;03.25.27.368
12936;172889;34.44;018;03.25.27.368
12936;172888;34.44;019;03.25.27.368
12904;172888;34.44;020;03.25.27.368
12920;172890;34.44;021;03.25.27.368
12944;172892;34.44;022;03.25.27.368
12928;172894;34.44;023;03.25.27.368
12908;172894;34.44;024;03.25.27.368
12924;172898;34.44;025;03.25.27.478
12932;172896;34.44;026;03.25.27.478
12940;172893;34.44;027;03.25.27.478
12908;172906;34.44;028;03.25.27.478
12900;172907;34.44;029;03.25.27.478
12916;172906;34.44;030;03.25.27.478
12900;172910;34.44;031;03.25.27.478
12924;172901;34.44;032;03.25.27.478
12936;172909;34.44;033;03.25.27.478
12928;172910;34.44;034;03.25.27.489
12924;172906;34.44;035;03.25.27.489
12944;172912;34.44;036;03.25.27.489
12908;172913;34.44;037;03.25.27.489
12932;172907;34.44;038;03.25.27.489
12924;172913;34.44;039;03.25.27.489
12924;172911;34.44;040;03.25.27.489
12932;172910;34.44;041;03.25.27.489
12924;172918;34.44;042;03.25.27.489
12900;172912;34.44;043;03.25.27.489
12916;172919;34.44;044;03.25.27.489
12944;172913;34.44;045;03.25.27.489
12900;172918;34.44;046;03.25.27.489
12932;172914;34.44;047;03.25.27.500
12924;172925;34.44;048;03.25.27.500
12908;172936;34.44;049;03.25.27.500
12896;172926;34.48;050;03.25.27.610
12876;172928;34.48;051;03.25.27.610
12920;172931;34.48;052;03.25.27.610
12928;172925;34.48;053;03.25.27.610
12928;172930;34.48;054;03.25.27.610
12936;172936;34.48;055;03.25.27.610
12912;172937;34.48;056;03.25.27.621
12944;172944;34.48;057;03.25.27.621
12936;172933;34.48;058;03.25.27.621
12892;172932;34.48;059;03.25.27.621
12916;172945;34.48;060;03.25.27.621
12940;172935;34.48;061;03.25.27.621
12936;172935;34.48;062;03.25.27.621
12916;172938;34.48;063;03.25.27.621
12932;172933;34.48;064;03.25.27.621
12908;172943;34.48;065;03.25.27.621
12908;172946;34.48;066;03.25.27.621
12924;172943;34.48;067;03.25.27.632
12920;172946;34.48;068;03.25.27.632
12940;172946;34.48;069;03.25.27.632
12920;172948;34.48;070;03.25.27.632
12892;172951;34.48;071;03.25.27.632
12928;172946;34.48;072;03.25.27.632
12912;172944;34.48;073;03.25.27.643
12892;172952;34.48;074;03.25.27.643
12908;172962;34.48;075;03.25.27.741
12896;172959;34.48;076;03.25.27.741
12904;172957;34.48;077;03.25.27.752
12884;172952;34.48;078;03.25.27.752
12908;172957;34.48;079;03.25.27.752
12936;172961;34.48;080;03.25.27.752
12920;172956;34.48;081;03.25.27.752
12920;172948;34.48;082;03.25.27.752
12876;172951;34.48;083;03.25.27.752
12920;172951;34.48;084;03.25.27.752
12944;172937;34.48;085;03.25.27.752
12924;172937;34.48;086;03.25.27.752
12904;172930;34.48;087;03.25.27.752
12924;172923;34.48;088;03.25.27.752
12944;172920;34.48;089;03.25.27.752
12920;172922;34.48;090;03.25.27.763
12936;172905;34.48;091;03.25.27.763
12908;172906;34.48;092;03.25.27.763
12968;172893;34.48;093;03.25.27.763
12944;172897;34.48;094;03.25.27.763
12928;172896;34.48;095;03.25.27.763
12928;172896;34.48;096;03.25.27.763
12908;172887;34.48;097;03.25.27.763
12916;172889;34.48;098;03.25.27.763
12932;172880;34.48;099;03.25.27.763
12944;172879;34.48;100;03.25.27.851
12944;172872;34.48;101;03.25.27.851
12932;172871;34.48;102;03.25.27.851
12900;172873;34.48;103;03.25.27.851
12900;172877;34.48;104;03.25.27.851
12928;172876;34.48;105;03.25.27.851
12916;172873;34.48;106;03.25.27.851
12892;172871;34.48;107;03.25.27.851
12904;172869;34.48;108;03.25.27.851
12928;172863;34.48;109;03.25.27.851
12948;172867;34.48;110;03.25.27.851
12924;172870;34.48;111;03.25.27.851
12916;172869;34.48;112;03.25.27.851
12960;172867;34.48;113;03.25.27.862
12924;172875;34.48;114;03.25.27.862
12920;172869;34.48;115;03.25.27.862
12916;172866;34.48;116;03.25.27.862
12928;172873;34.48;117;03.25.27.862
12912;172865;34.48;118;03.25.27.862
12908;172872;34.48;119;03.25.27.862
12912;172870;34.48;120;03.25.27.862
12892;172882;34.48;121;03.25.27.862
12944;172871;34.48;122;03.25.27.862
12928;172870;34.48;123;03.25.27.862
12892;172860;34.48;124;03.25.27.862
12916;172873;34.48;125;03.25.27.994
12908;172876;34.48;126;03.25.27.994
12920;172873;34.48;127;03.25.27.994
12924;172868;34.48;128;03.25.27.994
12900;172881;34.48;129;03.25.27.994
12940;172880;34.48;130;03.25.27.994
12916;172885;34.48;131;03.25.27.994
12940;172874;34.48;132;03.25.27.994
12928;172875;34.48;133;03.25.28.016
12924;172876;34.48;134;03.25.28.016
12900;172884;34.48;135;03.25.28.016
12936;172874;34.48;136;03.25.28.016
12944;172876;34.48;137;03.25.28.016
12892;172877;34.48;138;03.25.28.016
12936;172878;34.48;139;03.25.28.016
12912;172880;34.48;140;03.25.28.016
12948;172889;34.48;141;03.25.28.017
12908;172884;34.48;142;03.25.28.028
12936;172881;34.48;143;03.25.28.028
12904;172886;34.48;144;03.25.28.028
12916;172878;34.48;145;03.25.28.028
12904;172884;34.48;146;03.25.28.028
12908;172883;34.48;147;03.25.28.028
12932;172888;34.48;148;03.25.28.028
12920;172881;34.48;149;03.25.28.028
12900;172889;34.44;150;03.25.28.114
12940;172888;34.44;151;03.25.28.114
12928;172883;34.44;152;03.25.28.114
12924;172881;34.44;153;03.25.28.114
12936;172883;34.44;154;03.25.28.125
12932;172878;34.44;155;03.25.28.125
12936;172879;34.44;156;03.25.28.125
12892;172882;34.44;157;03.25.28.125
12932;172881;34.44;158;03.25.28.125
12908;172877;34.44;159;03.25.28.125
12936;172881;34.44;160;03.25.28.125
12936;172877;34.44;161;03.25.28.125
12912;172881;34.44;162;03.25.28.125
12900;172879;34.44;163;03.25.28.125
12908;172878;34.44;164;03.25.28.125
12888;172879;34.44;165;03.25.28.125
12892;172880;34.44;166;03.25.28.125
12904;172886;34.44;167;03.25.28.136
12916;172873;34.44;168;03.25.28.136
12900;172885;34.44;169;03.25.28.136
12912;172888;34.44;170;03.25.28.136
12892;172884;34.44;171;03.25.28.136
12920;172879;34.44;172;03.25.28.136
12928;172882;34.44;173;03.25.28.136
12936;172883;34.44;174;03.25.28.136
12928;172887;34.44;175;03.25.28.246
12920;172884;34.44;176;03.25.28.246
12936;172892;34.44;177;03.25.28.246
12932;172890;34.44;178;03.25.28.246
12892;172891;34.44;179;03.25.28.246
12924;172884;34.44;180;03.25.28.246
12888;172892;34.44;181;03.25.28.246
12908;172891;34.44;182;03.25.28.246
12896;172889;34.44;183;03.25.28.246
12904;172889;34.44;184;03.25.28.246
12928;172897;34.44;185;03.25.28.246
12904;172894;34.44;186;03.25.28.246
12904;172893;34.44;187;03.25.28.246
12916;172898;34.44;188;03.25.28.257
12924;172899;34.44;189;03.25.28.257
12924;172902;34.44;190;03.25.28.257
12896;172903;34.44;191;03.25.28.257
12916;172893;34.44;192;03.25.28.257
12912;172904;34.44;193;03.25.28.257
12908;172895;34.44;194;03.25.28.257
12904;172909;34.44;195;03.25.28.257
12900;172906;34.44;196;03.25.28.257
12956;172910;34.44;197;03.25.28.257
12916;172908;34.44;198;03.25.28.257
12940;172910;34.44;199;03.25.28.257
12908;172906;34.44;200;03.25.28.356
12908;172914;34.44;201;03.25.28.356
12936;172910;34.44;202;03.25.28.356
12916;172915;34.44;203;03.25.28.356
12912;172923;34.44;204;03.25.28.356
12908;172926;34.44;205;03.25.28.356
12908;172932;34.44;206;03.25.28.356
12928;172919;34.44;207;03.25.28.356
12916;172931;34.44;208;03.25.28.378
12920;172929;34.44;209;03.25.28.378
12912;172937;34.44;210;03.25.28.378
12928;172932;34.44;211;03.25.28.378
12896;172937;34.44;212;03.25.28.378
12952;172928;34.44;213;03.25.28.378
12944;172934;34.44;214;03.25.28.378
12928;172939;34.44;215;03.25.28.378
12960;172939;34.44;216;03.25.28.378
12924;172938;34.44;217;03.25.28.378
12908;172938;34.44;218;03.25.28.389
12904;172942;34.44;219;03.25.28.389
12916;172942;34.44;220;03.25.28.389
12892;172947;34.44;221;03.25.28.389
12912;172955;34.44;222;03.25.28.389
12900;172947;34.44;223;03.25.28.389
12940;172943;34.44;224;03.25.28.389
12932;172953;34.44;225;03.25.28.487
12920;172950;34.44;226;03.25.28.487
12928;172951;34.44;227;03.25.28.487
12916;172949;34.44;228;03.25.28.487
12928;172955;34.44;229;03.25.28.487
12928;172960;34.44;230;03.25.28.498
12932;172959;34.44;231;03.25.28.498
12932;172958;34.44;232;03.25.28.498
12892;172960;34.44;233;03.25.28.498
12936;172951;34.44;234;03.25.28.498
12920;172957;34.44;235;03.25.28.498
12928;172967;34.44;236;03.25.28.498
12928;172969;34.44;237;03.25.28.498
12940;172961;34.44;238;03.25.28.509
12908;172973;34.44;239;03.25.28.509
12904;172969;34.44;240;03.25.28.509
12928;172975;34.44;241;03.25.28.509
12916;172980;34.44;242;03.25.28.509
12920;172980;34.44;243;03.25.28.509
12912;172984;34.44;244;03.25.28.509
12932;172980;34.44;245;03.25.28.509
12884;172970;34.44;246;03.25.28.509
12924;172971;34.44;247;03.25.28.509
12932;172969;34.44;248;03.25.28.509
12940;172961;34.44;249;03.25.28.509
12944;172960;34.44;250;03.25.28.597
12900;172954;34.44;251;03.25.28.597
12932;172950;34.44;252;03.25.28.608
12892;172950;34.44;253;03.25.28.608
12928;172939;34.44;254;03.25.28.608
12924;172941;34.44;255;03.25.28.608
12932;172929;34.44;256;03.25.28.608
12912;172932;34.44;257;03.25.28.608
12940;172930;34.44;258;03.25.28.608
12956;172926;34.44;259;03.25.28.608
12944;172921;34.44;260;03.25.28.608
12960;172922;34.44;261;03.25.28.608
12928;172921;34.44;262;03.25.28.608
12920;172923;34.44;263;03.25.28.608
12908;172922;34.44;264;03.25.28.608
12900;172915;34.44;265;03.25.28.619
12916;172916;34.44;266;03.25.28.619
12920;172922;34.44;267;03.25.28.619
12904;172921;34.44;268;03.25.28.619
12936;172920;34.44;269;03.25.28.630
12892;172921;34.44;270;03.25.28.630
12904;172916;34.44;271;03.25.28.630
12912;172922;34.44;272;03.25.28.630
12912;172923;34.44;273;03.25.28.630
12960;172927;34.44;274;03.25.28.630
12904;172931;34.44;275;03.25.28.750
12908;172933;34.44;276;03.25.28.750
12932;172929;34.44;277;03.25.28.750
12940;172936;34.44;278;03.25.28.750
12912;172931;34.44;279;03.25.28.750
12928;172937;34.44;280;03.25.28.750
12928;172941;34.44;281;03.25.28.750
12900;172936;34.44;282;03.25.28.750
12940;172943;34.44;283;03.25.28.750
12876;172934;34.44;284;03.25.28.750
12924;172946;34.44;285;03.25.28.750
12900;172940;34.44;286;03.25.28.761
12916;172942;34.44;287;03.25.28.761
12900;172946;34.44;288;03.25.28.761
12920;172942;34.44;289;03.25.28.761
12892;172943;34.44;290;03.25.28.761
12920;172944;34.44;291;03.25.28.761
12916;172948;34.44;292;03.25.28.761
12904;172946;34.44;293;03.25.28.761
12948;172952;34.44;294;03.25.28.761
12916;172955;34.44;295;03.25.28.761
12928;172955;34.44;296;03.25.28.761
12892;172950;34.44;297;03.25.28.761
12928;172958;34.44;298;03.25.28.761
12936;172960;34.44;299;03.25.28.772
12912;172963;34.48;300;03.25.28.849
12944;172960;34.48;301;03.25.28.849
12928;172964;34.48;302;03.25.28.849
12888;172967;34.48;303;03.25.28.849
12920;172958;34.48;304;03.25.28.849
12920;172965;34.48;305;03.25.28.849
12908;172968;34.48;306;03.25.28.849
12904;172965;34.48;307;03.25.28.849
12924;172962;34.48;308;03.25.28.860
12920;172964;34.48;309;03.25.28.860
12900;172961;34.48;310;03.25.28.860
12924;172963;34.48;311;03.25.28.860
12924;172961;34.48;312;03.25.28.860
12892;172964;34.48;313;03.25.28.860
12904;172965;34.48;314;03.25.28.860
12944;172963;34.48;315;03.25.28.870
12928;172951;34.48;316;03.25.28.870
12932;172949;34.48;317;03.25.28.870
12936;172954;34.48;318;03.25.28.870
12916;172951;34.48;319;03.25.28.870
12944;172956;34.48;320;03.25.28.870
12912;172964;34.48;321;03.25.28.870
12932;172967;34.48;322;03.25.28.870
12936;172958;34.48;323;03.25.28.870
12928;172960;34.48;324;03.25.28.870
12920;172959;34.48;325;03.25.28.969
12936;172968;34.48;326;03.25.28.969
12904;172958;34.48;327;03.25.28.969
12904;172964;34.48;328;03.25.28.969
12900;172959;34.48;329;03.25.28.980
12916;172962;34.48;330;03.25.28.980
12904;172964;34.48;331;03.25.28.980
12936;172974;34.48;332;03.25.28.980
12932;172968;34.48;333;03.25.28.980
12908;172968;34.48;334;03.25.28.980
12924;172970;34.48;335;03.25.28.980
12916;172965;34.48;336;03.25.28.980
12916;172969;34.48;337;03.25.28.980
12920;172965;34.48;338;03.25.28.980
12944;172974;34.48;339;03.25.28.980
12944;172961;34.48;340;03.25.28.980
12932;172967;34.48;341;03.25.28.991
12892;172972;34.48;342;03.25.28.991
12924;172964;34.48;343;03.25.28.991
12952;172960;34.48;344;03.25.28.991
12928;172969;34.48;345;03.25.28.991
12908;172967;34.48;346;03.25.28.991
12924;172977;34.48;347;03.25.28.991
12908;172968;34.48;348;03.25.28.991
12948;172971;34.48;349;03.25.28.991
12884;172976;34.48;350;03.25.29.101
12904;172978;34.48;351;03.25.29.101
12920;172977;34.48;352;03.25.29.101
12928;172976;34.48;353;03.25.29.101
12924;172986;34.48;354;03.25.29.101
12932;172980;34.48;355;03.25.29.101
12876;172980;34.48;356;03.25.29.101
12920;172983;34.48;357;03.25.29.101
12948;172987;34.48;358;03.25.29.101
12916;172993;34.48;359;03.25.29.101
12912;172988;34.48;360;03.25.29.101
12944;172995;34.48;361;03.25.29.101
12928;172993;34.48;362;03.25.29.101
12928;172994;34.48;363;03.25.29.111
12928;172996;34.48;364;03.25.29.111
12908;172997;34.48;365;03.25.29.111
12940;173003;34.48;366;03.25.29.111
12940;173005;34.48;367;03.25.29.122
12928;173001;34.48;368;03.25.29.122
12916;173001;34.48;369;03.25.29.122
12932;173010;34.48;370;03.25.29.122
12904;173014;34.48;371;03.25.29.122
12940;173023;34.48;372;03.25.29.122
12920;173014;34.48;373;03.25.29.122
12952;173022;34.48;374;03.25.29.122
12928;173026;34.48;375;03.25.29.232
12916;173023;34.48;376;03.25.29.232
12920;173028;34.48;377;03.25.29.232
12908;173027;34.48;378;03.25.29.232
12916;173025;34.48;379;03.25.29.232
12884;173035;34.48;380;03.25.29.232
12928;173044;34.48;381;03.25.29.232
12904;173038;34.48;382;03.25.29.232
12932;173040;34.48;383;03.25.29.232
12892;173040;34.48;384;03.25.29.243
12916;173041;34.48;385;03.25.29.243
12936;173042;34.48;386;03.25.29.243
12916;173048;34.48;387;03.25.29.243
12912;173047;34.48;388;03.25.29.243
12928;173046;34.48;389;03.25.29.243
12924;173043;34.48;390;03.25.29.243
12908;173046;34.48;391;03.25.29.243
12944;173048;34.48;392;03.25.29.243
12916;173049;34.48;393;03.25.29.243
12932;173046;34.48;394;03.25.29.243
12944;173047;34.48;395;03.25.29.243
12932;173038;34.48;396;03.25.29.243
12944;173039;34.48;397;03.25.29.254
12940;173033;34.48;398;03.25.29.254
12928;173018;34.48;399;03.25.29.254
12932;173022;34.44;400;03.25.29.364
12904;173023;34.44;401;03.25.29.364
12936;173016;34.44;402;03.25.29.364
12932;173017;34.44;403;03.25.29.364
12924;173010;34.44;404;03.25.29.364
12924;173010;34.44;405;03.25.29.375
12920;173006;34.44;406;03.25.29.375
12944;173008;34.44;407;03.25.29.375
12912;173007;34.44;408;03.25.29.375
12932;173003;34.44;409;03.25.29.375
12936;173003;34.44;410;03.25.29.375
12916;173002;34.44;411;03.25.29.375
12928;172993;34.44;412;03.25.29.375
12920;172991;34.44;413;03.25.29.375
12928;173003;34.44;414;03.25.29.375
12928;173000;34.44;415;03.25.29.375
12904;173003;34.44;416;03.25.29.375
12936;173009;34.44;417;03.25.29.375
12960;173017;34.44;418;03.25.29.386
12928;173006;34.44;419;03.25.29.386
12948;173014;34.44;420;03.25.29.386
12928;173007;34.44;421;03.25.29.386
12912;173014;34.44;422;03.25.29.386
12920;173012;34.44;423;03.25.29.386
12944;173015;34.44;424;03.25.29.386
12916;173020;34.44;425;03.25.29.473
12912;173010;34.44;426;03.25.29.484
12940;173018;34.44;427;03.25.29.484
12904;173016;34.44;428;03.25.29.484
12924;173018;34.44;429;03.25.29.484
12928;173023;34.44;430;03.25.29.484
12940;173020;34.44;431;03.25.29.484
12932;173018;34.44;432;03.25.29.484
12928;173019;34.44;433;03.25.29.495
12928;173025;34.44;434;03.25.29.495
12944;173027;34.44;435;03.25.29.495
12932;173040;34.44;436;03.25.29.495
12912;173039;34.44;437;03.25.29.495
12920;173041;34.44;438;03.25.29.495
12932;173042;34.44;439;03.25.29.495
12928;173039;34.44;440;03.25.29.495
12924;173051;34.44;441;03.25.29.495
12924;173051;34.44;442;03.25.29.495
12920;173057;34.44;443;03.25.29.495
12932;173052;34.44;444;03.25.29.495
12936;173046;34.44;445;03.25.29.495
12936;173051;34.44;446;03.25.29.506
12900;173054;34.44;447;03.25.29.506
12916;173063;34.44;448;03.25.29.506
12932;173061;34.44;449;03.25.29.506
12928;173061;34.48;450;03.25.29.604
12928;173055;34.48;451;03.25.29.604
12956;173069;34.48;452;03.25.29.604
12892;173067;34.48;453;03.25.29.604
12928;173068;34.48;454;03.25.29.604
12932;173080;34.48;455;03.25.29.604
12892;173070;34.48;456;03.25.29.604
12948;173071;34.48;457;03.25.29.604
12924;173082;34.48;458;03.25.29.604
12928;173073;34.48;459;03.25.29.615
12900;173081;34.48;460;03.25.29.615
12908;173073;34.48;461;03.25.29.615
12920;173080;34.48;462;03.25.29.615
12904;173078;34.48;463;03.25.29.615
12908;173076;34.48;464;03.25.29.615
12948;173072;34.48;465;03.25.29.615
12920;173069;34.48;466;03.25.29.615
12912;173072;34.48;467;03.25.29.615
12912;173070;34.48;468;03.25.29.615
12944;173078;34.48;469;03.25.29.615
12920;173077;34.48;470;03.25.29.615
12908;173084;34.48;471;03.25.29.615
12928;173088;34.48;472;03.25.29.626
12920;173082;34.48;473;03.25.29.626
12920;173085;34.48;474;03.25.29.626
12924;173078;34.48;475;03.25.29.736
12924;173084;34.48;476;03.25.29.736
12916;173089;34.48;477;03.25.29.736
12892;173084;34.48;478;03.25.29.736
12928;173091;34.48;479;03.25.29.736
12924;173087;34.48;480;03.25.29.747
12928;173089;34.48;481;03.25.29.747
12884;173085;34.48;482;03.25.29.747
12944;173087;34.48;483;03.25.29.747
12920;173080;34.48;484;03.25.29.747
12928;173088;34.48;485;03.25.29.747
12928;173095;34.48;486;03.25.29.747
12936;173083;34.48;487;03.25.29.747
12888;173090;34.48;488;03.25.29.747
12940;173086;34.48;489;03.25.29.747
12920;173085;34.48;490;03.25.29.747
12876;173086;34.48;491;03.25.29.747
12928;173081;34.48;492;03.25.29.747
12920;173084;34.48;493;03.25.29.757
12916;173081;34.48;494;03.25.29.757
12940;173081;34.48;495;03.25.29.757
12928;173080;34.48;496;03.25.29.757
12876;173081;34.48;497;03.25.29.757
12920;173069;34.48;498;03.25.29.757
12912;173075;34.48;499;03.25.29.757
12920;173065;34.44;500;03.25.29.867
12908;173070;34.44;501;03.25.29.878
12900;173075;34.44;502;03.25.29.878
12944;173076;34.44;503;03.25.29.878
12944;173075;34.44;504;03.25.29.878
12924;173077;34.44;505;03.25.29.878
12920;173074;34.44;506;03.25.29.878
12920;173080;34.44;507;03.25.29.878
12924;173078;34.44;508;03.25.29.878
12916;173077;34.44;509;03.25.29.878
12928;173073;34.44;510;03.25.29.878
12904;173080;34.44;511;03.25.29.878
12888;173084;34.44;512;03.25.29.878
12900;173083;34.44;513;03.25.29.878
12892;173081;34.44;514;03.25.29.889
12916;173086;34.44;515;03.25.29.889
12928;173082;34.44;516;03.25.29.889
12904;173084;34.44;517;03.25.29.889
12916;173087;34.44;518;03.25.29.889
12928;173087;34.44;519;03.25.29.889
12900;173087;34.44;520;03.25.29.889
12928;173085;34.44;521;03.25.29.889
12884;173088;34.44;522;03.25.29.889
12904;173088;34.44;523;03.25.29.889
12932;173087;34.44;524;03.25.29.889
12928;173089;34.44;525;03.25.29.977
12900;173091;34.44;526;03.25.29.977
12936;173087;34.44;527;03.25.29.977
12916;173085;34.44;528;03.25.29.977
12892;173082;34.44;529;03.25.29.977
12928;173079;34.44;530;03.25.29.977
12916;173065;34.44;531;03.25.29.977
12928;173064;34.44;532;03.25.29.977
12928;173059;34.44;533;03.25.29.977
12944;173051;34.44;534;03.25.29.977
12908;173048;34.44;535;03.25.29.977
12936;173041;34.44;536;03.25.29.988
12944;173041;34.44;537;03.25.29.988
12932;173036;34.44;538;03.25.29.988
12892;173027;34.44;539;03.25.29.988
12920;173024;34.44;540;03.25.29.988
12944;173024;34.44;541;03.25.29.988
12916;173025;34.44;542;03.25.30.010
12924;173017;34.44;543;03.25.30.010
12932;173012;34.44;544;03.25.30.010
12884;173011;34.44;545;03.25.30.010
12924;173005;34.44;546;03.25.30.010
12884;173009;34.44;547;03.25.30.010
12892;173000;34.44;548;03.25.30.010
12920;173006;34.44;549;03.25.30.010
12916;173006;34.48;550;03.25.30.098
12920;172994;34.48;551;03.25.30.098
12928;172997;34.48;552;03.25.30.098
12908;172999;34.48;553;03.25.30.098
12936;172993;34.48;554;03.25.30.098
12932;172988;34.48;555;03.25.30.098
12920;172989;34.48;556;03.25.30.098
12944;172980;34.48;557;03.25.30.098
12928;172991;34.48;558;03.25.30.109
12920;172984;34.48;559;03.25.30.109
12928;172991;34.48;560;03.25.30.109
12916;172984;34.48;561;03.25.30.109
12920;172990;34.48;562;03.25.30.109
12908;172984;34.48;563;03.25.30.109
12932;172987;34.48;564;03.25.30.109
12932;172988;34.48;565;03.25.30.109
12912;172986;34.48;566;03.25.30.109
12928;172985;34.48;567;03.25.30.109
12908;172987;34.48;568;03.25.30.109
12944;172981;34.48;569;03.25.30.109
12908;172981;34.48;570;03.25.30.120
12920;172987;34.48;571;03.25.30.120
12936;172982;34.48;572;03.25.30.120
12908;172984;34.48;573;03.25.30.120
12928;172987;34.48;574;03.25.30.120
12892;172982;34.48;575;03.25.30.229
12892;172989;34.48;576;03.25.30.229
12904;172985;34.48;577;03.25.30.229
12900;172980;34.48;578;03.25.30.229
12908;172976;34.48;579;03.25.30.240
12928;172985;34.48;580;03.25.30.240
12928;172987;34.48;581;03.25.30.240
12912;172979;34.48;582;03.25.30.240
12912;172989;34.48;583;03.25.30.240
12940;172987;34.48;584;03.25.30.240
12892;172985;34.48;585;03.25.30.240
12888;172995;34.48;586;03.25.30.240
12924;172986;34.48;587;03.25.30.240
12900;172987;34.48;588;03.25.30.240
12940;172987;34.48;589;03.25.30.240
12900;172987;34.48;590;03.25.30.240
12904;172980;34.48;591;03.25.30.240
12936;172986;34.48;592;03.25.30.251
12928;172983;34.48;593;03.25.30.251
12900;172982;34.48;594;03.25.30.251
12908;172979;34.48;595;03.25.30.251
12908;172976;34.48;596;03.25.30.251
12932;172974;34.48;597;03.25.30.251
12932;172983;34.48;598;03.25.30.251
12948;172985;34.48;599;03.25.30.251
12888;172981;34.48;600;03.25.30.372
12904;172978;34.48;601;03.25.30.372
12928;172981;34.48;602;03.25.30.372
12936;172986;34.48;603;03.25.30.372
12912;172983;34.48;604;03.25.30.372
12928;172985;34.48;605;03.25.30.372
12932;172987;34.48;606;03.25.30.372
12908;172990;34.48;607;03.25.30.372
12920;172993;34.48;608;03.25.30.372
12916;172988;34.48;609;03.25.30.372
12908;172990;34.48;610;03.25.30.372
12920;172992;34.48;611;03.25.30.372
12920;172999;34.48;612;03.25.30.383
12892;173009;34.48;613;03.25.30.383
12916;172997;34.48;614;03.25.30.383
12940;173001;34.48;615;03.25.30.383
12924;173008;34.48;616;03.25.30.383
12936;173004;34.48;617;03.25.30.383
12912;173007;34.48;618;03.25.30.383
12912;173015;34.48;619;03.25.30.383
12920;173012;34.48;620;03.25.30.383
12912;173010;34.48;621;03.25.30.383
12920;173011;34.48;622;03.25.30.383
12908;173013;34.48;623;03.25.30.383
12948;173010;34.48;624;03.25.30.383
12892;173007;34.48;625;03.25.30.503
12928;173014;34.48;626;03.25.30.503
12928;173015;34.48;627;03.25.30.503
12916;173013;34.48;628;03.25.30.503
12912;173008;34.48;629;03.25.30.503
12908;173006;34.48;630;03.25.30.503
12928;173006;34.48;631;03.25.30.503
12892;173004;34.48;632;03.25.30.503
12920;173002;34.48;633;03.25.30.503
12912;173007;34.48;634;03.25.30.503
12884;172998;34.48;635;03.25.30.514
12952;173006;34.48;636;03.25.30.514
12944;173002;34.48;637;03.25.30.514
12916;173009;34.48;638;03.25.30.514
12892;173008;34.48;639;03.25.30.514
12940;173001;34.48;640;03.25.30.514
12920;172997;34.48;641;03.25.30.514
12928;172999;34.48;642;03.25.30.514
12932;172995;34.48;643;03.25.30.514
12924;173009;34.48;644;03.25.30.514
12928;173003;34.48;645;03.25.30.514
12912;173003;34.48;646;03.25.30.514
12908;172998;34.48;647;03.25.30.514
12912;173002;34.48;648;03.25.30.524
12920;172998;34.48;649;03.25.30.524
12928;173000;34.44;650;03.25.30.601
12900;172996;34.44;651;03.25.30.601
12928;172990;34.44;652;03.25.30.601
12916;172984;34.44;653;03.25.30.601
12932;172977;34.44;654;03.25.30.612
12928;172974;34.44;655;03.25.30.612
12912;172966;34.44;656;03.25.30.612
12908;172967;34.44;657;03.25.30.612
12916;172963;34.44;658;03.25.30.612
12900;172958;34.44;659;03.25.30.612
12924;172955;34.44;660;03.25.30.612
12908;172955;34.44;661;03.25.30.612
12916;172945;34.44;662;03.25.30.612
12900;172940;34.44;663;03.25.30.612
12928;172936;34.44;664;03.25.30.623
12928;172941;34.44;665;03.25.30.623
12920;172932;34.44;666;03.25.30.623
12940;172929;34.44;667;03.25.30.634
12924;172934;34.44;668;03.25.30.634
12904;172923;34.44;669;03.25.30.634
12908;172919;34.44;670;03.25.30.634
12916;172925;34.44;671;03.25.30.645
12904;172912;34.44;672;03.25.30.645
12920;172918;34.44;673;03.25.30.645
12920;172915;34.44;674;03.25.30.645
12912;172912;34.44;675;03.25.30.732
12928;172915;34.44;676;03.25.30.732
12920;172914;34.44;677;03.25.30.732
12920;172905;34.44;678;03.25.30.732
12900;172911;34.44;679;03.25.30.732
12928;172896;34.44;680;03.25.30.732
12944;172898;34.44;681;03.25.30.732
12908;172906;34.44;682;03.25.30.732
12912;172899;34.44;683;03.25.30.732
12912;172889;34.44;684;03.25.30.732
12920;172883;34.44;685;03.25.30.732
12936;172889;34.44;686;03.25.30.743
12900;172880;34.44;687;03.25.30.743
12944;172894;34.44;688;03.25.30.743
12932;172889;34.44;689;03.25.30.743
12908;172896;34.44;690;03.25.30.743
12956;172890;34.44;691;03.25.30.743
12940;172887;34.44;692;03.25.30.743
12916;172887;34.44;693;03.25.30.743
12932;172887;34.44;694;03.25.30.743
12920;172891;34.44;695;03.25.30.743
12904;172890;34.44;696;03.25.30.743
12952;172887;34.44;697;03.25.30.743
12908;172889;34.44;698;03.25.30.743
12936;172889;34.44;699;03.25.30.743
12928;172893;34.44;700;03.25.30.864
12916;172894;34.44;701;03.25.30.864
12924;172885;34.44;702;03.25.30.864
12908;172892;34.44;703;03.25.30.864
12920;172893;34.44;704;03.25.30.864
12928;172884;34.44;705;03.25.30.864
12932;172895;34.44;706;03.25.30.864
12944;172895;34.44;707;03.25.30.864
12912;172892;34.44;708;03.25.30.864
12944;172891;34.44;709;03.25.30.875
12892;172896;34.44;710;03.25.30.875
12916;172902;34.44;711;03.25.30.875
12920;172898;34.44;712;03.25.30.875
12924;172891;34.44;713;03.25.30.875
12916;172905;34.44;714;03.25.30.875
12928;172901;34.44;715;03.25.30.875
12884;172890;34.44;716;03.25.30.875
12908;172905;34.44;717;03.25.30.875
12868;172898;34.44;718;03.25.30.875
12928;172897;34.44;719;03.25.30.875
12928;172888;34.44;720;03.25.30.875
12936;172900;34.44;721;03.25.30.875
12904;172901;34.44;722;03.25.30.886
12936;172896;34.44;723;03.25.30.886
12932;172890;34.44;724;03.25.30.886
12908;172899;34.44;725;03.25.31.006
12964;172897;34.44;726;03.25.31.006
12908;172896;34.44;727;03.25.31.006
12908;172901;34.44;728;03.25.31.006
12916;172901;34.44;729;03.25.31.017
12928;172901;34.44;730;03.25.31.017
12912;172900;34.44;731;03.25.31.017
12924;172899;34.44;732;03.25.31.017
12904;172895;34.44;733;03.25.31.017
12932;172893;34.44;734;03.25.31.017
12904;172895;34.44;735;03.25.31.017
12912;172889;34.44;736;03.25.31.017
12932;172890;34.44;737;03.25.31.017
12896;172891;34.44;738;03.25.31.017
12936;172879;34.44;739;03.25.31.017
12908;172894;34.44;740;03.25.31.017
12904;172892;34.44;741;03.25.31.017
12916;172894;34.44;742;03.25.31.028
12892;172894;34.44;743;03.25.31.028
12916;172890;34.44;744;03.25.31.028
12892;172890;34.44;745;03.25.31.028
12928;172895;34.44;746;03.25.31.028
12912;172896;34.44;747;03.25.31.028
12912;172895;34.44;748;03.25.31.028
12928;172897;34.44;749;03.25.31.028
12900;172903;34.48;750;03.25.31.094
12944;172910;34.48;751;03.25.31.105
12908;172904;34.48;752;03.25.31.105
12928;172906;34.48;753;03.25.31.105
12908;172892;34.48;754;03.25.31.105
12912;172904;34.48;755;03.25.31.105
12928;172909;34.48;756;03.25.31.105
12908;172918;34.48;757;03.25.31.105
12948;172904;34.48;758;03.25.31.105
12924;172902;34.48;759;03.25.31.105
12920;172914;34.48;760;03.25.31.105
12908;172917;34.48;761;03.25.31.105
12904;172912;34.48;762;03.25.31.105
12928;172916;34.48;763;03.25.31.105
12908;172915;34.48;764;03.25.31.105
12916;172912;34.48;765;03.25.31.116
12912;172918;34.48;766;03.25.31.116
12912;172921;34.48;767;03.25.31.116
12928;172928;34.48;768;03.25.31.116
12928;172919;34.48;769;03.25.31.116
12904;172911;34.48;770;03.25.31.116
12892;172915;34.48;771;03.25.31.116
12936;172915;34.48;772;03.25.31.116
12912;172911;34.48;773;03.25.31.116
12928;172890;34.48;774;03.25.31.116
12932;172892;34.48;775;03.25.31.225
12924;172882;34.48;776;03.25.31.225
12928;172872;34.48;777;03.25.31.225
12936;172880;34.48;778;03.25.31.225
12924;172867;34.48;779;03.25.31.225
12924;172857;34.48;780;03.25.31.225
12936;172855;34.48;781;03.25.31.225
12920;172854;34.48;782;03.25.31.225
12892;172841;34.48;783;03.25.31.225
12932;172845;34.48;784;03.25.31.225
12924;172842;34.48;785;03.25.31.225
12904;172827;34.48;786;03.25.31.236
12916;172824;34.48;787;03.25.31.236
12936;172814;34.48;788;03.25.31.236
12904;172807;34.48;789;03.25.31.236
12892;172805;34.48;790;03.25.31.236
12904;172803;34.48;791;03.25.31.236
12908;172805;34.48;792;03.25.31.236
12904;172801;34.48;793;03.25.31.236
12944;172798;34.48;794;03.25.31.236
12916;172797;34.48;795;03.25.31.236
12904;172786;34.48;796;03.25.31.236
12908;172796;34.48;797;03.25.31.236
12912;172791;34.48;798;03.25.31.236
12936;172794;34.48;799;03.25.31.247
12932;172783;34.44;800;03.25.31.356
12912;172786;34.44;801;03.25.31.356
12928;172780;34.44;802;03.25.31.356
12944;172778;34.44;803;03.25.31.356
12892;172779;34.44;804;03.25.31.356
12920;172779;34.44;805;03.25.31.356
12920;172768;34.44;806;03.25.31.367
12912;172766;34.44;807;03.25.31.367
12936;172771;34.44;808;03.25.31.367
12928;172758;34.44;809;03.25.31.367
12884;172765;34.44;810;03.25.31.367
12932;172745;34.44;811;03.25.31.367
12928;172749;34.44;812;03.25.31.367
12928;172756;34.44;813;03.25.31.367
12928;172752;34.44;814;03.25.31.367
12900;172750;34.44;815;03.25.31.367
12944;172750;34.44;816;03.25.31.367
12892;172748;34.44;817;03.25.31.367
12936;172744;34.44;818;03.25.31.367
12912;172752;34.44;819;03.25.31.378
12916;172748;34.44;820;03.25.31.378
12928;172750;34.44;821;03.25.31.378
12920;172754;34.44;822;03.25.31.378
12924;172745;34.44;823;03.25.31.378
12920;172753;34.44;824;03.25.31.378
12936;172747;34.44;825;03.25.31.498
12920;172741;34.44;826;03.25.31.509
12928;172745;34.44;827;03.25.31.509
12908;172734;34.44;828;03.25.31.509
12932;172746;34.44;829;03.25.31.509
12900;172739;34.44;830;03.25.31.509
12948;172741;34.44;831;03.25.31.509
12924;172746;34.44;832;03.25.31.509
12916;172745;34.44;833;03.25.31.509
12920;172738;34.44;834;03.25.31.509
12936;172739;34.44;835;03.25.31.509
12920;172731;34.44;836;03.25.31.509
12916;172738;34.44;837;03.25.31.509
12892;172729;34.44;838;03.25.31.509
12892;172738;34.44;839;03.25.31.520
12932;172737;34.44;840;03.25.31.520
12920;172727;34.44;841;03.25.31.520
12892;172725;34.44;842;03.25.31.520
12928;172725;34.44;843;03.25.31.520
12912;172719;34.44;844;03.25.31.520
12924;172728;34.44;845;03.25.31.520
12924;172732;34.44;846;03.25.31.520
12912;172725;34.44;847;03.25.31.520
12912;172723;34.44;848;03.25.31.520
12928;172716;34.44;849;03.25.31.520
12912;172711;34.44;850;03.25.31.608
12916;172706;34.44;851;03.25.31.608
12928;172718;34.44;852;03.25.31.608
12932;172714;34.44;853;03.25.31.608
12916;172704;34.44;854;03.25.31.608
12944;172712;34.44;855;03.25.31.608
12928;172714;34.44;856;03.25.31.608
12928;172713;34.44;857;03.25.31.608
12932;172710;34.44;858;03.25.31.630
12912;172714;34.44;859;03.25.31.630
12936;172701;34.44;860;03.25.31.630
12928;172708;34.44;861;03.25.31.630
12944;172714;34.44;862;03.25.31.630
12924;172715;34.44;863;03.25.31.630
12916;172709;34.44;864;03.25.31.630
12944;172716;34.44;865;03.25.31.630
12908;172715;34.44;866;03.25.31.630
12896;172718;34.44;867;03.25.31.630
12900;172715;34.44;868;03.25.31.630
12892;172715;34.44;869;03.25.31.641
12940;172728;34.44;870;03.25.31.641
12936;172724;34.44;871;03.25.31.641
12932;172723;34.44;872;03.25.31.641
12920;172727;34.44;873;03.25.31.641
12960;172730;34.44;874;03.25.31.641
12920;172734;34.44;875;03.25.31.729
12920;172732;34.44;876;03.25.31.729
12916;172733;34.44;877;03.25.31.729
12936;172746;34.44;878;03.25.31.729
12928;172750;34.44;879;03.25.31.729
12924;172745;34.44;880;03.25.31.729
12944;172751;34.44;881;03.25.31.729
12920;172750;34.44;882;03.25.31.740
12944;172746;34.44;883;03.25.31.740
12936;172757;34.44;884;03.25.31.740
12928;172768;34.44;885;03.25.31.740
12912;172762;34.44;886;03.25.31.740
12904;172758;34.44;887;03.25.31.740
12928;172759;34.44;888;03.25.31.740
12932;172760;34.44;889;03.25.31.740
12936;172770;34.44;890;03.25.31.740
12920;172768;34.44;891;03.25.31.740
12936;172766;34.44;892;03.25.31.762
12920;172768;34.44;893;03.25.31.762
12928;172772;34.44;894;03.25.31.762
12908;172775;34.44;895;03.25.31.762
12920;172780;34.44;896;03.25.31.762
12908;172782;34.44;897;03.25.31.762
12904;172771;34.44;898;03.25.31.762
12948;172768;34.44;899;03.25.31.773
12892;172764;34.48;900;03.25.31.849
12920;172766;34.48;901;03.25.31.849
12928;172763;34.48;902;03.25.31.849
12920;172759;34.48;903;03.25.31.849
12928;172753;34.48;904;03.25.31.860
12920;172752;34.48;905;03.25.31.860
12932;172752;34.48;906;03.25.31.860
12908;172746;34.48;907;03.25.31.860
12968;172742;34.48;908;03.25.31.860
12928;172740;34.48;909;03.25.31.860
12940;172731;34.48;910;03.25.31.860
12904;172731;34.48;911;03.25.31.860
12928;172731;34.48;912;03.25.31.860
12936;172724;34.48;913;03.25.31.860
12920;172731;34.48;914;03.25.31.860
12920;172726;34.48;915;03.25.31.860
12928;172721;34.48;916;03.25.31.860
12936;172726;34.48;917;03.25.31.871
12936;172721;34.48;918;03.25.31.871
12928;172720;34.48;919;03.25.31.871
12900;172725;34.48;920;03.25.31.871
12924;172720;34.48;921;03.25.31.871
12908;172729;34.48;922;03.25.31.871
12912;172713;34.48;923;03.25.31.871
12952;172713;34.48;924;03.25.31.871
12920;172710;34.48;925;03.25.31.992
12928;172718;34.48;926;03.25.31.992
12908;172719;34.48;927;03.25.31.992
12932;172715;34.48;928;03.25.31.992
12900;172713;34.48;929;03.25.31.992
12928;172710;34.48;930;03.25.31.992
12896;172708;34.48;931;03.25.31.992
12928;172715;34.48;932;03.25.31.992
12904;172716;34.48;933;03.25.32.003
12912;172716;34.48;934;03.25.32.003
12920;172705;34.48;935;03.25.32.003
12904;172711;34.48;936;03.25.32.003
12928;172708;34.48;937;03.25.32.003
12916;172707;34.48;938;03.25.32.003
12888;172705;34.48;939;03.25.32.003
12900;172704;34.48;940;03.25.32.003
12920;172709;34.48;941;03.25.32.003
12916;172712;34.48;942;03.25.32.003
12928;172712;34.48;943;03.25.32.003
12900;172712;34.48;944;03.25.32.003
12916;172712;34.48;945;03.25.32.003
12928;172712;34.48;946;03.25.32.014
12928;172706;34.48;947;03.25.32.014
12940;172713;34.48;948;03.25.32.014
12936;172709;34.48;949;03.25.32.014
12936;172710;34.48;950;03.25.32.102
12924;172706;34.48;951;03.25.32.102
12924;172710;34.48;952;03.25.32.102
12940;172709;34.48;953;03.25.32.102
12924;172713;34.48;954;03.25.32.102
12916;172704;34.48;955;03.25.32.102
12928;172706;34.48;956;03.25.32.102
12908;172704;34.48;957;03.25.32.102
12912;172707;34.48;958;03.25.32.113
12916;172704;34.48;959;03.25.32.113
12928;172709;34.48;960;03.25.32.113
12920;172703;34.48;961;03.25.32.113
12904;172709;34.48;962;03.25.32.113
12920;172706;34.48;963;03.25.32.113
12928;172708;34.48;964;03.25.32.113
12928;172707;34.48;965;03.25.32.113
12928;172713;34.48;966;03.25.32.113
12912;172709;34.48;967;03.25.32.124
12924;172710;34.48;968;03.25.32.124
12928;172706;34.48;969;03.25.32.124
12904;172705;34.48;970;03.25.32.124
12888;172701;34.48;971;03.25.32.124
12920;172703;34.48;972;03.25.32.124
12944;172696;34.48;973;03.25.32.124
12928;172711;34.48;974;03.25.32.124
12908;172697;34.48;975;03.25.32.222
12916;172702;34.48;976;03.25.32.222
12892;172704;34.48;977;03.25.32.222
12904;172693;34.48;978;03.25.32.222
12888;172700;34.48;979;03.25.32.222
12900;172700;34.48;980;03.25.32.222
12908;172694;34.48;981;03.25.32.233
12908;172701;34.48;982;03.25.32.233
12892;172697;34.48;983;03.25.32.233
12916;172701;34.48;984;03.25.32.233
12928;172707;34.48;985;03.25.32.233
12920;172711;34.48;986;03.25.32.233
12904;172706;34.48;987;03.25.32.233
12936;172706;34.48;988;03.25.32.233
12960;172701;34.48;989;03.25.32.233
12896;172711;34.48;990;03.25.32.233
12920;172705;34.48;991;03.25.32.233
12908;172717;34.48;992;03.25.32.233
12928;172717;34.48;993;03.25.32.233
12892;172722;34.48;994;03.25.32.244
12932;172720;34.48;995;03.25.32.244
12936;172723;34.48;996;03.25.32.244
12944;172718;34.48;997;03.25.32.244
12928;172707;34.48;998;03.25.32.244
12928;172724;34.48;999;03.25.32.244
12900;172717;34.48;000;03.25.32.343
12936;172721;34.48;001;03.25.32.343
12916;172724;34.48;002;03.25.32.353
12908;172721;34.48;003;03.25.32.353
12936;172721;34.48;004;03.25.32.353
12928;172720;34.48;005;03.25.32.353
12912;172726;34.48;006;03.25.32.353
12932;172713;34.48;007;03.25.32.353
12948;172723;34.48;008;03.25.32.353
12932;172724;34.48;009;03.25.32.353
12928;172724;34.48;010;03.25.32.353
12920;172726;34.48;011;03.25.32.353
12928;172718;34.48;012;03.25.32.353
12924;172725;34.48;013;03.25.32.353
12924;172727;34.48;014;03.25.32.364
12916;172727;34.48;015;03.25.32.364
12928;172731;34.48;016;03.25.32.364
12936;172727;34.48;017;03.25.32.364
12920;172735;34.48;018;03.25.32.364
12924;172745;34.48;019;03.25.32.364
12928;172738;34.48;020;03.25.32.364
12928;172742;34.48;021;03.25.32.364
12912;172742;34.48;022;03.25.32.364
12956;172736;34.48;023;03.25.32.364
12928;172746;34.48;024;03.25.32.364
12920;172740;34.48;025;03.25.32.496
12908;172745;34.48;026;03.25.32.496
12928;172745;34.48;027;03.25.32.496
12924;172746;34.48;028;03.25.32.496
12924;172744;34.48;029;03.25.32.496
12924;172751;34.48;030;03.25.32.496
12920;172749;34.48;031;03.25.32.496
12928;172737;34.48;032;03.25.32.496
12932;172743;34.48;033;03.25.32.496
12936;172736;34.48;034;03.25.32.507
12940;172726;34.48;035;03.25.32.507
12932;172736;34.48;036;03.25.32.507
12892;172731;34.48;037;03.25.32.507
12920;172727;34.48;038;03.25.32.507
12920;172726;34.48;039;03.25.32.507
12928;172720;34.48;040;03.25.32.507
12912;172710;34.48;041;03.25.32.507
12908;172718;34.48;042;03.25.32.507
12936;172703;34.48;043;03.25.32.507
12932;172705;34.48;044;03.25.32.507
12920;172694;34.48;045;03.25.32.507
12892;172693;34.48;046;03.25.32.507
12928;172698;34.48;047;03.25.32.518
12932;172692;34.48;048;03.25.32.518
12940;172688;34.48;049;03.25.32.518
12928;172691;34.48;050;03.25.32.604
12904;172687;34.48;051;03.25.32.604
12892;172679;34.48;052;03.25.32.604
12944;172688;34.48;053;03.25.32.615
12928;172676;34.48;054;03.25.32.615
12944;172685;34.48;055;03.25.32.615
12892;172692;34.48;056;03.25.32.615
12892;172676;34.48;057;03.25.32.615
12904;172687;34.48;058;03.25.32.615
12900;172682;34.48;059;03.25.32.615
12924;172682;34.48;060;03.25.32.615
12912;172672;34.48;061;03.25.32.615
12912;172677;34.48;062;03.25.32.615
12916;172673;34.48;063;03.25.32.615
12924;172671;34.48;064;03.25.32.615
12920;172668;34.48;065;03.25.32.615
12924;172673;34.48;066;03.25.32.615
12932;172667;34.48;067;03.25.32.627
12940;172673;34.48;068;03.25.32.627
12900;172664;34.48;069;03.25.32.627
12920;172671;34.48;070;03.25.32.627
12908;172666;34.48;071;03.25.32.627
12952;172671;34.48;072;03.25.32.627
12928;172669;34.48;073;03.25.32.627
12892;172675;34.48;074;03.25.32.627
12904;172678;34.48;075;03.25.32.736
12932;172672;34.48;076;03.25.32.736
12928;172677;34.48;077;03.25.32.747
12936;172671;34.48;078;03.25.32.747
12952;172675;34.48;079;03.25.32.747
12928;172675;34.48;080;03.25.32.747
12932;172681;34.48;081;03.25.32.747
12892;172682;34.48;082;03.25.32.747
12912;172685;34.48;083;03.25.32.747
12912;172683;34.48;084;03.25.32.747
12920;172676;34.48;085;03.25.32.758
12920;172686;34.48;086;03.25.32.758
12912;172680;34.48;087;03.25.32.758
12924;172681;34.48;088;03.25.32.758
12924;172686;34.48;089;03.25.32.758
12932;172688;34.48;090;03.25.32.758
12920;172681;34.48;091;03.25.32.758
12916;172683;34.48;092;03.25.32.758
12924;172687;34.48;093;03.25.32.758
12892;172694;34.48;094;03.25.32.769
12936;172690;34.48;095;03.25.32.769
12900;172697;34.48;096;03.25.32.769
12912;172698;34.48;097;03.25.32.769
12904;172687;34.48;098;03.25.32.769
12944;172689;34.48;099;03.25.32.769
12896;172695;34.44;100;03.25.32.856
12924;172701;34.44;101;03.25.32.856
12916;172698;34.44;102;03.25.32.856
12960;172696;34.44;103;03.25.32.856
12928;172690;34.44;104;03.25.32.856
12952;172689;34.44;105;03.25.32.856
12916;172689;34.44;106;03.25.32.856
12908;172692;34.44;107;03.25.32.856
12936;172694;34.44;108;03.25.32.856
12932;172701;34.44;109;03.25.32.856
12928;172693;34.44;110;03.25.32.856
12924;172699;34.44;111;03.25.32.867
12940;172691;34.44;112;03.25.32.867
12928;172692;34.44;113;03.25.32.867
12908;172701;34.44;114;03.25.32.867
12908;172708;34.44;115;03.25.32.867
12944;172710;34.44;116;03.25.32.867
12940;172705;34.44;117;03.25.32.867
12892;172714;34.44;118;03.25.32.867
12928;172717;34.44;119;03.25.32.867
12948;172720;34.44;120;03.25.32.867
12932;172720;34.44;121;03.25.32.867
12920;172720;34.44;122;03.25.32.867
12948;172723;34.44;123;03.25.32.867
12960;172724;34.44;124;03.25.32.878
12912;172732;34.44;125;03.25.32.988
12920;172735;34.44;126;03.25.32.988
12908;172738;34.44;127;03.25.32.988
12904;172734;34.44;128;03.25.32.988
12928;172743;34.44;129;03.25.32.988
12896;172750;34.44;130;03.25.32.988
12920;172738;34.44;131;03.25.32.999
12920;172753;34.44;132;03.25.32.999
12884;172754;34.44;133;03.25.32.999
12936;172758;34.44;134;03.25.32.999
12916;172765;34.44;135;03.25.32.999
12912;172759;34.44;136;03.25.32.999
12920;172763;34.44;137;03.25.32.999
12900;172771;34.44;138;03.25.32.999
12920;172770;34.44;139;03.25.32.999
12936;172785;34.44;140;03.25.32.999
12936;172779;34.44;141;03.25.32.999
12948;172783;34.44;142;03.25.32.999
12932;172781;34.44;143;03.25.32.999
12928;172786;34.44;144;03.25.33.010
12920;172790;34.44;145;03.25.33.010
12908;172792;34.44;146;03.25.33.010
12928;172797;34.44;147;03.25.33.010
12940;172804;34.44;148;03.25.33.010
12936;172796;34.44;149;03.25.33.010
12916;172809;34.48;150;03.25.33.097
12936;172810;34.48;151;03.25.33.097
12892;172811;34.48;152;03.25.33.097
12920;172822;34.48;153;03.25.33.108
12908;172823;34.48;154;03.25.33.108
12936;172824;34.48;155;03.25.33.108
12924;172826;34.48;156;03.25.33.108
12928;172828;34.48;157;03.25.33.108
12900;172830;34.48;158;03.25.33.119
12912;172829;34.48;159;03.25.33.119
12932;172829;34.48;160;03.25.33.119
12900;172836;34.48;161;03.25.33.130
12912;172837;34.48;162;03.25.33.130
12916;172841;34.48;163;03.25.33.130
12916;172834;34.48;164;03.25.33.130
12912;172843;34.48;165;03.25.33.130
12928;172837;34.48;166;03.25.33.130
12892;172842;34.48;167;03.25.33.130
12920;172849;34.48;168;03.25.33.130
12908;172847;34.48;169;03.25.33.130
12900;172847;34.48;170;03.25.33.130
12920;172844;34.48;171;03.25.33.130
12892;172843;34.48;172;03.25.33.130
12908;172845;34.48;173;03.25.33.141
12952;172845;34.48;174;03.25.33.141
12900;172843;34.48;175;03.25.33.229
12912;172841;34.48;176;03.25.33.229
12912;172839;34.48;177;03.25.33.229
12884;172828;34.48;178;03.25.33.229
12908;172832;34.48;179;03.25.33.229
12928;172826;34.48;180;03.25.33.229
12916;172826;34.48;181;03.25.33.229
12932;172825;34.48;182;03.25.33.229
12916;172818;34.48;183;03.25.33.229
12920;172823;34.48;184;03.25.33.229
12932;172817;34.48;185;03.25.33.229
12916;172810;34.48;186;03.25.33.229
12928;172814;34.48;187;03.25.33.240
12904;172809;34.48;188;03.25.33.240
12900;172810;34.48;189;03.25.33.240
12904;172801;34.48;190;03.25.33.240
12920;172804;34.48;191;03.25.33.240
12924;172801;34.48;192;03.25.33.240
12908;172809;34.48;193;03.25.33.240
12952;172802;34.48;194;03.25.33.240
12908;172798;34.48;195;03.25.33.240
12944;172789;34.48;196;03.25.33.240
12924;172785;34.48;197;03.25.33.240
12916;172784;34.48;198;03.25.33.240
12924;172781;34.48;199;03.25.33.240
12944;172782;34.44;200;03.25.33.350
12924;172787;34.44;201;03.25.33.350
12892;172775;34.44;202;03.25.33.350
12884;172786;34.44;203;03.25.33.350
12912;172777;34.44;204;03.25.33.350
12916;172780;34.44;205;03.25.33.350
12924;172782;34.44;206;03.25.33.350
12928;172778;34.44;207;03.25.33.350
12944;172780;34.44;208;03.25.33.350
12936;172777;34.44;209;03.25.33.361
12920;172778;34.44;210;03.25.33.361
12944;172786;34.44;211;03.25.33.361
12928;172782;34.44;212;03.25.33.361
12928;172781;34.44;213;03.25.33.361
12944;172776;34.44;214;03.25.33.361
12908;172787;34.44;215;03.25.33.361
12920;172776;34.44;216;03.25.33.361
12880;172783;34.44;217;03.25.33.361
12892;172791;34.44;218;03.25.33.361
12904;172791;34.44;219;03.25.33.361
12916;172785;34.44;220;03.25.33.361
12904;172788;34.44;221;03.25.33.361
12912;172783;34.44;222;03.25.33.372
12924;172783;34.44;223;03.25.33.372
12920;172787;34.44;224;03.25.33.372
12932;172793;34.44;225;03.25.33.481
12908;172789;34.44;226;03.25.33.481
12928;172797;34.44;227;03.25.33.481
12928;172787;34.44;228;03.25.33.481
12936;172787;34.44;229;03.25.33.492
12896;172775;34.44;230;03.25.33.492
12928;172785;34.44;231;03.25.33.492
12912;172782;34.44;232;03.25.33.492
12956;172790;34.44;233;03.25.33.492
12892;172787;34.44;234;03.25.33.492
12912;172784;34.44;235;03.25.33.492
12908;172786;34.44;236;03.25.33.492
12920;172773;34.44;237;03.25.33.492
12924;172787;34.44;238;03.25.33.492
12908;172786;34.44;239;03.25.33.492
12916;172790;34.44;240;03.25.33.492
12924;172781;34.44;241;03.25.33.492
12916;172787;34.44;242;03.25.33.503
12948;172790;34.44;243;03.25.33.503
12860;172778;34.44;244;03.25.33.503
12920;172779;34.44;245;03.25.33.503
12892;172778;34.44;246;03.25.33.503
12928;172781;34.44;247;03.25.33.503
12904;172788;34.44;248;03.25.33.503
12896;172785;34.44;249;03.25.33.503
12912;172784;34.44;250;03.25.33.624
12932;172787;34.44;251;03.25.33.624
12892;172790;34.44;252;03.25.33.624
12944;172781;34.44;253;03.25.33.624
12908;172787;34.44;254;03.25.33.624
12908;172782;34.44;255;03.25.33.624
12924;172785;34.44;256;03.25.33.624
12924;172788;34.44;257;03.25.33.624
12944;172792;34.44;258;03.25.33.624
12936;172795;34.44;259;03.25.33.624
12932;172792;34.44;260;03.25.33.624
12944;172797;34.44;261;03.25.33.624
12944;172795;34.44;262;03.25.33.624
12916;172789;34.44;263;03.25.33.635
12920;172794;34.44;264;03.25.33.635
12912;172802;34.44;265;03.25.33.635
12916;172791;34.44;266;03.25.33.635
12908;172801;34.44;267;03.25.33.635
12900;172798;34.44;268;03.25.33.635
12904;172791;34.44;269;03.25.33.635
12920;172800;34.44;270;03.25.33.635
12928;172801;34.44;271;03.25.33.635
12936;172806;34.44;272;03.25.33.635
12896;172798;34.44;273;03.25.33.635
12944;172805;34.44;274;03.25.33.635
12908;172816;34.44;275;03.25.33.756
12920;172824;34.44;276;03.25.33.756
12948;172817;34.44;277;03.25.33.756
12916;172823;34.44;278;03.25.33.756
12920;172833;34.44;279;03.25.33.756
12948;172827;34.44;280;03.25.33.756
12924;172832;34.44;281;03.25.33.756
12912;172839;34.44;282;03.25.33.756
12936;172839;34.44;283;03.25.33.756
12936;172845;34.44;284;03.25.33.756
12944;172844;34.44;285;03.25.33.766
12908;172845;34.44;286;03.25.33.766
12904;172853;34.44;287;03.25.33.766
12924;172847;34.44;288;03.25.33.766
12908;172855;34.44;289;03.25.33.766
12904;172843;34.44;290;03.25.33.766
12892;172852;34.44;291;03.25.33.766
12952;172859;34.44;292;03.25.33.810
12908;172851;34.44;293;03.25.33.810
12928;172859;34.44;294;03.25.33.810
12924;172865;34.44;295;03.25.33.810
12908;172866;34.44;296;03.25.33.810
12944;172865;34.44;297;03.25.33.810
12920;172860;34.44;298;03.25.33.810
12932;172865;34.44;299;03.25.33.810
12916;172870;34.44;300;03.25.33.854
12912;172870;34.44;301;03.25.33.854
12924;172872;34.44;302;03.25.33.854
12940;172885;34.44;303;03.25.33.854
12904;172888;34.44;304;03.25.33.854
12944;172893;34.44;305;03.25.33.854
12928;172895;34.44;306;03.25.33.865
12944;172891;34.44;307;03.25.33.865
12920;172907;34.44;308;03.25.33.865
12912;172909;34.44;309;03.25.33.865
12932;172917;34.44;310;03.25.33.865
12940;172918;34.44;311;03.25.33.865
12892;172918;34.44;312;03.25.33.865
12920;172928;34.44;313;03.25.33.865
12928;172927;34.44;314;03.25.33.865
12904;172926;34.44;315;03.25.33.876
12940;172935;34.44;316;03.25.33.876
12928;172926;34.44;317;03.25.33.887
12892;172936;34.44;318;03.25.33.887
12948;172928;34.44;319;03.25.33.887
12904;172920;34.44;320;03.25.33.887
12916;172923;34.44;321;03.25.33.887
12932;172916;34.44;322;03.25.33.887
12908;172911;34.44;323;03.25.33.898
12916;172901;34.44;324;03.25.33.898
12932;172886;34.44;325;03.25.33.974
12884;172895;34.44;326;03.25.33.985
12908;172889;34.44;327;03.25.33.985
12888;172885;34.44;328;03.25.33.985
12940;172869;34.44;329;03.25.33.985
12920;172868;34.44;330;03.25.33.985
12928;172863;34.44;331;03.25.33.985
12920;172864;34.44;332;03.25.33.985
12924;172852;34.44;333;03.25.33.985
12936;172846;34.44;334;03.25.33.985
12920;172844;34.44;335;03.25.33.985
12932;172844;34.44;336;03.25.33.985
12892;172841;34.44;337;03.25.33.985
12932;172840;34.44;338;03.25.33.985
12924;172831;34.44;339;03.25.33.985
12932;172837;34.44;340;03.25.33.996
12944;172828;34.44;341;03.25.33.996
12932;172834;34.44;342;03.25.33.996
12920;172826;34.44;343;03.25.33.996
12912;172828;34.44;344;03.25.34.007
12908;172824;34.44;345;03.25.34.007
12912;172818;34.44;346;03.25.34.007
12912;172820;34.44;347;03.25.34.007
12916;172823;34.44;348;03.25.34.007
12944;172824;34.44;349;03.25.34.007
12900;172813;34.48;350;03.25.34.117
12920;172821;34.48;351;03.25.34.117
12928;172822;34.48;352;03.25.34.117
12928;172827;34.48;353;03.25.34.117
12916;172824;34.48;354;03.25.34.117
12928;172814;34.48;355;03.25.34.117
12920;172821;34.48;356;03.25.34.117
12908;172820;34.48;357;03.25.34.117
12916;172822;34.48;358;03.25.34.117
12912;172825;34.48;359;03.25.34.117
12928;172821;34.48;360;03.25.34.117
12916;172822;34.48;361;03.25.34.128
12960;172818;34.48;362;03.25.34.128
12936;172820;34.48;363;03.25.34.128
12936;172825;34.48;364;03.25.34.128
12936;172827;34.48;365;03.25.34.128
12944;172827;34.48;366;03.25.34.128
12944;172827;34.48;367;03.25.34.128
12964;172823;34.48;368;03.25.34.128
12928;172824;34.48;369;03.25.34.128
12924;172824;34.48;370;03.25.34.128
12924;172828;34.48;371;03.25.34.128
12912;172832;34.48;372;03.25.34.128
12928;172826;34.48;373;03.25.34.128
12916;172831;34.48;374;03.25.34.139
12928;172831;34.48;375;03.25.34.248
12928;172828;34.48;376;03.25.34.248
12944;172827;34.48;377;03.25.34.248
12916;172827;34.48;378;03.25.34.248
12936;172824;34.48;379;03.25.34.248
12908;172828;34.48;380;03.25.34.248
12888;172828;34.48;381;03.25.34.248
12916;172825;34.48;382;03.25.34.259
12928;172833;34.48;383;03.25.34.259
12932;172829;34.48;384;03.25.34.259
12936;172824;34.48;385;03.25.34.259
12928;172819;34.48;386;03.25.34.259
12960;172832;34.48;387;03.25.34.259
12928;172826;34.48;388;03.25.34.259
12892;172817;34.48;389;03.25.34.259
12912;172828;34.48;390;03.25.34.259
12932;172824;34.48;391;03.25.34.259
12908;172825;34.48;392;03.25.34.259
12916;172825;34.48;393;03.25.34.259
12920;172833;34.48;394;03.25.34.259
12920;172827;34.48;395;03.25.34.270
12924;172832;34.48;396;03.25.34.270
12928;172837;34.48;397;03.25.34.270
12900;172838;34.48;398;03.25.34.270
12940;172829;34.48;399;03.25.34.270
12928;172832;34.48;400;03.25.34.347
12924;172830;34.48;401;03.25.34.347
12936;172836;34.48;402;03.25.34.347
12928;172843;34.48;403;03.25.34.347
12904;172851;34.48;404;03.25.34.358
12920;172845;34.48;405;03.25.34.358
12892;172857;34.48;406;03.25.34.358
12936;172854;34.48;407;03.25.34.358
12920;172860;34.48;408;03.25.34.358
12892;172860;34.48;409;03.25.34.358
12916;172862;34.48;410;03.25.34.358
12924;172866;34.48;411;03.25.34.358
12904;172874;34.48;412;03.25.34.369
12916;172866;34.48;413;03.25.34.369
12940;172862;34.48;414;03.25.34.369
12908;172862;34.48;415;03.25.34.369
12904;172865;34.48;416;03.25.34.369
12916;172867;34.48;417;03.25.34.380
12928;172870;34.48;418;03.25.34.380
12932;172875;34.48;419;03.25.34.380
12932;172871;34.48;420;03.25.34.380
12904;172865;34.48;421;03.25.34.391
12920;172883;34.48;422;03.25.34.391
12912;172873;34.48;423;03.25.34.391
12924;172878;34.48;424;03.25.34.391
12884;172884;34.48;425;03.25.34.479
12900;172878;34.48;426;03.25.34.479
12920;172886;34.48;427;03.25.34.479
12960;172881;34.48;428;03.25.34.479
12908;172880;34.48;429;03.25.34.479
12944;172884;34.48;430;03.25.34.479
12932;172878;34.48;431;03.25.34.479
12924;172888;34.48;432;03.25.34.479
12916;172890;34.48;433;03.25.34.479
12920;172886;34.48;434;03.25.34.479
12928;172888;34.48;435;03.25.34.479
12916;172895;34.48;436;03.25.34.479
12892;172888;34.48;437;03.25.34.479
12936;172897;34.48;438;03.25.34.490
12928;172896;34.48;439;03.25.34.490
12936;172903;34.48;440;03.25.34.490
12924;172901;34.48;441;03.25.34.490
12936;172900;34.48;442;03.25.34.490
12908;172907;34.48;443;03.25.34.490
12924;172912;34.48;444;03.25.34.490
12944;172911;34.48;445;03.25.34.490
12904;172904;34.48;446;03.25.34.490
12924;172908;34.48;447;03.25.34.490
12904;172920;34.48;448;03.25.34.490
12928;172910;34.48;449;03.25.34.490
12892;172927;34.44;450;03.25.34.610
12920;172921;34.44;451;03.25.34.610
12896;172926;34.44;452;03.25.34.610
12952;172914;34.44;453;03.25.34.610
12900;172924;34.44;454;03.25.34.610
12924;172913;34.44;455;03.25.34.610
12920;172921;34.44;456;03.25.34.610
12920;172920;34.44;457;03.25.34.610
12928;172919;34.44;458;03.25.34.610
12904;172924;34.44;459;03.25.34.621
12904;172916;34.44;460;03.25.34.621
12900;172909;34.44;461;03.25.34.621
12908;172909;34.44;462;03.25.34.621
12944;172899;34.44;463;03.25.34.621
12932;172897;34.44;464;03.25.34.621
12936;172899;34.44;465;03.25.34.621
12936;172893;34.44;466;03.25.34.621
12896;172897;34.44;467;03.25.34.621
12924;172878;34.44;468;03.25.34.621
12904;172882;34.44;469;03.25.34.621
12924;172881;34.44;470;03.25.34.621
12908;172879;34.44;471;03.25.34.621
12928;172876;34.44;472;03.25.34.632
12936;172862;34.44;473;03.25.34.632
12932;172874;34.44;474;03.25.34.632
12920;172866;34.44;475;03.25.34.742
12908;172868;34.44;476;03.25.34.742
12936;172866;34.44;477;03.25.34.742
12916;172864;34.44;478;03.25.34.742
12944;172869;34.44;479;03.25.34.742
12924;172866;34.44;480;03.25.34.753
12916;172868;34.44;481;03.25.34.753
12916;172865;34.44;482;03.25.34.753
12928;172860;34.44;483;03.25.34.753
12920;172859;34.44;484;03.25.34.753
12936;172868;34.44;485;03.25.34.753
12960;172871;34.44;486;03.25.34.753
12936;172870;34.44;487;03.25.34.753
12928;172873;34.44;488;03.25.34.753
12928;172882;34.44;489;03.25.34.753
12924;172881;34.44;490;03.25.34.753
12920;172878;34.44;491;03.25.34.753
12924;172874;34.44;492;03.25.34.753
12916;172882;34.44;493;03.25.34.764
12892;172872;34.44;494;03.25.34.764
12892;172868;34.44;495;03.25.34.764
12904;172874;34.44;496;03.25.34.764
12936;172877;34.44;497;03.25.34.764
12928;172880;34.44;498;03.25.34.764
12944;172871;34.44;499;03.25.34.764
12892;172866;34.44;500;03.25.34.851
12932;172880;34.44;501;03.25.34.862
12892;172885;34.44;502;03.25.34.862
12908;172876;34.44;503;03.25.34.862
12908;172880;34.44;504;03.25.34.862
12916;172882;34.44;505;03.25.34.862
12900;172886;34.44;506;03.25.34.862
12920;172895;34.44;507;03.25.34.862
12920;172885;34.44;508;03.25.34.873
12912;172886;34.44;509;03.25.34.873
12908;172891;34.44;510;03.25.34.873
12932;172887;34.44;511;03.25.34.873
12928;172885;34.44;512;03.25.34.873
12944;172894;34.44;513;03.25.34.873
12904;172890;34.44;514;03.25.34.873
12944;172893;34.44;515;03.25.34.873
12936;172901;34.44;516;03.25.34.873
12908;172889;34.44;517;03.25.34.873
12916;172893;34.44;518;03.25.34.884
12916;172897;34.44;519;03.25.34.884
12928;172894;34.44;520;03.25.34.884
12908;172889;34.44;521;03.25.34.884
12908;172890;34.44;522;03.25.34.884
12928;172889;34.44;523;03.25.34.884
12900;172892;34.44;524;03.25.34.884
12904;172895;34.44;525;03.25.34.982
12892;172904;34.44;526;03.25.34.982
12924;172892;34.44;527;03.25.34.982
12912;172905;34.44;528;03.25.34.982
12904;172910;34.44;529;03.25.34.982
12916;172899;34.44;530;03.25.34.982
12904;172902;34.44;531;03.25.34.982
12920;172906;34.44;532;03.25.34.982
12960;172908;34.44;533;03.25.34.982
12904;172894;34.44;534;03.25.34.982
12904;172910;34.44;535;03.25.34.993
12916;172916;34.44;536;03.25.34.993
12936;172916;34.44;537;03.25.34.993
12928;172919;34.44;538;03.25.34.993
12900;172916;34.44;539;03.25.34.993
12912;172910;34.44;540;03.25.34.993
12892;172918;34.44;541;03.25.34.993
12912;172920;34.44;542;03.25.34.993
12936;172918;34.44;543;03.25.34.993
12928;172920;34.44;544;03.25.34.993
12908;172924;34.44;545;03.25.34.993
12924;172927;34.44;546;03.25.34.993
12924;172925;34.44;547;03.25.34.993
12960;172930;34.44;548;03.25.35.004
12936;172924;34.44;549;03.25.35.004
12900;172931;34.48;550;03.25.35.103
12924;172938;34.48;551;03.25.35.103
12928;172936;34.48;552;03.25.35.103
12920;172949;34.48;553;03.25.35.103
12924;172951;34.48;554;03.25.35.103
12920;172947;34.48;555;03.25.35.103
12908;172950;34.48;556;03.25.35.114
12932;172954;34.48;557;03.25.35.114
12892;172950;34.48;558;03.25.35.114
12912;172950;34.48;559;03.25.35.114
12944;172960;34.48;560;03.25.35.114
12932;172960;34.48;561;03.25.35.114
12908;172965;34.48;562;03.25.35.114
12900;172964;34.48;563;03.25.35.114
12940;172971;34.48;564;03.25.35.114
12904;172960;34.48;565;03.25.35.114
12904;172964;34.48;566;03.25.35.114
12932;172962;34.48;567;03.25.35.114
12884;172959;34.48;568;03.25.35.114
12912;172961;34.48;569;03.25.35.125
12928;172963;34.48;570;03.25.35.125
12924;172963;34.48;571;03.25.35.125
12936;172963;34.48;572;03.25.35.125
12908;172956;34.48;573;03.25.35.125
12908;172968;34.48;574;03.25.35.125
12932;172967;34.48;575;03.25.35.235
12908;172973;34.48;576;03.25.35.235
12928;172979;34.48;577;03.25.35.235
12920;172982;34.48;578;03.25.35.246
12928;172977;34.48;579;03.25.35.246
12932;172989;34.48;580;03.25.35.246
12908;172982;34.48;581;03.25.35.246
12928;172984;34.48;582;03.25.35.246
12920;172975;34.48;583;03.25.35.246
12904;172987;34.48;584;03.25.35.246
12900;172993;34.48;585;03.25.35.246
12928;172986;34.48;586;03.25.35.246
12908;172985;34.48;587;03.25.35.246
12920;172979;34.48;588;03.25.35.246
12936;172978;34.48;589;03.25.35.246
12908;172977;34.48;590;03.25.35.257
12928;172985;34.48;591;03.25.35.257
12928;172983;34.48;592;03.25.35.257
12920;172977;34.48;593;03.25.35.257
12916;172973;34.48;594;03.25.35.257
12904;172970;34.48;595;03.25.35.257
12900;172960;34.48;596;03.25.35.257
12920;172951;34.48;597;03.25.35.257
12936;172954;34.48;598;03.25.35.257
12932;172940;34.48;599;03.25.35.257
12920;172940;34.44;600;03.25.35.355
12928;172935;34.44;601;03.25.35.355
12904;172929;34.44;602;03.25.35.355
12928;172926;34.44;603;03.25.35.355
12896;172928;34.44;604;03.25.35.355
12892;172922;34.44;605;03.25.35.355
12904;172918;34.44;606;03.25.35.355
12928;172909;34.44;607;03.25.35.355
12888;172910;34.44;608;03.25.35.376
12916;172903;34.44;609;03.25.35.376
12904;172897;34.44;610;03.25.35.376
12920;172894;34.44;611;03.25.35.376
12892;172902;34.44;612;03.25.35.376
12884;172890;34.44;613;03.25.35.376
12892;172895;34.44;614;03.25.35.376
12904;172896;34.44;615;03.25.35.376
12916;172889;34.44;616;03.25.35.376
12920;172891;34.44;617;03.25.35.376
12912;172884;34.44;618;03.25.35.376
12900;172887;34.44;619;03.25.35.376
12924;172882;34.44;620;03.25.35.388
12900;172892;34.44;621;03.25.35.388
12908;172883;34.44;622;03.25.35.388
12916;172882;34.44;623;03.25.35.388
12904;172884;34.44;624;03.25.35.388
12904;172880;34.44;625;03.25.35.475
12892;172886;34.44;626;03.25.35.475
12912;172885;34.44;627;03.25.35.475
12948;172884;34.44;628;03.25.35.475
12892;172884;34.44;629;03.25.35.475
12904;172884;34.44;630;03.25.35.475
12904;172881;34.44;631;03.25.35.475
12896;172874;34.44;632;03.25.35.486
12916;172882;34.44;633;03.25.35.486
12936;172874;34.44;634;03.25.35.486
12928;172868;34.44;635;03.25.35.486
12904;172869;34.44;636;03.25.35.486
12916;172878;34.44;637;03.25.35.486
12888;172859;34.44;638;03.25.35.486
12928;172864;34.44;639;03.25.35.486
12948;172876;34.44;640;03.25.35.486
12888;172879;34.44;641;03.25.35.486
12880;172872;34.44;642;03.25.35.486
12936;172879;34.44;643;03.25.35.486
12908;172880;34.44;644;03.25.35.486
12896;172870;34.44;645;03.25.35.497
12936;172875;34.44;646;03.25.35.497
12912;172876;34.44;647;03.25.35.497
12960;172887;34.44;648;03.25.35.497
12936;172884;34.44;649;03.25.35.497
12928;172875;34.48;650;03.25.35.607
12916;172877;34.48;651;03.25.35.607
12912;172889;34.48;652;03.25.35.607
12896;172896;34.48;653;03.25.35.618
12908;172887;34.48;654;03.25.35.618
12932;172883;34.48;655;03.25.35.618
12904;172889;34.48;656;03.25.35.618
12920;172890;34.48;657;03.25.35.618
12928;172896;34.48;658;03.25.35.618
12932;172887;34.48;659;03.25.35.618
12916;172891;34.48;660;03.25.35.618
12920;172893;34.48;661;03.25.35.618
12892;172895;34.48;662;03.25.35.618
12928;172882;34.48;663;03.25.35.618
12908;172898;34.48;664;03.25.35.618
12928;172896;34.48;665;03.25.35.618
12892;172901;34.48;666;03.25.35.618
12900;172900;34.48;667;03.25.35.640
12916;172901;34.48;668;03.25.35.640
12924;172905;34.48;669;03.25.35.640
12896;172913;34.48;670;03.25.35.651
12928;172916;34.48;671;03.25.35.651
12916;172910;34.48;672;03.25.35.651
12912;172915;34.48;673;03.25.35.651
12936;172914;34.48;674;03.25.35.651
12892;172915;34.48;675;03.25.35.738
12904;172916;34.48;676;03.25.35.738
12948;172920;34.48;677;03.25.35.738
12928;172921;34.48;678;03.25.35.738
12916;172916;34.48;679;03.25.35.738
12908;172926;34.48;680;03.25.35.738
12920;172918;34.48;681;03.25.35.738
12904;172923;34.48;682;03.25.35.738
12916;172920;34.48;683;03.25.35.738
12940;172926;34.48;684;03.25.35.738
12940;172928;34.48;685;03.25.35.738
12892;172933;34.48;686;03.25.35.738
12936;172930;34.48;687;03.25.35.749
12924;172932;34.48;688;03.25.35.749
12936;172934;34.48;689;03.25.35.749
12912;172937;34.48;690;03.25.35.749
12924;172939;34.48;691;03.25.35.749
12912;172945;34.48;692;03.25.35.749
12940;172951;34.48;693;03.25.35.749
12904;172949;34.48;694;03.25.35.749
12944;172950;34.48;695;03.25.35.749
12932;172952;34.48;696;03.25.35.749
12916;172952;34.48;697;03.25.35.749
12928;172956;34.48;698;03.25.35.749
12916;172961;34.48;699;03.25.35.749
12916;172959;34.48;700;03.25.35.881
12904;172965;34.48;701;03.25.35.881
12892;172968;34.48;702;03.25.35.881
12928;172978;34.48;703;03.25.35.881
12916;172974;34.48;704;03.25.35.881
12928;172978;34.48;705;03.25.35.881
12920;172986;34.48;706;03.25.35.881
12936;172989;34.48;707;03.25.35.881
12928;172990;34.48;708;03.25.35.881
12948;172998;34.48;709;03.25.35.892
12892;173000;34.48;710;03.25.35.892
12932;173010;34.48;711;03.25.35.892
12924;173004;34.48;712;03.25.35.892
12916;173007;34.48;713;03.25.35.892
12908;172999;34.48;714;03.25.35.892
12896;173013;34.48;715;03.25.35.892
12944;173005;34.48;716;03.25.35.892
12948;172996;34.48;717;03.25.35.892
12892;172991;34.48;718;03.25.35.892
12960;172984;34.48;719;03.25.35.892
12920;172990;34.48;720;03.25.35.892
12916;172987;34.48;721;03.25.35.892
12928;172984;34.48;722;03.25.35.903
12928;172985;34.48;723;03.25.35.903
12924;172979;34.48;724;03.25.35.903
12928;172969;34.48;725;03.25.35.979
12916;172966;34.48;726;03.25.35.979
12900;172970;34.48;727;03.25.35.979
12880;172966;34.48;728;03.25.35.979
12892;172963;34.48;729;03.25.35.979
12904;172954;34.48;730;03.25.35.979
12944;172945;34.48;731;03.25.35.990
12924;172934;34.48;732;03.25.35.990
12904;172942;34.48;733;03.25.36.012
12928;172936;34.48;734;03.25.36.012
12912;172934;34.48;735;03.25.36.012
12920;172931;34.48;736;03.25.36.012
12936;172935;34.48;737;03.25.36.012
12936;172921;34.48;738;03.25.36.023
12908;172920;34.48;739;03.25.36.023
12916;172922;34.48;740;03.25.36.023
12912;172930;34.48;741;03.25.36.023
12936;172927;34.48;742;03.25.36.023
12928;172926;34.48;743;03.25.36.023
12932;172921;34.48;744;03.25.36.023
12920;172924;34.48;745;03.25.36.023
12944;172926;34.48;746;03.25.36.023
12924;172925;34.48;747;03.25.36.023
12892;172932;34.48;748;03.25.36.023
12924;172933;34.48;749;03.25.36.023
12936;172932;34.44;750;03.25.36.100
12916;172929;34.44;751;03.25.36.111
12928;172931;34.44;752;03.25.36.111
12892;172933;34.44;753;03.25.36.111
12908;172935;34.44;754;03.25.36.111
12908;172925;34.44;755;03.25.36.111
12932;172927;34.44;756;03.25.36.111
12928;172933;34.44;757;03.25.36.111
12912;172935;34.44;758;03.25.36.111
12888;172935;34.44;759;03.25.36.111
12924;172936;34.44;760;03.25.36.111
12916;172929;34.44;761;03.25.36.122
12892;172937;34.44;762;03.25.36.122
12924;172936;34.44;763;03.25.36.122
12924;172946;34.44;764;03.25.36.122
12916;172936;34.44;765;03.25.36.122
12892;172939;34.44;766;03.25.36.122
12928;172939;34.44;767;03.25.36.122
12924;172930;34.44;768;03.25.36.133
12928;172934;34.44;769;03.25.36.133
12932;172935;34.44;770;03.25.36.133
12916;172933;34.44;771;03.25.36.133
12924;172930;34.44;772;03.25.36.133
12936;172941;34.44;773;03.25.36.133
12940;172937;34.44;774;03.25.36.133
12928;172933;34.44;775;03.25.36.242
12928;172926;34.44;776;03.25.36.242
12908;172931;34.44;777;03.25.36.242
12920;172938;34.44;778;03.25.36.242
12924;172930;34.44;779;03.25.36.242
12900;172932;34.44;780;03.25.36.242
12928;172929;34.44;781;03.25.36.242
12908;172933;34.44;782;03.25.36.242
12920;172934;34.44;783;03.25.36.242
12892;172940;34.44;784;03.25.36.242
12916;172941;34.44;785;03.25.36.242
12932;172940;34.44;786;03.25.36.253
12908;172939;34.44;787;03.25.36.253
12920;172951;34.44;788;03.25.36.253
12928;172945;34.44;789;03.25.36.253
12908;172949;34.44;790;03.25.36.253
12892;172947;34.44;791;03.25.36.253
12880;172947;34.44;792;03.25.36.253
12920;172950;34.44;793;03.25.36.253
12900;172954;34.44;794;03.25.36.253
12928;172951;34.44;795;03.25.36.253
12924;172948;34.44;796;03.25.36.253
12924;172953;34.44;797;03.25.36.264
12928;172959;34.44;798;03.25.36.264
12920;172955;34.44;799;03.25.36.264
12892;172953;34.48;800;03.25.36.352
12932;172959;34.48;801;03.25.36.352
12884;172953;34.48;802;03.25.36.352
12924;172965;34.48;803;03.25.36.352
12936;172966;34.48;804;03.25.36.352
12928;172963;34.48;805;03.25.36.352
12940;172969;34.48;806;03.25.36.352
12912;172968;34.48;807;03.25.36.363
12904;172967;34.48;808;03.25.36.374
12932;172964;34.48;809;03.25.36.374
12928;172968;34.48;810;03.25.36.374
12892;172975;34.48;811;03.25.36.374
12924;172977;34.48;812;03.25.36.374
12928;172975;34.48;813;03.25.36.374
12920;172981;34.48;814;03.25.36.374
12924;172977;34.48;815;03.25.36.385
12916;172986;34.48;816;03.25.36.385
12916;172983;34.48;817;03.25.36.385
12920;172986;34.48;818;03.25.36.385
12924;172988;34.48;819;03.25.36.385
12928;172983;34.48;820;03.25.36.385
12944;172990;34.48;821;03.25.36.385
12928;172985;34.48;822;03.25.36.385
12916;172993;34.48;823;03.25.36.385
12940;172995;34.48;824;03.25.36.396
12908;172992;34.48;825;03.25.36.473
12936;172990;34.48;826;03.25.36.473
12900;173000;34.48;827;03.25.36.473
12920;172997;34.48;828;03.25.36.484
12920;172998;34.48;829;03.25.36.484
12888;172998;34.48;830;03.25.36.484
12908;172993;34.48;831;03.25.36.484
12924;172996;34.48;832;03.25.36.484
12876;172995;34.48;833;03.25.36.505
12908;172993;34.48;834;03.25.36.505
12916;172995;34.48;835;03.25.36.516
12940;172996;34.48;836;03.25.36.516
12936;172985;34.48;837;03.25.36.516
12916;172979;34.48;838;03.25.36.516
12960;172985;34.48;839;03.25.36.516
12900;172981;34.48;840;03.25.36.516
12920;172972;34.48;841;03.25.36.516
12908;172974;34.48;842;03.25.36.516
12928;172971;34.48;843;03.25.36.516
12908;172964;34.48;844;03.25.36.516
12936;172970;34.48;845;03.25.36.516
12936;172960;34.48;846;03.25.36.516
12948;172956;34.48;847;03.25.36.516
12928;172949;34.48;848;03.25.36.527
12936;172944;34.48;849;03.25.36.527
12932;172947;34.44;850;03.25.36.603
12908;172938;34.44;851;03.25.36.603
12936;172944;34.44;852;03.25.36.603
12936;172940;34.44;853;03.25.36.603
12928;172938;34.44;854;03.25.36.603
12928;172940;34.44;855;03.25.36.603
12892;172940;34.44;856;03.25.36.603
12924;172942;34.44;857;03.25.36.603
12916;172934;34.44;858;03.25.36.603
12924;172928;34.44;859;03.25.36.603
12932;172922;34.44;860;03.25.36.603
12912;172924;34.44;861;03.25.36.614
12896;172926;34.44;862;03.25.36.614
12936;172925;34.44;863;03.25.36.614
12908;172937;34.44;864;03.25.36.614
12928;172937;34.44;865;03.25.36.614
12944;172922;34.44;866;03.25.36.614
12920;172934;34.44;867;03.25.36.614
12936;172931;34.44;868;03.25.36.614
12920;172938;34.44;869;03.25.36.614
12924;172939;34.44;870;03.25.36.614
12928;172926;34.44;871;03.25.36.614
12916;172938;34.44;872;03.25.36.614
12908;172936;34.44;873;03.25.36.614
12916;172942;34.44;874;03.25.36.625
12892;172939;34.44;875;03.25.36.735
12912;172947;34.44;876;03.25.36.735
12904;172945;34.44;877;03.25.36.735
12924;172946;34.44;878;03.25.36.735
12936;172951;34.44;879;03.25.36.735
12944;172942;34.44;880;03.25.36.735
12908;172942;34.44;881;03.25.36.735
12936;172960;34.44;882;03.25.36.746
12944;172964;34.44;883;03.25.36.746
12928;172962;34.44;884;03.25.36.746
12936;172953;34.44;885;03.25.36.746
12928;172953;34.44;886;03.25.36.746
12912;172957;34.44;887;03.25.36.746
12908;172962;34.44;888;03.25.36.746
12900;172964;34.44;889;03.25.36.746
12936;172965;34.44;890;03.25.36.746
12912;172967;34.44;891;03.25.36.746
12924;172965;34.44;892;03.25.36.746
12920;172970;34.44;893;03.25.36.746
12916;172968;34.44;894;03.25.36.746
12936;172960;34.44;895;03.25.36.757
12944;172962;34.44;896;03.25.36.757
12928;172966;34.44;897;03.25.36.757
12908;172966;34.44;898;03.25.36.757
12944;172965;34.44;899;03.25.36.757
12928;172978;34.44;900;03.25.36.866
12912;172967;34.44;901;03.25.36.866
12932;172964;34.44;902;03.25.36.866
12908;172967;34.44;903;03.25.36.877
12908;172980;34.44;904;03.25.36.877
12928;172976;34.44;905;03.25.36.877
12916;172975;34.44;906;03.25.36.877
12928;172980;34.44;907;03.25.36.877
12928;172973;34.44;908;03.25.36.877
12940;172968;34.44;909;03.25.36.877
12920;172971;34.44;910;03.25.36.877
12884;172977;34.44;911;03.25.36.877
12924;172971;34.44;912;03.25.36.877
12916;172975;34.44;913;03.25.36.877
12928;172977;34.44;914;03.25.36.877
12924;172965;34.44;915;03.25.36.877
12932;172978;34.44;916;03.25.36.888
12916;172979;34.44;917;03.25.36.888
12912;172985;34.44;918;03.25.36.888
12908;172988;34.44;919;03.25.36.888
12908;172992;34.44;920;03.25.36.888
12908;172986;34.44;921;03.25.36.888
12924;172994;34.44;922;03.25.36.888
12936;172993;34.44;923;03.25.36.888
12928;172999;34.44;924;03.25.36.888
12912;172991;34.44;925;03.25.36.986
12900;172998;34.44;926;03.25.36.986
12928;172992;34.44;927;03.25.36.986
12924;172990;34.44;928;03.25.36.986
12924;172994;34.44;929;03.25.36.986
12932;173003;34.44;930;03.25.36.986
12908;173002;34.44;931;03.25.36.986
12932;173006;34.44;932;03.25.36.986
12908;173011;34.44;933;03.25.37.008
12944;173013;34.44;934;03.25.37.008
12924;173007;34.44;935;03.25.37.008
12916;173001;34.44;936;03.25.37.008
12900;173012;34.44;937;03.25.37.008
12944;173010;34.44;938;03.25.37.008
12912;173019;34.44;939;03.25.37.008
12944;173025;34.44;940;03.25.37.008
12912;173024;34.44;941;03.25.37.008
12932;173028;34.44;942;03.25.37.008
12892;173027;34.44;943;03.25.37.008
12924;173019;34.44;944;03.25.37.008
12928;173029;34.44;945;03.25.37.019
12924;173027;34.44;946;03.25.37.019
12924;173034;34.44;947;03.25.37.019
12936;173037;34.44;948;03.25.37.019
12932;173034;34.44;949;03.25.37.019
12908;173035;34.48;950;03.25.37.117
12928;173042;34.48;951;03.25.37.117
12928;173043;34.48;952;03.25.37.117
12920;173042;34.48;953;03.25.37.117
12924;173037;34.48;954;03.25.37.117
12908;173031;34.48;955;03.25.37.117
12892;173035;34.48;956;03.25.37.117
12936;173027;34.48;957;03.25.37.127
12932;173023;34.48;958;03.25.37.138
12892;173021;34.48;959;03.25.37.138
12928;173019;34.48;960;03.25.37.138
12900;173017;34.48;961;03.25.37.138
12920;173003;34.48;962;03.25.37.138
12928;173010;34.48;963;03.25.37.138
12904;173009;34.48;964;03.25.37.138
12892;173000;34.48;965;03.25.37.138
12912;173000;34.48;966;03.25.37.149
12908;173005;34.48;967;03.25.37.149
12924;172987;34.48;968;03.25.37.149
12912;172994;34.48;969;03.25.37.149
12904;172988;34.48;970;03.25.37.149
12936;172992;34.48;971;03.25.37.149
12920;172988;34.48;972;03.25.37.149
12908;172986;34.48;973;03.25.37.149
12940;172994;34.48;974;03.25.37.149
12924;172988;34.48;975;03.25.37.226
12920;172991;34.48;976;03.25.37.226
12928;172997;34.48;977;03.25.37.237
12936;172999;34.48;978;03.25.37.237
12924;173000;34.48;979;03.25.37.237
12892;173000;34.48;980;03.25.37.237
12916;173006;34.48;981;03.25.37.237
12912;173015;34.48;982;03.25.37.237
12932;173012;34.48;983;03.25.37.237
12916;173017;34.48;984;03.25.37.237
12924;173023;34.48;985;03.25.37.237
12908;173026;34.48;986;03.25.37.237
12948;173028;34.48;987;03.25.37.237
12932;173035;34.48;988;03.25.37.237
12900;173037;34.48;989;03.25.37.237
12940;173036;34.48;990;03.25.37.248
12908;173046;34.48;991;03.25.37.248
12928;173043;34.48;992;03.25.37.248
12920;173042;34.48;993;03.25.37.248
12908;173041;34.48;994;03.25.37.248
12932;173041;34.48;995;03.25.37.248
12928;173044;34.48;996;03.25.37.248
12908;173046;34.48;997;03.25.37.248
12916;173038;34.48;998;03.25.37.248
12924;173044;34.48;999;03.25.37.248
12912;173043;34.44;000;03.25.37.368
12920;173047;34.44;001;03.25.37.368
12904;173041;34.44;002;03.25.37.368
12912;173037;34.44;003;03.25.37.368
12928;173044;34.44;004;03.25.37.368
12908;173031;34.44;005;03.25.37.368
12928;173043;34.44;006;03.25.37.368
12892;173042;34.44;007;03.25.37.368
12892;173040;34.44;008;03.25.37.368
12936;173038;34.44;009;03.25.37.368
12908;173045;34.44;010;03.25.37.368
12936;173040;34.44;011;03.25.37.368
12920;173041;34.44;012;03.25.37.380
12912;173045;34.44;013;03.25.37.380
12928;173042;34.44;014;03.25.37.380
12928;173047;34.44;015;03.25.37.380
12928;173042;34.44;016;03.25.37.380
12928;173039;34.44;017;03.25.37.380
12892;173051;34.44;018;03.25.37.380
12916;173046;34.44;019;03.25.37.380
12924;173046;34.44;020;03.25.37.380
12892;173053;34.44;021;03.25.37.380
12916;173053;34.44;022;03.25.37.380
12924;173048;34.44;023;03.25.37.380
12936;173050;34.44;024;03.25.37.380
12888;173044;34.44;025;03.25.37.479
12920;173051;34.44;026;03.25.37.479
12904;173041;34.44;027;03.25.37.479
12932;173042;34.44;028;03.25.37.479
12916;173054;34.44;029;03.25.37.479
12928;173060;34.44;030;03.25.37.479
12916;173058;34.44;031;03.25.37.479
12892;173056;34.44;032;03.25.37.479
12924;173061;34.44;033;03.25.37.501
12928;173063;34.44;034;03.25.37.501
12892;173062;34.44;035;03.25.37.501
12892;173062;34.44;036;03.25.37.501
12912;173070;34.44;037;03.25.37.501
12920;173082;34.44;038;03.25.37.501
12900;173078;34.44;039;03.25.37.501
12960;173079;34.44;040;03.25.37.501
12904;173083;34.44;041;03.25.37.501
12928;173086;34.44;042;03.25.37.501
12936;173091;34.44;043;03.25.37.512
12916;173088;34.44;044;03.25.37.512
12936;173100;34.44;045;03.25.37.512
12920;173100;34.44;046;03.25.37.512
12888;173106;34.44;047;03.25.37.512
12928;173111;34.44;048;03.25.37.512
12928;173116;34.44;049;03.25.37.512
12928;173121;34.44;050;03.25.37.600
12904;173127;34.44;051;03.25.37.600
12924;173124;34.44;052;03.25.37.600
12932;173128;34.44;053;03.25.37.600
12932;173134;34.44;054;03.25.37.600
12912;173138;34.44;055;03.25.37.611
12928;173145;34.44;056;03.25.37.611
12932;173135;34.44;057;03.25.37.611
12912;173144;34.44;058;03.25.37.611
12928;173136;34.44;059;03.25.37.611
12916;173153;34.44;060;03.25.37.611
12924;173151;34.44;061;03.25.37.611
12924;173145;34.44;062;03.25.37.611
12920;173144;34.44;063;03.25.37.611
12928;173147;34.44;064;03.25.37.611
12928;173146;34.44;065;03.25.37.611
12908;173148;34.44;066;03.25.37.611
12892;173143;34.44;067;03.25.37.611
12928;173140;34.44;068;03.25.37.611
12932;173132;34.44;069;03.25.37.622
12920;173131;34.44;070;03.25.37.622
12940;173132;34.44;071;03.25.37.622
12944;173124;34.44;072;03.25.37.622
12936;173118;34.44;073;03.25.37.622
12924;173114;34.44;074;03.25.37.622
12908;173107;34.44;075;03.25.37.720
12936;173112;34.44;076;03.25.37.731
12920;173098;34.44;077;03.25.37.731
12924;173104;34.44;078;03.25.37.731
12908;173099;34.44;079;03.25.37.731
12920;173097;34.44;080;03.25.37.731
12932;173092;34.44;081;03.25.37.731
12912;173091;34.44;082;03.25.37.731
12888;173088;34.44;083;03.25.37.731
12900;173085;34.44;084;03.25.37.731
12928;173078;34.44;085;03.25.37.731
12948;173077;34.44;086;03.25.37.731
12964;173066;34.44;087;03.25.37.731
12932;173066;34.44;088;03.25.37.731
12916;173065;34.44;089;03.25.37.742
12940;173056;34.44;090;03.25.37.742
12944;173058;34.44;091;03.25.37.742
12916;173051;34.44;092;03.25.37.742
12916;173050;34.44;093;03.25.37.742
12908;173042;34.44;094;03.25.37.742
12908;173043;34.44;095;03.25.37.742
12944;173043;34.44;096;03.25.37.742
12920;173035;34.44;097;03.25.37.742
12920;173036;34.44;098;03.25.37.742
12928;173028;34.44;099;03.25.37.742
12920;173025;34.48;100;03.25.37.863
12944;173023;34.48;101;03.25.37.863
12900;173017;34.48;102;03.25.37.863
12968;173018;34.48;103;03.25.37.863
12936;173025;34.48;104;03.25.37.863
12912;173021;34.48;105;03.25.37.863
12928;173025;34.48;106;03.25.37.863
12904;173021;34.48;107;03.25.37.863
12924;173025;34.48;108;03.25.37.874
12928;173019;34.48;109;03.25.37.874
12892;173032;34.48;110;03.25.37.874
12924;173026;34.48;111;03.25.37.874
12920;173032;34.48;112;03.25.37.874
12920;173017;34.48;113;03.25.37.874
12932;173021;34.48;114;03.25.37.874
12920;173027;34.48;115;03.25.37.874
12916;173025;34.48;116;03.25.37.874
12920;173023;34.48;117;03.25.37.874
12928;173022;34.48;118;03.25.37.874
12908;173027;34.48;119;03.25.37.884
12924;173021;34.48;120;03.25.37.884
12912;173017;34.48;121;03.25.37.884
12920;173011;34.48;122;03.25.37.884
12936;173018;34.48;123;03.25.37.884
12928;173018;34.48;124;03.25.37.884
12928;173010;34.48;125;03.25.37.993
12916;173009;34.48;126;03.25.37.993
12928;173019;34.48;127;03.25.37.993
12928;173017;34.48;128;03.25.37.993
12892;173012;34.48;129;03.25.37.993
12884;173019;34.48;130;03.25.37.993
12904;173008;34.48;131;03.25.38.004
12928;173007;34.48;132;03.25.38.004
12928;173008;34.48;133;03.25.38.004
12912;173004;34.48;134;03.25.38.004
12920;173007;34.48;135;03.25.38.004
12896;173011;34.48;136;03.25.38.004
12920;173010;34.48;137;03.25.38.004
12916;172998;34.48;138;03.25.38.004
12928;173006;34.48;139;03.25.38.004
12908;173005;34.48;140;03.25.38.004
12928;173005;34.48;141;03.25.38.004
12944;173002;34.48;142;03.25.38.004
12920;173000;34.48;143;03.25.38.015
12932;173005;34.48;144;03.25.38.015
12924;173001;34.48;145;03.25.38.015
12928;173000;34.48;146;03.25.38.015
12908;173002;34.48;147;03.25.38.015
12908;173008;34.48;148;03.25.38.015
12900;173003;34.48;149;03.25.38.015
12900;173002;34.44;150;03.25.38.103
12932;172999;34.44;151;03.25.38.103
12900;172995;34.44;152;03.25.38.114
12928;172997;34.44;153;03.25.38.114
12908;173002;34.44;154;03.25.38.114
12936;173000;34.44;155;03.25.38.114
12920;172998;34.44;156;03.25.38.114
12908;172999;34.44;157;03.25.38.114
12892;172997;34.44;158;03.25.38.114
12960;172992;34.44;159;03.25.38.114
12908;173000;34.44;160;03.25.38.114
12928;172998;34.44;161;03.25.38.114
12916;173003;34.44;162;03.25.38.125
12912;173009;34.44;163;03.25.38.125
12916;173006;34.44;164;03.25.38.125
12916;173013;34.44;165;03.25.38.125
12908;173010;34.44;166;03.25.38.125
12936;173017;34.44;167;03.25.38.125
12916;173019;34.44;168;03.25.38.125
12916;173017;34.44;169;03.25.38.125
12892;173025;34.44;170;03.25.38.136
12928;173026;34.44;171;03.25.38.136
12892;173027;34.44;172;03.25.38.136
12928;173020;34.44;173;03.25.38.136
12944;173026;34.44;174;03.25.38.136
12908;173028;34.44;175;03.25.38.236
12920;173030;34.44;176;03.25.38.236
12916;173027;34.44;177;03.25.38.236
12920;173028;34.44;178;03.25.38.236
12904;173035;34.44;179;03.25.38.236
12944;173025;34.44;180;03.25.38.236
12892;173034;34.44;181;03.25.38.236
12900;173020;34.44;182;03.25.38.236
12948;173027;34.44;183;03.25.38.236
12892;173021;34.44;184;03.25.38.236
12928;173022;34.44;185;03.25.38.236
12920;173021;34.44;186;03.25.38.236
12936;173018;34.44;187;03.25.38.236
12932;173011;34.44;188;03.25.38.247
12928;172998;34.44;189;03.25.38.247
12932;173003;34.44;190;03.25.38.247
12912;172994;34.44;191;03.25.38.247
12936;172993;34.44;192;03.25.38.247
12896;172991;34.44;193;03.25.38.247
12912;172992;34.44;194;03.25.38.247
12920;172991;34.44;195;03.25.38.247
12912;172985;34.44;196;03.25.38.247
12892;172988;34.44;197;03.25.38.247
12912;172980;34.44;198;03.25.38.247
12952;172977;34.44;199;03.25.38.247
12928;172972;34.44;200;03.25.38.355
12912;172973;34.44;201;03.25.38.355
12940;172970;34.44;202;03.25.38.355
12916;172965;34.44;203;03.25.38.355
12920;172973;34.44;204;03.25.38.355
12944;172970;34.44;205;03.25.38.355
12888;172963;34.44;206;03.25.38.355
12924;172963;34.44;207;03.25.38.355
12932;172960;34.44;208;03.25.38.366
12936;172965;34.44;209;03.25.38.366
12920;172967;34.44;210;03.25.38.366
12952;172966;34.44;211;03.25.38.366
12904;172970;34.44;212;03.25.38.366
12908;172972;34.44;213;03.25.38.366
12924;172963;34.44;214;03.25.38.366
12924;172969;34.44;215;03.25.38.366
12924;172973;34.44;216;03.25.38.366
12904;172964;34.44;217;03.25.38.366
12924;172982;34.44;218;03.25.38.366
12916;172967;34.44;219;03.25.38.366
12916;172966;34.44;220;03.25.38.366
12940;172976;34.44;221;03.25.38.377
12908;172982;34.44;222;03.25.38.377
12892;172980;34.44;223;03.25.38.377
12936;172979;34.44;224;03.25.38.377
12928;172979;34.44;225;03.25.38.487
12912;172984;34.44;226;03.25.38.487
12908;172984;34.44;227;03.25.38.487
12888;172979;34.44;228;03.25.38.498
12928;172976;34.44;229;03.25.38.498
12908;172981;34.44;230;03.25.38.498
12900;172989;34.44;231;03.25.38.498
12908;172992;34.44;232;03.25.38.498
12944;172996;34.44;233;03.25.38.498
12904;172995;34.44;234;03.25.38.498
12936;172986;34.44;235;03.25.38.498
12924;172996;34.44;236;03.25.38.498
12896;172992;34.44;237;03.25.38.498
12908;172981;34.44;238;03.25.38.498
12932;172997;34.44;239;03.25.38.498
12960;172997;34.44;240;03.25.38.498
12916;172992;34.44;241;03.25.38.509
12924;172997;34.44;242;03.25.38.509
12924;172996;34.44;243;03.25.38.509
12936;172994;34.44;244;03.25.38.509
12960;172992;34.44;245;03.25.38.509
12908;173001;34.44;246;03.25.38.509
12936;173001;34.44;247;03.25.38.509
12932;172995;34.44;248;03.25.38.509
12928;172998;34.44;249;03.25.38.509
12920;172998;34.44;250;03.25.38.608
12944;172998;34.44;251;03.25.38.608
12924;173005;34.44;252;03.25.38.608
12924;172993;34.44;253;03.25.38.608
12928;172999;34.44;254;03.25.38.608
12904;173000;34.44;255;03.25.38.608
12892;173001;34.44;256;03.25.38.608
12920;173000;34.44;257;03.25.38.608
12924;173006;34.44;258;03.25.38.619
12920;173008;34.44;259;03.25.38.619
12920;173002;34.44;260;03.25.38.619
12888;173010;34.44;261;03.25.38.619
12928;173010;34.44;262;03.25.38.619
12908;173009;34.44;263;03.25.38.619
12924;173007;34.44;264;03.25.38.619
12892;173016;34.44;265;03.25.38.619
12932;173014;34.44;266;03.25.38.619
12944;173012;34.44;267;03.25.38.619
12912;173004;34.44;268;03.25.38.629
12928;173013;34.44;269;03.25.38.629
12916;173014;34.44;270;03.25.38.629
12908;173006;34.44;271;03.25.38.629
12900;173011;34.44;272;03.25.38.629
12944;173007;34.44;273;03.25.38.629
12928;173006;34.44;274;03.25.38.629
12908;173017;34.44;275;03.25.38.728
12924;173019;34.44;276;03.25.38.728
12928;173012;34.44;277;03.25.38.728
12932;173021;34.44;278;03.25.38.728
12928;173020;34.44;279;03.25.38.728
12908;173024;34.44;280;03.25.38.728
12920;173023;34.44;281;03.25.38.728
12900;173022;34.44;282;03.25.38.728
12928;173019;34.44;283;03.25.38.739
12912;173021;34.44;284;03.25.38.739
12904;173024;34.44;285;03.25.38.739
12940;173023;34.44;286;03.25.38.739
12920;173036;34.44;287;03.25.38.739
12900;173028;34.44;288;03.25.38.739
12932;173030;34.44;289;03.25.38.739
12924;173023;34.44;290;03.25.38.739
12920;173037;34.44;291;03.25.38.739
12908;173035;34.44;292;03.25.38.761
12920;173018;34.44;293;03.25.38.761
12892;173013;34.44;294;03.25.38.761
12944;173017;34.44;295;03.25.38.761
12928;173019;34.44;296;03.25.38.761
12928;173008;34.44;297;03.25.38.761
12928;173002;34.44;298;03.25.38.761
12944;173005;34.44;299;03.25.38.761
12892;172991;34.44;300;03.25.38.860
12936;172988;34.44;301;03.25.38.860
12892;172989;34.44;302;03.25.38.860
12932;172974;34.44;303;03.25.38.860
12928;172976;34.44;304;03.25.38.860
12928;172974;34.44;305;03.25.38.860
12924;172972;34.44;306;03.25.38.871
12916;172976;34.44;307;03.25.38.871
12900;172969;34.44;308;03.25.38.871
12924;172978;34.44;309;03.25.38.871
12912;172963;34.44;310;03.25.38.871
12928;172960;34.44;311;03.25.38.871
12892;172962;34.44;312;03.25.38.871
12912;172966;34.44;313;03.25.38.871
12904;172963;34.44;314;03.25.38.871
12928;172963;34.44;315;03.25.38.871
12924;172953;34.44;316;03.25.38.871
12912;172957;34.44;317;03.25.38.871
12912;172947;34.44;318;03.25.38.871
12908;172957;34.44;319;03.25.38.882
12888;172958;34.44;320;03.25.38.882
12924;172958;34.44;321;03.25.38.882
12936;172960;34.44;322;03.25.38.882
12924;172960;34.44;323;03.25.38.882
12924;172957;34.44;324;03.25.38.882
12896;172954;34.44;325;03.25.38.991
12920;172964;34.44;326;03.25.38.991
12908;172956;34.44;327;03.25.39.002
12916;172964;34.44;328;03.25.39.002
12928;172970;34.44;329;03.25.39.002
12912;172968;34.44;330;03.25.39.002
12916;172964;34.44;331;03.25.39.002
12940;172976;34.44;332;03.25.39.002
12932;172970;34.44;333;03.25.39.002
12916;172977;34.44;334;03.25.39.002
12912;172978;34.44;335;03.25.39.002
12920;172985;34.44;336;03.25.39.002
12936;172985;34.44;337;03.25.39.002
12944;172995;34.44;338;03.25.39.002
12944;172994;34.44;339;03.25.39.013
12900;172995;34.44;340;03.25.39.013
12900;172993;34.44;341;03.25.39.013
12908;172992;34.44;342;03.25.39.013
12920;172996;34.44;343;03.25.39.013
12976;172998;34.44;344;03.25.39.013
12908;173008;34.44;345;03.25.39.013
12912;172992;34.44;346;03.25.39.013
12944;172991;34.44;347;03.25.39.013
12908;172989;34.44;348;03.25.39.013
12908;172998;34.44;349;03.25.39.013
12944;172998;34.48;350;03.25.39.112
12900;172997;34.48;351;03.25.39.112
12904;173000;34.48;352;03.25.39.112
12932;172989;34.48;353;03.25.39.112
12908;172993;34.48;354;03.25.39.112
12928;172989;34.48;355;03.25.39.112
12944;172986;34.48;356;03.25.39.112
12944;172992;34.48;357;03.25.39.112
12928;172994;34.48;358;03.25.39.134
12912;172985;34.48;359;03.25.39.134
12920;172984;34.48;360;03.25.39.134
12928;172976;34.48;361;03.25.39.134
12892;172989;34.48;362;03.25.39.134
12936;172979;34.48;363;03.25.39.134
12928;172974;34.48;364;03.25.39.134
12924;172986;34.48;365;03.25.39.134
12920;172981;34.48;366;03.25.39.134
12924;172978;34.48;367;03.25.39.134
12924;172985;34.48;368;03.25.39.134
12928;172982;34.48;369;03.25.39.145
12916;172991;34.48;370;03.25.39.145
12944;172990;34.48;371;03.25.39.145
12904;172994;34.48;372;03.25.39.145
12928;172998;34.48;373;03.25.39.145
12936;172987;34.48;374;03.25.39.145
12908;172991;34.48;375;03.25.39.232
12928;173000;34.48;376;03.25.39.232
12908;172998;34.48;377;03.25.39.232
12960;173004;34.48;378;03.25.39.232
12936;172997;34.48;379;03.25.39.232
12908;173006;34.48;380;03.25.39.232
12900;172998;34.48;381;03.25.39.232
12908;173005;34.48;382;03.25.39.243
12928;173010;34.48;383;03.25.39.265
12932;173000;34.48;384;03.25.39.265
12908;173001;34.48;385;03.25.39.265
12904;172996;34.48;386;03.25.39.265
12916;173006;34.48;387;03.25.39.265
12912;173004;34.48;388;03.25.39.265
12928;173001;34.48;389;03.25.39.265
12912;173003;34.48;390;03.25.39.265
12920;173003;34.48;391;03.25.39.276
12936;173006;34.48;392;03.25.39.276
12900;173008;34.48;393;03.25.39.276
12916;173004;34.48;394;03.25.39.276
12912;173013;34.48;395;03.25.39.276
12904;173021;34.48;396;03.25.39.276
12928;173019;34.48;397;03.25.39.276
12892;173020;34.48;398;03.25.39.276
12948;173020;34.48;399;03.25.39.276
12916;173017;34.48;400;03.25.39.353
12928;173027;34.48;401;03.25.39.353
12908;173022;34.48;402;03.25.39.353
12888;173016;34.48;403;03.25.39.353
12888;173016;34.48;404;03.25.39.364
12944;173006;34.48;405;03.25.39.364
12928;173013;34.48;406;03.25.39.364
12920;173002;34.48;407;03.25.39.364
12912;173002;34.48;408;03.25.39.364
12924;172987;34.48;409;03.25.39.364
12908;173002;34.48;410;03.25.39.364
12936;172988;34.48;411;03.25.39.364
12936;172973;34.48;412;03.25.39.364
12920;172973;34.48;413;03.25.39.364
12904;172969;34.48;414;03.25.39.364
12928;172963;34.48;415;03.25.39.364
12912;172967;34.48;416;03.25.39.364
12916;172955;34.48;417;03.25.39.375
12912;172964;34.48;418;03.25.39.375
12912;172955;34.48;419;03.25.39.375
12948;172955;34.48;420;03.25.39.375
12928;172945;34.48;421;03.25.39.375
12908;172942;34.48;422;03.25.39.375
12924;172947;34.48;423;03.25.39.375
12944;172937;34.48;424;03.25.39.375
12912;172941;34.48;425;03.25.39.496
12944;172936;34.48;426;03.25.39.496
12936;172934;34.48;427;03.25.39.496
12924;172932;34.48;428;03.25.39.496
12872;172930;34.48;429;03.25.39.496
12940;172934;34.48;430;03.25.39.496
12928;172932;34.48;431;03.25.39.496
12908;172938;34.48;432;03.25.39.496
12928;172934;34.48;433;03.25.39.496
12936;172935;34.48;434;03.25.39.496
12920;172938;34.48;435;03.25.39.496
12908;172939;34.48;436;03.25.39.496
12900;172935;34.48;437;03.25.39.507
12936;172941;34.48;438;03.25.39.507
12928;172943;34.48;439;03.25.39.507
12892;172953;34.48;440;03.25.39.507
12904;172948;34.48;441;03.25.39.507
12924;172950;34.48;442;03.25.39.507
12900;172953;34.48;443;03.25.39.507
12928;172956;34.48;444;03.25.39.507
12928;172952;34.48;445;03.25.39.507
12900;172961;34.48;446;03.25.39.507
12924;172962;34.48;447;03.25.39.507
12904;172960;34.48;448;03.25.39.507
12928;172970;34.48;449;03.25.39.507
12912;172976;34.44;450;03.25.39.605
12916;172983;34.44;451;03.25.39.605
12924;172982;34.44;452;03.25.39.605
12936;172987;34.44;453;03.25.39.605
12920;172989;34.44;454;03.25.39.605
12936;172984;34.44;455;03.25.39.605
12940;172998;34.44;456;03.25.39.605
12916;172999;34.44;457;03.25.39.605
12888;172999;34.44;458;03.25.39.616
12936;173001;34.44;459;03.25.39.616
12936;173007;34.44;460;03.25.39.616
12920;173007;34.44;461;03.25.39.616
12892;173004;34.44;462;03.25.39.616
12920;173012;34.44;463;03.25.39.616
12960;173010;34.44;464;03.25.39.616
12904;173022;34.44;465;03.25.39.616
12912;173018;34.44;466;03.25.39.616
12892;173014;34.44;467;03.25.39.627
12936;173015;34.44;468;03.25.39.627
12944;173023;34.44;469;03.25.39.627
12916;173028;34.44;470;03.25.39.627
12952;173017;34.44;471;03.25.39.627
12928;173020;34.44;472;03.25.39.627
12932;173023;34.44;473;03.25.39.627
12940;173029;34.44;474;03.25.39.627
12920;173034;34.44;475;03.25.39.759
12920;173026;34.44;476;03.25.39.759
12924;173026;34.44;477;03.25.39.759
12952;173038;34.44;478;03.25.39.759
12944;173045;34.44;479;03.25.39.759
12908;173039;34.44;480;03.25.39.770
12912;173039;34.44;481;03.25.39.770
12928;173051;34.44;482;03.25.39.770
12904;173042;34.44;483;03.25.39.770
12920;173049;34.44;484;03.25.39.770
12936;173046;34.44;485;03.25.39.770
12896;173057;34.44;486;03.25.39.770
12928;173053;34.44;487;03.25.39.770
12936;173050;34.44;488;03.25.39.770
12892;173054;34.44;489;03.25.39.770
12924;173051;34.44;490;03.25.39.770
12920;173056;34.44;491;03.25.39.770
12912;173053;34.44;492;03.25.39.770
12960;173049;34.44;493;03.25.39.781
12912;173046;34.44;494;03.25.39.781
12920;173046;34.44;495;03.25.39.781
12908;173047;34.44;496;03.25.39.781
12932;173041;34.44;497;03.25.39.781
12900;173045;34.44;498;03.25.39.781
12924;173044;34.44;499;03.25.39.781
12904;173047;34.44;500;03.25.39.847
12916;173045;34.44;501;03.25.39.847
12936;173046;34.44;502;03.25.39.858
12936;173041;34.44;503;03.25.39.858
12920;173048;34.44;504;03.25.39.858
12892;173040;34.44;505;03.25.39.858
12936;173041;34.44;506;03.25.39.858
12948;173033;34.44;507;03.25.39.858
12916;173029;34.44;508;03.25.39.858
12928;173036;34.44;509;03.25.39.858
12924;173021;34.44;510;03.25.39.858
12936;173025;34.44;511;03.25.39.858
12916;173014;34.44;512;03.25.39.858
12892;173020;34.44;513;03.25.39.858
12936;173009;34.44;514;03.25.39.858
12944;173003;34.44;515;03.25.39.869
12924;173002;34.44;516;03.25.39.869
12920;172994;34.44;517;03.25.39.869
12932;172995;34.44;518;03.25.39.869
12928;172991;34.44;519;03.25.39.869
12916;172985;34.44;520;03.25.39.869
12912;172970;34.44;521;03.25.39.869
12936;172973;34.44;522;03.25.39.869
12912;172975;34.44;523;03.25.39.869
12924;172967;34.44;524;03.25.39.869
12904;172954;34.44;525;03.25.39.988
12924;172955;34.44;526;03.25.39.988
12928;172951;34.44;527;03.25.39.988
12928;172952;34.44;528;03.25.39.988
12920;172943;34.44;529;03.25.39.988
12884;172941;34.44;530;03.25.39.988
12904;172941;34.44;531;03.25.39.988
12904;172937;34.44;532;03.25.39.988
12892;172940;34.44;533;03.25.39.988
12924;172937;34.44;534;03.25.39.999
12892;172925;34.44;535;03.25.39.999
12912;172935;34.44;536;03.25.39.999
12904;172925;34.44;537;03.25.39.999
12928;172930;34.44;538;03.25.39.999
12904;172917;34.44;539;03.25.39.999
12932;172924;34.44;540;03.25.39.999
12912;172924;34.44;541;03.25.39.999
12908;172915;34.44;542;03.25.39.999
12928;172913;34.44;543;03.25.39.999
12916;172912;34.44;544;03.25.39.999
12912;172915;34.44;545;03.25.39.999
12916;172899;34.44;546;03.25.39.999
12908;172906;34.44;547;03.25.40.010
12900;172904;34.44;548;03.25.40.010
12944;172898;34.44;549;03.25.40.010
12916;172902;34.48;550;03.25.40.120
12904;172909;34.48;551;03.25.40.120
12916;172902;34.48;552;03.25.40.120
12884;172907;34.48;553;03.25.40.120
12936;172907;34.48;554;03.25.40.120
12928;172905;34.48;555;03.25.40.120
12912;172911;34.48;556;03.25.40.131
12900;172910;34.48;557;03.25.40.131
12948;172906;34.48;558;03.25.40.131
12928;172902;34.48;559;03.25.40.131
12920;172915;34.48;560;03.25.40.131
12924;172905;34.48;561;03.25.40.131
12920;172909;34.48;562;03.25.40.131
12900;172911;34.48;563;03.25.40.131
12924;172910;34.48;564;03.25.40.131
12888;172918;34.48;565;03.25.40.131
12892;172912;34.48;566;03.25.40.131
12924;172919;34.48;567;03.25.40.131
12912;172918;34.48;568;03.25.40.131
12928;172918;34.48;569;03.25.40.142
12892;172916;34.48;570;03.25.40.142
12908;172912;34.48;571;03.25.40.142
12944;172912;34.48;572;03.25.40.142
12920;172919;34.48;573;03.25.40.142
12928;172916;34.48;574;03.25.40.142
12908;172917;34.48;575;03.25.40.230
12908;172921;34.48;576;03.25.40.230
12916;172918;34.48;577;03.25.40.230
12908;172925;34.48;578;03.25.40.241
12904;172915;34.48;579;03.25.40.241
12916;172915;34.48;580;03.25.40.241
12936;172914;34.48;581;03.25.40.241
12892;172907;34.48;582;03.25.40.241
12884;172912;34.48;583;03.25.40.241
12924;172906;34.48;584;03.25.40.241
12944;172908;34.48;585;03.25.40.252
12908;172908;34.48;586;03.25.40.252
12924;172900;34.48;587;03.25.40.252
12916;172907;34.48;588;03.25.40.252
12920;172905;34.48;589;03.25.40.252
12916;172903;34.48;590;03.25.40.252
12928;172908;34.48;591;03.25.40.252
12920;172916;34.48;592;03.25.40.252
12920;172915;34.48;593;03.25.40.252
12892;172910;34.48;594;03.25.40.252
12928;172909;34.48;595;03.25.40.252
12924;172909;34.48;596;03.25.40.252
12928;172907;34.48;597;03.25.40.252
12900;172908;34.48;598;03.25.40.263
12928;172912;34.48;599;03.25.40.263
12904;172919;34.44;600;03.25.40.361
12888;172911;34.44;601;03.25.40.361
12916;172909;34.44;602;03.25.40.361
12912;172911;34.44;603;03.25.40.361
12928;172913;34.44;604;03.25.40.361
12928;172914;34.44;605;03.25.40.361
12920;172907;34.44;606;03.25.40.361
12916;172920;34.44;607;03.25.40.361
12928;172923;34.44;608;03.25.40.361
12908;172916;34.44;609;03.25.40.361
12928;172926;34.44;610;03.25.40.361
12924;172924;34.44;611;03.25.40.361
12920;172932;34.44;612;03.25.40.372
12936;172926;34.44;613;03.25.40.372
12928;172925;34.44;614;03.25.40.372
12936;172933;34.44;615;03.25.40.372
12944;172926;34.44;616;03.25.40.372
12908;172927;34.44;617;03.25.40.372
12908;172927;34.44;618;03.25.40.372
12884;172930;34.44;619;03.25.40.372
12948;172937;34.44;620;03.25.40.372
12936;172925;34.44;621;03.25.40.372
12928;172942;34.44;622;03.25.40.372
12920;172936;34.44;623;03.25.40.372
12992;172930;34.44;624;03.25.40.372
12916;172929;34.44;625;03.25.40.483
12928;172932;34.44;626;03.25.40.483
12944;172929;34.44;627;03.25.40.483
12916;172929;34.44;628;03.25.40.483
12916;172926;34.44;629;03.25.40.483
12904;172922;34.44;630;03.25.40.483
12932;172904;34.44;631;03.25.40.483
12928;172905;34.44;632;03.25.40.483
12920;172901;34.44;633;03.25.40.483
12904;172902;34.44;634;03.25.40.493
12932;172892;34.44;635;03.25.40.493
12904;172891;34.44;636;03.25.40.493
12936;172886;34.44;637;03.25.40.493
12884;172875;34.44;638;03.25.40.493
12936;172868;34.44;639;03.25.40.493
12924;172880;34.44;640;03.25.40.493
12932;172868;34.44;641;03.25.40.493
12928;172867;34.44;642;03.25.40.493
12916;172859;34.44;643;03.25.40.493
12916;172856;34.44;644;03.25.40.493
12936;172855;34.44;645;03.25.40.493
12928;172861;34.44;646;03.25.40.493
12960;172856;34.44;647;03.25.40.504
12928;172852;34.44;648;03.25.40.504
12920;172848;34.44;649;03.25.40.504
12916;172841;34.44;650;03.25.40.613
12928;172841;34.44;651;03.25.40.613
12920;172849;34.44;652;03.25.40.613
12916;172834;34.44;653;03.25.40.613
12904;172841;34.44;654;03.25.40.624
12936;172847;34.44;655;03.25.40.624
12932;172846;34.44;656;03.25.40.624
12900;172842;34.44;657;03.25.40.624
12908;172848;34.44;658;03.25.40.624
12904;172845;34.44;659;03.25.40.624
12936;172847;34.44;660;03.25.40.624
12892;172845;34.44;661;03.25.40.624
12940;172844;34.44;662;03.25.40.624
12932;172841;34.44;663;03.25.40.624
12924;172844;34.44;664;03.25.40.624
12944;172851;34.44;665;03.25.40.624
12944;172846;34.44;666;03.25.40.624
12936;172848;34.44;667;03.25.40.624
12916;172846;34.44;668;03.25.40.636
12960;172854;34.44;669;03.25.40.636
12912;172854;34.44;670;03.25.40.636
12892;172857;34.44;671;03.25.40.636
12904;172852;34.44;672;03.25.40.636
12944;172850;34.44;673;03.25.40.636
12940;172853;34.44;674;03.25.40.636
12920;172848;34.44;675;03.25.40.724
12920;172856;34.44;676;03.25.40.724
12888;172856;34.44;677;03.25.40.735
12944;172853;34.44;678;03.25.40.735
12944;172856;34.44;679;03.25.40.735
12916;172859;34.44;680;03.25.40.735
12928;172849;34.44;681;03.25.40.735
12932;172854;34.44;682;03.25.40.735
12920;172858;34.44;683;03.25.40.746
12920;172856;34.44;684;03.25.40.746
12912;172851;34.44;685;03.25.40.757
12924;172858;34.44;686;03.25.40.757
12928;172855;34.44;687;03.25.40.757
12928;172856;34.44;688;03.25.40.757
12876;172859;34.44;689;03.25.40.757
12904;172861;34.44;690;03.25.40.757
12928;172862;34.44;691;03.25.40.757
12912;172859;34.44;692;03.25.40.757
12900;172857;34.44;693;03.25.40.757
12896;172850;34.44;694;03.25.40.757
12928;172854;34.44;695;03.25.40.757
12940;172857;34.44;696;03.25.40.757
12912;172854;34.44;697;03.25.40.757
12892;172863;34.44;698;03.25.40.768
12940;172864;34.44;699;03.25.40.768
12904;172865;34.48;700;03.25.40.856
12936;172861;34.48;701;03.25.40.856
12888;172867;34.48;702;03.25.40.856
12928;172869;34.48;703;03.25.40.856
12928;172870;34.48;704;03.25.40.856
12928;172874;34.48;705;03.25.40.856
12916;172870;34.48;706;03.25.40.856
12932;172878;34.48;707;03.25.40.856
12920;172867;34.48;708;03.25.40.856
12924;172881;34.48;709;03.25.40.856
12932;172885;34.48;710;03.25.40.856
12928;172891;34.48;711;03.25.40.856
12940;172885;34.48;712;03.25.40.867
12936;172885;34.48;713;03.25.40.867
12924;172892;34.48;714;03.25.40.867
12892;172898;34.48;715;03.25.40.867
12908;172883;34.48;716;03.25.40.867
12936;172893;34.48;717;03.25.40.889
12912;172894;34.48;718;03.25.40.889
12916;172894;34.48;719;03.25.40.889
12916;172893;34.48;720;03.25.40.889
12912;172893;34.48;721;03.25.40.889
12900;172895;34.48;722;03.25.40.889
12936;172902;34.48;723;03.25.40.889
12924;172903;34.48;724;03.25.40.889
12944;172901;34.48;725;03.25.40.976
12936;172901;34.48;726;03.25.40.976
12908;172914;34.48;727;03.25.40.976
12960;172908;34.48;728;03.25.40.976
12928;172916;34.48;729;03.25.40.976
12932;172909;34.48;730;03.25.40.976
12916;172918;34.48;731;03.25.40.976
12920;172912;34.48;732;03.25.40.976
12920;172920;34.48;733;03.25.40.987
12900;172914;34.48;734;03.25.40.987
12932;172915;34.48;735;03.25.40.987
12896;172920;34.48;736;03.25.40.987
12912;172924;34.48;737;03.25.40.987
12928;172921;34.48;738;03.25.40.987
12948;172930;34.48;739;03.25.40.987
12920;172928;34.48;740;03.25.40.987
12932;172931;34.48;741;03.25.40.998
12924;172929;34.48;742;03.25.40.998
12920;172935;34.48;743;03.25.40.998
12940;172935;34.48;744;03.25.40.998
12924;172940;34.48;745;03.25.40.998
12904;172931;34.48;746;03.25.40.998
12928;172939;34.48;747;03.25.40.998
12936;172943;34.48;748;03.25.40.998
12924;172941;34.48;749;03.25.40.998
12896;172947;34.44;750;03.25.41.108
12936;172947;34.44;751;03.25.41.108
12908;172947;34.44;752;03.25.41.108
12924;172953;34.44;753;03.25.41.108
12892;172958;34.44;754;03.25.41.119
12912;172959;34.44;755;03.25.41.119
12908;172956;34.44;756;03.25.41.119
12908;172958;34.44;757;03.25.41.119
12868;172967;34.44;758;03.25.41.119
12908;172961;34.44;759;03.25.41.119
12908;172962;34.44;760;03.25.41.119
12904;172953;34.44;761;03.25.41.119
12916;172952;34.44;762;03.25.41.119
12920;172948;34.44;763;03.25.41.119
12916;172948;34.44;764;03.25.41.119
12908;172943;34.44;765;03.25.41.130
12904;172938;34.44;766;03.25.41.130
12916;172927;34.44;767;03.25.41.130
12936;172923;34.44;768;03.25.41.130
12916;172932;34.44;769;03.25.41.130
12944;172925;34.44;770;03.25.41.130
12916;172928;34.44;771;03.25.41.130
12916;172919;34.44;772;03.25.41.130
12888;172908;34.44;773;03.25.41.130
12932;172907;34.44;774;03.25.41.130
12916;172902;34.44;775;03.25.41.251
12936;172893;34.44;776;03.25.41.251
12904;172895;34.44;777;03.25.41.251
12928;172897;34.44;778;03.25.41.251
12920;172882;34.44;779;03.25.41.251
12920;172889;34.44;780;03.25.41.251
12892;172885;34.44;781;03.25.41.251
12916;172883;34.44;782;03.25.41.251
12928;172886;34.44;783;03.25.41.251
12924;172878;34.44;784;03.25.41.251
12936;172879;34.44;785;03.25.41.251
12924;172886;34.44;786;03.25.41.251
12908;172877;34.44;787;03.25.41.251
12920;172870;34.44;788;03.25.41.262
12904;172880;34.44;789;03.25.41.262
12892;172885;34.44;790;03.25.41.262
12924;172877;34.44;791;03.25.41.262
12912;172871;34.44;792;03.25.41.262
12924;172869;34.44;793;03.25.41.262
12928;172867;34.44;794;03.25.41.262
12932;172871;34.44;795;03.25.41.262
12920;172876;34.44;796;03.25.41.262
12932;172879;34.44;797;03.25.41.262
12916;172876;34.44;798;03.25.41.262
12936;172880;34.44;799;03.25.41.262
12944;172881;34.44;800;03.25.41.360
12940;172884;34.44;801;03.25.41.360
12944;172879;34.44;802;03.25.41.360
12916;172881;34.44;803;03.25.41.360
12928;172891;34.44;804;03.25.41.360
12912;172886;34.44;805;03.25.41.360
12928;172889;34.44;806;03.25.41.360
12924;172894;34.44;807;03.25.41.360
12932;172893;34.44;808;03.25.41.371
12916;172901;34.44;809;03.25.41.371
12908;172892;34.44;810;03.25.41.371
12928;172896;34.44;811;03.25.41.371
12912;172903;34.44;812;03.25.41.371
12944;172896;34.44;813;03.25.41.371
12932;172894;34.44;814;03.25.41.371
12900;172900;34.44;815;03.25.41.371
12944;172897;34.44;816;03.25.41.371
12956;172895;34.44;817;03.25.41.382
12920;172893;34.44;818;03.25.41.382
12920;172902;34.44;819;03.25.41.382
12892;172900;34.44;820;03.25.41.382
12904;172901;34.44;821;03.25.41.382
12936;172903;34.44;822;03.25.41.382
12900;172902;34.44;823;03.25.41.382
12936;172900;34.44;824;03.25.41.382
12928;172899;34.44;825;03.25.41.492
12928;172904;34.44;826;03.25.41.492
12912;172903;34.44;827;03.25.41.492
12900;172899;34.44;828;03.25.41.492
12892;172903;34.44;829;03.25.41.492
12928;172897;34.44;830;03.25.41.503
12960;172903;34.44;831;03.25.41.503
12940;172896;34.44;832;03.25.41.503
12908;172903;34.44;833;03.25.41.503
12928;172904;34.44;834;03.25.41.503
12928;172901;34.44;835;03.25.41.503
12924;172901;34.44;836;03.25.41.514
12904;172903;34.44;837;03.25.41.514
12908;172908;34.44;838;03.25.41.514
12920;172911;34.44;839;03.25.41.514
12924;172911;34.44;840;03.25.41.514
12928;172909;34.44;841;03.25.41.514
12940;172923;34.44;842;03.25.41.514
12916;172916;34.44;843;03.25.41.514
12896;172917;34.44;844;03.25.41.514
12908;172914;34.44;845;03.25.41.514
12904;172915;34.44;846;03.25.41.514
12892;172921;34.44;847;03.25.41.514
12928;172924;34.44;848;03.25.41.514
12928;172924;34.44;849;03.25.41.514
12928;172933;34.44;850;03.25.41.601
12912;172929;34.44;851;03.25.41.612
12944;172931;34.44;852;03.25.41.612
12928;172930;34.44;853;03.25.41.612
12908;172935;34.44;854;03.25.41.612
12912;172937;34.44;855;03.25.41.612
12928;172943;34.44;856;03.25.41.612
12908;172947;34.44;857;03.25.41.612
12924;172947;34.44;858;03.25.41.612
12916;172948;34.44;859;03.25.41.623
12924;172950;34.44;860;03.25.41.623
12932;172947;34.44;861;03.25.41.623
12928;172949;34.44;862;03.25.41.623
12928;172958;34.44;863;03.25.41.623
12932;172969;34.44;864;03.25.41.623
12936;172963;34.44;865;03.25.41.623
12916;172965;34.44;866;03.25.41.623
12920;172970;34.44;867;03.25.41.623
12900;172971;34.44;868;03.25.41.623
12916;172974;34.44;869;03.25.41.623
12908;172978;34.44;870;03.25.41.623
12904;172981;34.44;871;03.25.41.623
12920;172984;34.44;872;03.25.41.623
12928;172978;34.44;873;03.25.41.634
12936;172982;34.44;874;03.25.41.634
12904;172989;34.44;875;03.25.41.744
12900;172992;34.44;876;03.25.41.744
12932;172982;34.44;877;03.25.41.744
12932;172994;34.44;878;03.25.41.744
12944;173002;34.44;879;03.25.41.744
12924;172998;34.44;880;03.25.41.744
12900;172997;34.44;881;03.25.41.744
12904;173001;34.44;882;03.25.41.744
12916;172998;34.44;883;03.25.41.744
12944;173004;34.44;884;03.25.41.744
12892;173001;34.44;885;03.25.41.744
12900;173002;34.44;886;03.25.41.754
12944;172996;34.44;887;03.25.41.754
12892;173008;34.44;888;03.25.41.754
12876;173013;34.44;889;03.25.41.754
12892;173014;34.44;890;03.25.41.754
12904;173024;34.44;891;03.25.41.754
12960;173024;34.44;892;03.25.41.754
12944;173034;34.44;893;03.25.41.754
12940;173034;34.44;894;03.25.41.754
12916;173030;34.44;895;03.25.41.754
12924;173037;34.44;896;03.25.41.754
12892;173047;34.44;897;03.25.41.754
12900;173046;34.44;898;03.25.41.765
12944;173046;34.44;899;03.25.41.765
12888;173051;34.48;900;03.25.41.853
12904;173066;34.48;901;03.25.41.853
12904;173060;34.48;902;03.25.41.853
12896;173068;34.48;903;03.25.41.853
12900;173068;34.48;904;03.25.41.853
12928;173065;34.48;905;03.25.41.853
12884;173071;34.48;906;03.25.41.853
12920;173078;34.48;907;03.25.41.864
12928;173071;34.48;908;03.25.41.875
12928;173077;34.48;909;03.25.41.875
12928;173080;34.48;910;03.25.41.875
12916;173080;34.48;911;03.25.41.875
12944;173081;34.48;912;03.25.41.875
12908;173076;34.48;913;03.25.41.875
12904;173073;34.48;914;03.25.41.875
12916;173061;34.48;915;03.25.41.886
12888;173065;34.48;916;03.25.41.886
12920;173054;34.48;917;03.25.41.886
12896;173051;34.48;918;03.25.41.886
12912;173055;34.48;919;03.25.41.886
12892;173050;34.48;920;03.25.41.886
12944;173052;34.48;921;03.25.41.886
12888;173044;34.48;922;03.25.41.886
12920;173048;34.48;923;03.25.41.897
12908;173046;34.48;924;03.25.41.897
12928;173043;34.48;925;03.25.41.974
12908;173047;34.48;926;03.25.41.974
12932;173052;34.48;927;03.25.41.974
12920;173045;34.48;928;03.25.41.985
12916;173042;34.48;929;03.25.41.985
12908;173043;34.48;930;03.25.41.985
12952;173045;34.48;931;03.25.41.985
12928;173055;34.48;932;03.25.41.985
12912;173051;34.48;933;03.25.41.985
12916;173059;34.48;934;03.25.41.985
12916;173049;34.48;935;03.25.41.985
12888;173064;34.48;936;03.25.41.985
12928;173058;34.48;937;03.25.41.985
12920;173060;34.48;938;03.25.41.985
12928;173063;34.48;939;03.25.41.985
12920;173063;34.48;940;03.25.41.985
12944;173072;34.48;941;03.25.41.995
12904;173067;34.48;942;03.25.42.017
12908;173067;34.48;943;03.25.42.017
12900;173065;34.48;944;03.25.42.017
12896;173062;34.48;945;03.25.42.028
12920;173056;34.48;946;03.25.42.028
12944;173064;34.48;947;03.25.42.028
12912;173065;34.48;948;03.25.42.028
12892;173060;34.48;949;03.25.42.028
12924;173054;34.44;950;03.25.42.116
12936;173059;34.44;951;03.25.42.116
12920;173053;34.44;952;03.25.42.116
12892;173055;34.44;953;03.25.42.116
12920;173054;34.44;954;03.25.42.116
12932;173057;34.44;955;03.25.42.116
12908;173054;34.44;956;03.25.42.116
12924;173056;34.44;957;03.25.42.116
12888;173058;34.44;958;03.25.42.116
12948;173053;34.44;959;03.25.42.116
12928;173054;34.44;960;03.25.42.116
12928;173044;34.44;961;03.25.42.127
12908;173041;34.44;962;03.25.42.127
12916;173041;34.44;963;03.25.42.127
12920;173044;34.44;964;03.25.42.127
12892;173040;34.44;965;03.25.42.127
12908;173028;34.44;966;03.25.42.127
12904;173030;34.44;967;03.25.42.127
12944;173028;34.44;968;03.25.42.127
12928;173017;34.44;969;03.25.42.127
12944;173023;34.44;970;03.25.42.127
12940;173019;34.44;971;03.25.42.127
12928;173018;34.44;972;03.25.42.127
12908;173016;34.44;973;03.25.42.127
12936;173020;34.44;974;03.25.42.127
12924;173005;34.44;975;03.25.42.247
12916;173024;34.44;976;03.25.42.247
12932;173014;34.44;977;03.25.42.247
12928;173025;34.44;978;03.25.42.247
12940;173013;34.44;979;03.25.42.247
12892;173020;34.44;980;03.25.42.247
12916;173022;34.44;981;03.25.42.247
12916;173015;34.44;982;03.25.42.258
12916;173012;34.44;983;03.25.42.258
12924;173005;34.44;984;03.25.42.258
12888;173012;34.44;985;03.25.42.258
12928;173004;34.44;986;03.25.42.258
12924;173007;34.44;987;03.25.42.258
12940;173003;34.44;988;03.25.42.258
12904;172995;34.44;989;03.25.42.258
12920;172997;34.44;990;03.25.42.258
12908;172992;34.44;991;03.25.42.258
12892;172980;34.44;992;03.25.42.258
12928;172984;34.44;993;03.25.42.258
12916;172978;34.44;994;03.25.42.258
12912;172982;34.44;995;03.25.42.258
12928;172976;34.44;996;03.25.42.270
12924;172982;34.44;997;03.25.42.270
12912;172977;34.44;998;03.25.42.270
12920;172976;34.44;999;03.25.42.270
12924;172973;34.48;000;03.25.42.380
12932;172980;34.48;001;03.25.42.380
12928;172981;34.48;002;03.25.42.380
12912;172982;34.48;003;03.25.42.380
12892;172979;34.48;004;03.25.42.391
12932;172979;34.48;005;03.25.42.391
12904;172980;34.48;006;03.25.42.391
12904;172981;34.48;007;03.25.42.391
12928;172978;34.48;008;03.25.42.391
12936;172986;34.48;009;03.25.42.391
12904;172983;34.48;010;03.25.42.391
12944;172989;34.48;011;03.25.42.391
12916;172980;34.48;012;03.25.42.391
12924;172989;34.48;013;03.25.42.391
12928;172990;34.48;014;03.25.42.391
12920;172991;34.48;015;03.25.42.391
12924;172980;34.48;016;03.25.42.391
12892;172988;34.48;017;03.25.42.402
12936;172999;34.48;018;03.25.42.402
12944;173000;34.48;019;03.25.42.402
12924;173002;34.48;020;03.25.42.402
12944;173008;34.48;021;03.25.42.402
12908;173003;34.48;022;03.25.42.402
12932;173012;34.48;023;03.25.42.402
12928;173014;34.48;024;03.25.42.402
12904;173022;34.48;025;03.25.42.479
12912;173021;34.48;026;03.25.42.490
12916;173030;34.48;027;03.25.42.490
12912;173028;34.48;028;03.25.42.490
12920;173029;34.48;029;03.25.42.490
12908;173030;34.48;030;03.25.42.490
12908;173026;34.48;031;03.25.42.490
12936;173037;34.48;032;03.25.42.490
12928;173040;34.48;033;03.25.42.511
12920;173047;34.48;034;03.25.42.522
12892;173049;34.48;035;03.25.42.522
12892;173053;34.48;036;03.25.42.522
12892;173052;34.48;037;03.25.42.522
12928;173057;34.48;038;03.25.42.522
12912;173050;34.48;039;03.25.42.522
12924;173051;34.48;040;03.25.42.522
12920;173049;34.48;041;03.25.42.522
12928;173051;34.48;042;03.25.42.522
12900;173058;34.48;043;03.25.42.522
12928;173061;34.48;044;03.25.42.522
12924;173059;34.48;045;03.25.42.522
12936;173060;34.48;046;03.25.42.522
12928;173057;34.48;047;03.25.42.533
12908;173057;34.48;048;03.25.42.533
12928;173053;34.48;049;03.25.42.533
12944;173063;34.48;050;03.25.42.610
12904;173054;34.48;051;03.25.42.610
12932;173066;34.48;052;03.25.42.610
12928;173068;34.48;053;03.25.42.610
12948;173070;34.48;054;03.25.42.610
12900;173060;34.48;055;03.25.42.610
12944;173068;34.48;056;03.25.42.610
12904;173075;34.48;057;03.25.42.610
12924;173082;34.48;058;03.25.42.610
12904;173068;34.48;059;03.25.42.610
12912;173075;34.48;060;03.25.42.610
12936;173076;34.48;061;03.25.42.621
12900;173079;34.48;062;03.25.42.621
12928;173075;34.48;063;03.25.42.621
12936;173081;34.48;064;03.25.42.621
12936;173081;34.48;065;03.25.42.621
12900;173077;34.48;066;03.25.42.621
12928;173078;34.48;067;03.25.42.621
12912;173089;34.48;068;03.25.42.621
12928;173082;34.48;069;03.25.42.621
12892;173075;34.48;070;03.25.42.621
12904;173074;34.48;071;03.25.42.621
12932;173077;34.48;072;03.25.42.621
12912;173066;34.48;073;03.25.42.632
12924;173057;34.48;074;03.25.42.632
12892;173061;34.48;075;03.25.42.742
12912;173055;34.48;076;03.25.42.742
12912;173045;34.48;077;03.25.42.742
12920;173051;34.48;078;03.25.42.742
12908;173046;34.48;079;03.25.42.742
12928;173044;34.48;080;03.25.42.742
12920;173037;34.48;081;03.25.42.753
12928;173032;34.48;082;03.25.42.753
12888;173035;34.48;083;03.25.42.753
12928;173036;34.48;084;03.25.42.753
12904;173034;34.48;085;03.25.42.753
12916;173039;34.48;086;03.25.42.753
12944;173035;34.48;087;03.25.42.753
12928;173018;34.48;088;03.25.42.753
12912;173025;34.48;089;03.25.42.753
12916;173020;34.48;090;03.25.42.753
12912;173009;34.48;091;03.25.42.753
12920;173011;34.48;092;03.25.42.753
12892;173011;34.48;093;03.25.42.753
12908;173000;34.48;094;03.25.42.764
12960;173006;34.48;095;03.25.42.764
12916;173003;34.48;096;03.25.42.764
12900;172995;34.48;097;03.25.42.764
12904;173001;34.48;098;03.25.42.764
12924;173005;34.48;099;03.25.42.764
12904;173004;34.48;100;03.25.42.851
12900;172995;34.48;101;03.25.42.851
12904;172994;34.48;102;03.25.42.851
12924;172992;34.48;103;03.25.42.862
12916;172996;34.48;104;03.25.42.862
12892;172996;34.48;105;03.25.42.862
12888;173001;34.48;106;03.25.42.862
12928;172992;34.48;107;03.25.42.862
12944;173001;34.48;108;03.25.42.873
12888;173001;34.48;109;03.25.42.873
12960;173004;34.48;110;03.25.42.873
12908;173006;34.48;111;03.25.42.883
12912;173003;34.48;112;03.25.42.883
12924;172993;34.48;113;03.25.42.883
12928;172997;34.48;114;03.25.42.883
12884;173005;34.48;115;03.25.42.883
12936;173000;34.48;116;03.25.42.883
12928;173000;34.48;117;03.25.42.883
12908;172998;34.48;118;03.25.42.883
12916;172995;34.48;119;03.25.42.894
12920;173001;34.48;120;03.25.42.894
12928;172992;34.48;121;03.25.42.894
12912;172997;34.48;122;03.25.42.894
12916;173004;34.48;123;03.25.42.894
12920;173005;34.48;124;03.25.42.894
12892;173011;34.48;125;03.25.42.982
12928;173008;34.48;126;03.25.42.982
12912;172998;34.48;127;03.25.42.982
12916;173007;34.48;128;03.25.42.982
12908;173002;34.48;129;03.25.42.982
12920;173010;34.48;130;03.25.42.982
12916;172998;34.48;131;03.25.42.982
12888;173004;34.48;132;03.25.42.982
12908;173007;34.48;133;03.25.42.982
12924;173014;34.48;134;03.25.42.982
12932;173009;34.48;135;03.25.42.982
12932;173004;34.48;136;03.25.42.982
12900;173003;34.48;137;03.25.42.982
12912;173013;34.48;138;03.25.42.994
12916;173002;34.48;139;03.25.42.994
12928;173009;34.48;140;03.25.42.994
12932;173003;34.48;141;03.25.42.994
12924;173005;34.48;142;03.25.43.016
12920;173005;34.48;143;03.25.43.016
12928;173008;34.48;144;03.25.43.016
12928;173005;34.48;145;03.25.43.016
12912;173009;34.48;146;03.25.43.016
12932;173006;34.48;147;03.25.43.016
12952;173015;34.48;148;03.25.43.016
12912;173013;34.48;149;03.25.43.016
12912;173004;34.44;150;03.25.43.103
12948;173007;34.44;151;03.25.43.103
12912;173005;34.44;152;03.25.43.103
12908;173010;34.44;153;03.25.43.103
12920;173018;34.44;154;03.25.43.103
12932;173014;34.44;155;03.25.43.103
12912;173012;34.44;156;03.25.43.103
12912;173015;34.44;157;03.25.43.103
12928;173013;34.44;158;03.25.43.114
12928;173014;34.44;159;03.25.43.114
12928;173016;34.44;160;03.25.43.114
12928;173016;34.44;161;03.25.43.114
12944;173023;34.44;162;03.25.43.114
12940;173020;34.44;163;03.25.43.114
12916;173020;34.44;164;03.25.43.114
12916;173030;34.44;165;03.25.43.114
12904;173029;34.44;166;03.25.43.125
12924;173034;34.44;167;03.25.43.125
12936;173038;34.44;168;03.25.43.125
12932;173042;34.44;169;03.25.43.125
12916;173043;34.44;170;03.25.43.125
12928;173043;34.44;171;03.25.43.125
12924;173053;34.44;172;03.25.43.125
12936;173059;34.44;173;03.25.43.125
12952;173059;34.44;174;03.25.43.125
12916;173057;34.44;175;03.25.43.234
12912;173063;34.44;176;03.25.43.234
12928;173071;34.44;177;03.25.43.234
12928;173071;34.44;178;03.25.43.245
12896;173069;34.44;179;03.25.43.245
12908;173077;34.44;180;03.25.43.245
12936;173070;34.44;181;03.25.43.245
12892;173058;34.44;182;03.25.43.245
12920;173078;34.44;183;03.25.43.245
12932;173082;34.44;184;03.25.43.245
12912;173074;34.44;185;03.25.43.245
12912;173071;34.44;186;03.25.43.245
12928;173077;34.44;187;03.25.43.245
12936;173076;34.44;188;03.25.43.245
12912;173083;34.44;189;03.25.43.245
12908;173084;34.44;190;03.25.43.245
12944;173079;34.44;191;03.25.43.256
12936;173083;34.44;192;03.25.43.256
12960;173084;34.44;193;03.25.43.256
12936;173080;34.44;194;03.25.43.256
12928;173094;34.44;195;03.25.43.256
12916;173091;34.44;196;03.25.43.256
12908;173090;34.44;197;03.25.43.256
12912;173090;34.44;198;03.25.43.256
12928;173102;34.44;199;03.25.43.256
12936;173096;34.48;200;03.25.43.376
12920;173092;34.48;201;03.25.43.376
12924;173091;34.48;202;03.25.43.376
12912;173096;34.48;203;03.25.43.376
12908;173095;34.48;204;03.25.43.376
12892;173092;34.48;205;03.25.43.376
12908;173102;34.48;206;03.25.43.376
12936;173106;34.48;207;03.25.43.376
12908;173105;34.48;208;03.25.43.387
12916;173112;34.48;209;03.25.43.387
12916;173120;34.48;210;03.25.43.387
12908;173095;34.48;211;03.25.43.387
12916;173115;34.48;212;03.25.43.387
12928;173111;34.48;213;03.25.43.387
12904;173109;34.48;214;03.25.43.387
12916;173121;34.48;215;03.25.43.387
12944;173119;34.48;216;03.25.43.387
12944;173116;34.48;217;03.25.43.387
12924;173117;34.48;218;03.25.43.387
12888;173122;34.48;219;03.25.43.387
12876;173127;34.48;220;03.25.43.398
12912;173125;34.48;221;03.25.43.398
12928;173122;34.48;222;03.25.43.398
12912;173120;34.48;223;03.25.43.398
12940;173127;34.48;224;03.25.43.398
12896;173123;34.48;225;03.25.43.507
12892;173119;34.48;226;03.25.43.507
12928;173122;34.48;227;03.25.43.507
12912;173108;34.48;228;03.25.43.507
12924;173110;34.48;229;03.25.43.507
12908;173112;34.48;230;03.25.43.507
12924;173104;34.48;231;03.25.43.507
12936;173105;34.48;232;03.25.43.507
12928;173100;34.48;233;03.25.43.518
12892;173106;34.48;234;03.25.43.518
12932;173107;34.48;235;03.25.43.518
12920;173100;34.48;236;03.25.43.518
12904;173102;34.48;237;03.25.43.518
12960;173103;34.48;238;03.25.43.518
12900;173099;34.48;239;03.25.43.518
12936;173094;34.48;240;03.25.43.518
12904;173087;34.48;241;03.25.43.518
12924;173090;34.48;242;03.25.43.529
12920;173090;34.48;243;03.25.43.529
12900;173085;34.48;244;03.25.43.529
12928;173082;34.48;245;03.25.43.529
12892;173077;34.48;246;03.25.43.529
12928;173088;34.48;247;03.25.43.529
12936;173089;34.48;248;03.25.43.529
12936;173089;34.48;249;03.25.43.540
12916;173087;34.44;250;03.25.43.606
12924;173090;34.44;251;03.25.43.606
12928;173093;34.44;252;03.25.43.606
12928;173099;34.44;253;03.25.43.617
12916;173094;34.44;254;03.25.43.617
12944;173095;34.44;255;03.25.43.617
12912;173097;34.44;256;03.25.43.617
12932;173086;34.44;257;03.25.43.617
12932;173101;34.44;258;03.25.43.617
12892;173102;34.44;259;03.25.43.617
12904;173100;34.44;260;03.25.43.617
12900;173103;34.44;261;03.25.43.617
12912;173099;34.44;262;03.25.43.617
12912;173110;34.44;263;03.25.43.617
12936;173114;34.44;264;03.25.43.617
12912;173115;34.44;265;03.25.43.617
12912;173113;34.44;266;03.25.43.628
12920;173113;34.44;267;03.25.43.628
12940;173117;34.44;268;03.25.43.628
12928;173116;34.44;269;03.25.43.628
12892;173120;34.44;270;03.25.43.628
12924;173120;34.44;271;03.25.43.628
12908;173127;34.44;272;03.25.43.628
12916;173123;34.44;273;03.25.43.628
12932;173120;34.44;274;03.25.43.628
12908;173121;34.44;275;03.25.43.733
12936;173118;34.44;276;03.25.43.733
12924;173124;34.44;277;03.25.43.733
12912;173119;34.44;278;03.25.43.733
12928;173115;34.44;279;03.25.43.733
12904;173111;34.44;280;03.25.43.733
12884;173110;34.44;281;03.25.43.734
