gsr; bvp; skt; skt2; Cont; time
12892;172823;34.52;000;03.29.23.925
12876;172820;34.52;001;03.29.23.925
12928;172826;34.52;002;03.29.23.937
12940;172815;34.52;003;03.29.23.937
12876;172802;34.52;004;03.29.23.937
12920;172802;34.52;005;03.29.23.937
12928;172804;34.52;006;03.29.23.937
12924;172803;34.52;007;03.29.23.937
12944;172789;34.52;008;03.29.23.937
12928;172789;34.52;009;03.29.23.937
12904;172790;34.52;010;03.29.23.937
12900;172779;34.52;011;03.29.23.937
12944;172774;34.52;012;03.29.23.937
12928;172774;34.52;013;03.29.23.937
12916;172771;34.52;014;03.29.23.937
12904;172762;34.52;015;03.29.23.937
12928;172761;34.52;016;03.29.23.937
12924;172757;34.52;017;03.29.23.947
12912;172755;34.52;018;03.29.23.947
12908;172760;34.52;019;03.29.23.947
12908;172760;34.52;020;03.29.23.947
12916;172750;34.52;021;03.29.23.947
12932;172756;34.52;022;03.29.23.947
12928;172756;34.52;023;03.29.23.947
12928;172750;34.52;024;03.29.23.947
12912;172751;34.52;025;03.29.24.079
12924;172752;34.52;026;03.29.24.079
12904;172750;34.52;027;03.29.24.079
12892;172749;34.52;028;03.29.24.079
12912;172751;34.52;029;03.29.24.079
12920;172758;34.52;030;03.29.24.079
12928;172753;34.52;031;03.29.24.079
12940;172757;34.52;032;03.29.24.079
12920;172751;34.52;033;03.29.24.079
12940;172760;34.52;034;03.29.24.079
12908;172757;34.52;035;03.29.24.079
12904;172750;34.52;036;03.29.24.079
12928;172759;34.52;037;03.29.24.090
12904;172766;34.52;038;03.29.24.090
12928;172760;34.52;039;03.29.24.090
12892;172759;34.52;040;03.29.24.090
12936;172757;34.52;041;03.29.24.090
12932;172769;34.52;042;03.29.24.090
12904;172766;34.52;043;03.29.24.090
12916;172767;34.52;044;03.29.24.090
12900;172766;34.52;045;03.29.24.090
12928;172765;34.52;046;03.29.24.090
12920;172763;34.52;047;03.29.24.090
12928;172764;34.52;048;03.29.24.090
12960;172765;34.52;049;03.29.24.101
12912;172768;34.52;050;03.29.24.188
12908;172771;34.52;051;03.29.24.188
12908;172761;34.52;052;03.29.24.188
12904;172770;34.52;053;03.29.24.188
12912;172768;34.52;054;03.29.24.188
12924;172757;34.52;055;03.29.24.188
12928;172765;34.52;056;03.29.24.199
12928;172771;34.52;057;03.29.24.199
12940;172770;34.52;058;03.29.24.199
12904;172768;34.52;059;03.29.24.199
12936;172765;34.52;060;03.29.24.199
12908;172776;34.52;061;03.29.24.199
12916;172766;34.52;062;03.29.24.199
12920;172770;34.52;063;03.29.24.199
12908;172768;34.52;064;03.29.24.199
12920;172776;34.52;065;03.29.24.199
12908;172773;34.52;066;03.29.24.199
12932;172773;34.52;067;03.29.24.199
12932;172770;34.52;068;03.29.24.199
12916;172776;34.52;069;03.29.24.210
12920;172768;34.52;070;03.29.24.210
12900;172774;34.52;071;03.29.24.210
12896;172781;34.52;072;03.29.24.210
12936;172784;34.52;073;03.29.24.210
12936;172774;34.52;074;03.29.24.210
12908;172770;34.52;075;03.29.24.330
12932;172774;34.52;076;03.29.24.330
12892;172779;34.52;077;03.29.24.330
12928;172769;34.52;078;03.29.24.341
12928;172781;34.52;079;03.29.24.341
12900;172781;34.52;080;03.29.24.341
12940;172778;34.52;081;03.29.24.341
12880;172771;34.52;082;03.29.24.341
12920;172772;34.52;083;03.29.24.341
12900;172777;34.52;084;03.29.24.341
12884;172770;34.52;085;03.29.24.341
12928;172778;34.52;086;03.29.24.341
12928;172772;34.52;087;03.29.24.341
12908;172782;34.52;088;03.29.24.341
12916;172783;34.52;089;03.29.24.341
12940;172772;34.52;090;03.29.24.341
12952;172777;34.52;091;03.29.24.352
12916;172780;34.52;092;03.29.24.352
12920;172776;34.52;093;03.29.24.352
12920;172778;34.52;094;03.29.24.352
12940;172780;34.52;095;03.29.24.352
12900;172784;34.52;096;03.29.24.352
12936;172785;34.52;097;03.29.24.352
12908;172783;34.52;098;03.29.24.352
12908;172785;34.52;099;03.29.24.352
12916;172784;34.56;100;03.29.24.439
12928;172784;34.56;101;03.29.24.439
12924;172785;34.56;102;03.29.24.439
12928;172791;34.56;103;03.29.24.439
12924;172784;34.56;104;03.29.24.439
12916;172790;34.56;105;03.29.24.439
12960;172788;34.56;106;03.29.24.439
12908;172793;34.56;107;03.29.24.439
12932;172788;34.56;108;03.29.24.439
12908;172789;34.56;109;03.29.24.439
12924;172800;34.56;110;03.29.24.439
12884;172794;34.56;111;03.29.24.439
12928;172789;34.56;112;03.29.24.450
12908;172795;34.56;113;03.29.24.450
12888;172787;34.56;114;03.29.24.450
12944;172801;34.56;115;03.29.24.450
12920;172797;34.56;116;03.29.24.450
12928;172799;34.56;117;03.29.24.461
12928;172801;34.56;118;03.29.24.461
12904;172808;34.56;119;03.29.24.461
12908;172805;34.56;120;03.29.24.461
12948;172811;34.56;121;03.29.24.461
12900;172808;34.56;122;03.29.24.461
12928;172805;34.56;123;03.29.24.461
12924;172799;34.56;124;03.29.24.461
12920;172807;34.56;125;03.29.24.571
12912;172803;34.56;126;03.29.24.571
12928;172804;34.56;127;03.29.24.571
12928;172801;34.56;128;03.29.24.571
12896;172804;34.56;129;03.29.24.571
12896;172804;34.56;130;03.29.24.571
12944;172807;34.56;131;03.29.24.571
12892;172813;34.56;132;03.29.24.571
12916;172811;34.56;133;03.29.24.571
12960;172812;34.56;134;03.29.24.582
12908;172803;34.56;135;03.29.24.582
12888;172807;34.56;136;03.29.24.582
12916;172813;34.56;137;03.29.24.582
12928;172814;34.56;138;03.29.24.582
12920;172808;34.56;139;03.29.24.582
12916;172821;34.56;140;03.29.24.582
12920;172817;34.56;141;03.29.24.582
12936;172815;34.56;142;03.29.24.582
12908;172821;34.56;143;03.29.24.582
12924;172818;34.56;144;03.29.24.582
12892;172817;34.56;145;03.29.24.582
12892;172828;34.56;146;03.29.24.582
12928;172821;34.56;147;03.29.24.593
12932;172829;34.56;148;03.29.24.593
12924;172824;34.56;149;03.29.24.593
12928;172831;34.52;150;03.29.24.703
12920;172829;34.52;151;03.29.24.703
12900;172824;34.52;152;03.29.24.703
12924;172817;34.52;153;03.29.24.703
12900;172820;34.52;154;03.29.24.703
12924;172821;34.52;155;03.29.24.714
12932;172815;34.52;156;03.29.24.714
12924;172815;34.52;157;03.29.24.714
12900;172809;34.52;158;03.29.24.714
12908;172801;34.52;159;03.29.24.714
12924;172799;34.52;160;03.29.24.714
12916;172794;34.52;161;03.29.24.714
12908;172791;34.52;162;03.29.24.714
12916;172789;34.52;163;03.29.24.714
12912;172786;34.52;164;03.29.24.714
12912;172774;34.52;165;03.29.24.714
12912;172767;34.52;166;03.29.24.714
12900;172769;34.52;167;03.29.24.725
12916;172758;34.52;168;03.29.24.725
12920;172762;34.52;169;03.29.24.725
12872;172763;34.52;170;03.29.24.725
12900;172758;34.52;171;03.29.24.725
12908;172761;34.52;172;03.29.24.725
12908;172755;34.52;173;03.29.24.725
12912;172751;34.52;174;03.29.24.725
12912;172746;34.52;175;03.29.24.801
12908;172747;34.52;176;03.29.24.812
12888;172745;34.52;177;03.29.24.812
12920;172750;34.52;178;03.29.24.812
12900;172744;34.52;179;03.29.24.812
12916;172748;34.52;180;03.29.24.812
12912;172748;34.52;181;03.29.24.812
12916;172739;34.52;182;03.29.24.812
12872;172747;34.52;183;03.29.24.812
12920;172748;34.52;184;03.29.24.812
12900;172740;34.52;185;03.29.24.823
12924;172743;34.52;186;03.29.24.823
12884;172749;34.52;187;03.29.24.823
12920;172738;34.52;188;03.29.24.823
12892;172741;34.52;189;03.29.24.823
12928;172744;34.52;190;03.29.24.823
12888;172753;34.52;191;03.29.24.823
12892;172736;34.52;192;03.29.24.834
12924;172734;34.52;193;03.29.24.845
12920;172741;34.52;194;03.29.24.845
12928;172745;34.52;195;03.29.24.845
12908;172744;34.52;196;03.29.24.845
12928;172738;34.52;197;03.29.24.845
12928;172735;34.52;198;03.29.24.845
12928;172745;34.52;199;03.29.24.845
12908;172742;34.56;200;03.29.24.933
12908;172742;34.56;201;03.29.24.933
12920;172743;34.56;202;03.29.24.933
12928;172744;34.56;203;03.29.24.933
12936;172738;34.56;204;03.29.24.933
12908;172741;34.56;205;03.29.24.933
12936;172737;34.56;206;03.29.24.933
12928;172737;34.56;207;03.29.24.933
12924;172743;34.56;208;03.29.24.933
12916;172741;34.56;209;03.29.24.933
12936;172748;34.56;210;03.29.24.933
12932;172743;34.56;211;03.29.24.944
12928;172744;34.56;212;03.29.24.944
12912;172741;34.56;213;03.29.24.944
12892;172745;34.56;214;03.29.24.944
12912;172741;34.56;215;03.29.24.944
12924;172743;34.56;216;03.29.24.944
12920;172736;34.56;217;03.29.24.944
12920;172743;34.56;218;03.29.24.944
12892;172733;34.56;219;03.29.24.944
12876;172735;34.56;220;03.29.24.944
12912;172736;34.56;221;03.29.24.944
12916;172738;34.56;222;03.29.24.944
12920;172729;34.56;223;03.29.24.955
12944;172728;34.56;224;03.29.24.955
12920;172727;34.56;225;03.29.25.064
12908;172732;34.56;226;03.29.25.064
12880;172739;34.56;227;03.29.25.064
12928;172736;34.56;228;03.29.25.064
12924;172732;34.56;229;03.29.25.064
12916;172731;34.56;230;03.29.25.075
12912;172741;34.56;231;03.29.25.075
12928;172738;34.56;232;03.29.25.075
12916;172731;34.56;233;03.29.25.075
12928;172744;34.56;234;03.29.25.075
12896;172745;34.56;235;03.29.25.075
12892;172746;34.56;236;03.29.25.075
12900;172736;34.56;237;03.29.25.075
12920;172732;34.56;238;03.29.25.075
12884;172736;34.56;239;03.29.25.075
12916;172745;34.56;240;03.29.25.075
12896;172735;34.56;241;03.29.25.075
12924;172746;34.56;242;03.29.25.075
12932;172743;34.56;243;03.29.25.086
12932;172750;34.56;244;03.29.25.086
12908;172743;34.56;245;03.29.25.086
12904;172751;34.56;246;03.29.25.086
12920;172747;34.56;247;03.29.25.086
12924;172754;34.56;248;03.29.25.086
12932;172744;34.56;249;03.29.25.086
12916;172749;34.52;250;03.29.25.195
12956;172748;34.52;251;03.29.25.206
12908;172751;34.52;252;03.29.25.206
12952;172750;34.52;253;03.29.25.206
12928;172754;34.52;254;03.29.25.206
12928;172758;34.52;255;03.29.25.206
12908;172757;34.52;256;03.29.25.206
12928;172757;34.52;257;03.29.25.206
12928;172753;34.52;258;03.29.25.206
12924;172760;34.52;259;03.29.25.206
12932;172763;34.52;260;03.29.25.206
12916;172757;34.52;261;03.29.25.206
12904;172763;34.52;262;03.29.25.206
12928;172764;34.52;263;03.29.25.206
12900;172762;34.52;264;03.29.25.218
12908;172762;34.52;265;03.29.25.218
12892;172769;34.52;266;03.29.25.218
12928;172764;34.52;267;03.29.25.218
12860;172766;34.52;268;03.29.25.218
12912;172767;34.52;269;03.29.25.218
12920;172769;34.52;270;03.29.25.218
12900;172770;34.52;271;03.29.25.218
12892;172770;34.52;272;03.29.25.218
12892;172774;34.52;273;03.29.25.218
12908;172768;34.52;274;03.29.25.218
12904;172766;34.52;275;03.29.25.317
12944;172769;34.52;276;03.29.25.317
12892;172782;34.52;277;03.29.25.317
12888;172776;34.52;278;03.29.25.317
12928;172783;34.52;279;03.29.25.317
12936;172775;34.52;280;03.29.25.317
12888;172779;34.52;281;03.29.25.317
12908;172782;34.52;282;03.29.25.317
12908;172776;34.52;283;03.29.25.317
12904;172781;34.52;284;03.29.25.317
12928;172777;34.52;285;03.29.25.328
12916;172783;34.52;286;03.29.25.328
12900;172781;34.52;287;03.29.25.328
12892;172792;34.52;288;03.29.25.328
12920;172778;34.52;289;03.29.25.328
12904;172791;34.52;290;03.29.25.328
12916;172787;34.52;291;03.29.25.328
12932;172792;34.52;292;03.29.25.338
12928;172795;34.52;293;03.29.25.338
12904;172800;34.52;294;03.29.25.338
12920;172780;34.52;295;03.29.25.338
12920;172788;34.52;296;03.29.25.338
12916;172782;34.52;297;03.29.25.338
12900;172776;34.52;298;03.29.25.338
12884;172783;34.52;299;03.29.25.338
12928;172782;34.52;300;03.29.25.437
12900;172769;34.52;301;03.29.25.437
12916;172770;34.52;302;03.29.25.437
12928;172763;34.52;303;03.29.25.437
12912;172763;34.52;304;03.29.25.437
12920;172746;34.52;305;03.29.25.437
12908;172742;34.52;306;03.29.25.437
12884;172734;34.52;307;03.29.25.437
12944;172742;34.52;308;03.29.25.448
12928;172738;34.52;309;03.29.25.448
12912;172726;34.52;310;03.29.25.448
12888;172728;34.52;311;03.29.25.448
12904;172732;34.52;312;03.29.25.448
12932;172722;34.52;313;03.29.25.448
12904;172719;34.52;314;03.29.25.448
12908;172714;34.52;315;03.29.25.448
12928;172712;34.52;316;03.29.25.448
12908;172703;34.52;317;03.29.25.470
12928;172698;34.52;318;03.29.25.470
12892;172686;34.52;319;03.29.25.470
12928;172696;34.52;320;03.29.25.470
12928;172690;34.52;321;03.29.25.470
12908;172692;34.52;322;03.29.25.470
12892;172694;34.52;323;03.29.25.470
12928;172687;34.52;324;03.29.25.481
12908;172687;34.52;325;03.29.25.558
12904;172685;34.52;326;03.29.25.558
12932;172684;34.52;327;03.29.25.558
12912;172683;34.52;328;03.29.25.558
12928;172687;34.52;329;03.29.25.568
12896;172686;34.52;330;03.29.25.568
12920;172678;34.52;331;03.29.25.568
12872;172674;34.52;332;03.29.25.568
12908;172681;34.52;333;03.29.25.568
12892;172674;34.52;334;03.29.25.568
12908;172674;34.52;335;03.29.25.568
12908;172677;34.52;336;03.29.25.568
12916;172674;34.52;337;03.29.25.568
12928;172671;34.52;338;03.29.25.568
12892;172670;34.52;339;03.29.25.568
12912;172678;34.52;340;03.29.25.568
12908;172679;34.52;341;03.29.25.579
12916;172676;34.52;342;03.29.25.579
12928;172673;34.52;343;03.29.25.579
12892;172673;34.52;344;03.29.25.579
12900;172672;34.52;345;03.29.25.579
12892;172679;34.52;346;03.29.25.579
12904;172680;34.52;347;03.29.25.579
12928;172679;34.52;348;03.29.25.579
12932;172675;34.52;349;03.29.25.579
12888;172680;34.52;350;03.29.25.700
12892;172677;34.52;351;03.29.25.700
12892;172680;34.52;352;03.29.25.700
12928;172675;34.52;353;03.29.25.700
12920;172676;34.52;354;03.29.25.700
12904;172670;34.52;355;03.29.25.700
12892;172680;34.52;356;03.29.25.700
12928;172679;34.52;357;03.29.25.700
12904;172675;34.52;358;03.29.25.700
12932;172674;34.52;359;03.29.25.700
12912;172683;34.52;360;03.29.25.700
12912;172671;34.52;361;03.29.25.700
12896;172686;34.52;362;03.29.25.700
12904;172684;34.52;363;03.29.25.711
12916;172684;34.52;364;03.29.25.711
12924;172687;34.52;365;03.29.25.711
12920;172684;34.52;366;03.29.25.711
12912;172681;34.52;367;03.29.25.711
12900;172682;34.52;368;03.29.25.711
12928;172675;34.52;369;03.29.25.711
12912;172685;34.52;370;03.29.25.711
12924;172686;34.52;371;03.29.25.711
12928;172680;34.52;372;03.29.25.711
12900;172688;34.52;373;03.29.25.711
12908;172690;34.52;374;03.29.25.711
12920;172694;34.52;375;03.29.25.809
12912;172687;34.52;376;03.29.25.809
12928;172694;34.52;377;03.29.25.809
12912;172699;34.52;378;03.29.25.809
12928;172701;34.52;379;03.29.25.809
12932;172700;34.52;380;03.29.25.809
12928;172699;34.52;381;03.29.25.809
12896;172699;34.52;382;03.29.25.809
12928;172703;34.52;383;03.29.25.831
12944;172703;34.52;384;03.29.25.831
12916;172705;34.52;385;03.29.25.831
12904;172718;34.52;386;03.29.25.831
12904;172708;34.52;387;03.29.25.831
12928;172717;34.52;388;03.29.25.831
12932;172720;34.52;389;03.29.25.831
12900;172723;34.52;390;03.29.25.831
12888;172724;34.52;391;03.29.25.831
12904;172732;34.52;392;03.29.25.842
12904;172731;34.52;393;03.29.25.842
12904;172729;34.52;394;03.29.25.842
12912;172734;34.52;395;03.29.25.842
12900;172737;34.52;396;03.29.25.842
12908;172739;34.52;397;03.29.25.842
12936;172737;34.52;398;03.29.25.842
12908;172732;34.52;399;03.29.25.842
12920;172739;34.56;400;03.29.25.929
12916;172743;34.56;401;03.29.25.929
12924;172741;34.56;402;03.29.25.929
12888;172740;34.56;403;03.29.25.929
12924;172734;34.56;404;03.29.25.929
12924;172728;34.56;405;03.29.25.940
12904;172732;34.56;406;03.29.25.940
12924;172733;34.56;407;03.29.25.940
12904;172734;34.56;408;03.29.25.940
12920;172727;34.56;409;03.29.25.940
12892;172731;34.56;410;03.29.25.940
12896;172731;34.56;411;03.29.25.940
12892;172725;34.56;412;03.29.25.940
12892;172728;34.56;413;03.29.25.951
12904;172733;34.56;414;03.29.25.951
12900;172728;34.56;415;03.29.25.951
12936;172731;34.56;416;03.29.25.951
12928;172735;34.56;417;03.29.25.962
12928;172725;34.56;418;03.29.25.962
12888;172721;34.56;419;03.29.25.962
12920;172731;34.56;420;03.29.25.962
12908;172730;34.56;421;03.29.25.962
12920;172725;34.56;422;03.29.25.973
12908;172730;34.56;423;03.29.25.973
12912;172729;34.56;424;03.29.25.973
12896;172736;34.56;425;03.29.26.050
12892;172739;34.56;426;03.29.26.061
12892;172735;34.56;427;03.29.26.061
12916;172737;34.56;428;03.29.26.061
12888;172740;34.56;429;03.29.26.061
12904;172740;34.56;430;03.29.26.061
12912;172742;34.56;431;03.29.26.061
12928;172741;34.56;432;03.29.26.061
12916;172744;34.56;433;03.29.26.061
12928;172743;34.56;434;03.29.26.061
12900;172748;34.56;435;03.29.26.061
12892;172742;34.56;436;03.29.26.061
12928;172751;34.56;437;03.29.26.061
12888;172747;34.56;438;03.29.26.061
12900;172747;34.56;439;03.29.26.072
12912;172755;34.56;440;03.29.26.072
12908;172747;34.56;441;03.29.26.072
12920;172754;34.56;442;03.29.26.072
12928;172758;34.56;443;03.29.26.072
12876;172760;34.56;444;03.29.26.072
12892;172755;34.56;445;03.29.26.072
12908;172763;34.56;446;03.29.26.072
12876;172756;34.56;447;03.29.26.072
12892;172753;34.56;448;03.29.26.072
12944;172753;34.56;449;03.29.26.072
12904;172747;34.56;450;03.29.26.193
12908;172742;34.56;451;03.29.26.193
12928;172736;34.56;452;03.29.26.193
12904;172730;34.56;453;03.29.26.193
12880;172728;34.56;454;03.29.26.193
12916;172721;34.56;455;03.29.26.193
12892;172722;34.56;456;03.29.26.193
12920;172718;34.56;457;03.29.26.193
12896;172708;34.56;458;03.29.26.193
12900;172709;34.56;459;03.29.26.193
12924;172704;34.56;460;03.29.26.204
12920;172691;34.56;461;03.29.26.204
12912;172687;34.56;462;03.29.26.204
12928;172687;34.56;463;03.29.26.204
12888;172684;34.56;464;03.29.26.204
12920;172678;34.56;465;03.29.26.204
12928;172676;34.56;466;03.29.26.204
12920;172671;34.56;467;03.29.26.204
12924;172669;34.56;468;03.29.26.204
12876;172658;34.56;469;03.29.26.204
12916;172658;34.56;470;03.29.26.204
12908;172652;34.56;471;03.29.26.204
12908;172651;34.56;472;03.29.26.204
12936;172650;34.56;473;03.29.26.215
12932;172641;34.56;474;03.29.26.215
12908;172644;34.56;475;03.29.26.333
12900;172645;34.56;476;03.29.26.333
12916;172641;34.56;477;03.29.26.333
12928;172641;34.56;478;03.29.26.344
12916;172631;34.56;479;03.29.26.344
12904;172640;34.56;480;03.29.26.344
12928;172635;34.56;481;03.29.26.344
12928;172633;34.56;482;03.29.26.344
12904;172635;34.56;483;03.29.26.344
12888;172630;34.56;484;03.29.26.344
12908;172631;34.56;485;03.29.26.344
12908;172625;34.56;486;03.29.26.344
12928;172632;34.56;487;03.29.26.344
12916;172630;34.56;488;03.29.26.344
12920;172623;34.56;489;03.29.26.344
12892;172624;34.56;490;03.29.26.344
12888;172616;34.56;491;03.29.26.345
12908;172611;34.56;492;03.29.26.369
12920;172624;34.56;493;03.29.26.369
12904;172621;34.56;494;03.29.26.369
12928;172617;34.56;495;03.29.26.369
12920;172623;34.56;496;03.29.26.369
12908;172616;34.56;497;03.29.26.369
12916;172611;34.56;498;03.29.26.369
12912;172615;34.56;499;03.29.26.370
12904;172621;34.52;500;03.29.26.436
12908;172613;34.52;501;03.29.26.436
12880;172617;34.52;502;03.29.26.436
12928;172619;34.52;503;03.29.26.436
12908;172613;34.52;504;03.29.26.436
12916;172613;34.52;505;03.29.26.436
12912;172618;34.52;506;03.29.26.447
12912;172620;34.52;507;03.29.26.447
12944;172620;34.52;508;03.29.26.447
12900;172622;34.52;509;03.29.26.447
12940;172622;34.52;510;03.29.26.447
12908;172621;34.52;511;03.29.26.447
12908;172624;34.52;512;03.29.26.447
12916;172617;34.52;513;03.29.26.458
12928;172627;34.52;514;03.29.26.458
12936;172625;34.52;515;03.29.26.458
12920;172625;34.52;516;03.29.26.458
12928;172634;34.52;517;03.29.26.469
12916;172635;34.52;518;03.29.26.469
12892;172639;34.52;519;03.29.26.469
12912;172629;34.52;520;03.29.26.469
12936;172643;34.52;521;03.29.26.469
12928;172642;34.52;522;03.29.26.469
12932;172640;34.52;523;03.29.26.480
12936;172634;34.52;524;03.29.26.480
12928;172640;34.52;525;03.29.26.557
12912;172638;34.52;526;03.29.26.557
12904;172646;34.52;527;03.29.26.568
12928;172649;34.52;528;03.29.26.568
12908;172650;34.52;529;03.29.26.568
12896;172650;34.52;530;03.29.26.568
12908;172656;34.52;531;03.29.26.568
12912;172656;34.52;532;03.29.26.568
12916;172660;34.52;533;03.29.26.568
12924;172670;34.52;534;03.29.26.568
12928;172669;34.52;535;03.29.26.568
12904;172676;34.52;536;03.29.26.568
12908;172675;34.52;537;03.29.26.568
12892;172675;34.52;538;03.29.26.568
12888;172690;34.52;539;03.29.26.568
12928;172690;34.52;540;03.29.26.579
12904;172693;34.52;541;03.29.26.579
12904;172695;34.52;542;03.29.26.579
12912;172702;34.52;543;03.29.26.579
12908;172697;34.52;544;03.29.26.579
12928;172716;34.52;545;03.29.26.579
12936;172716;34.52;546;03.29.26.579
12916;172717;34.52;547;03.29.26.579
12952;172719;34.52;548;03.29.26.579
12944;172718;34.52;549;03.29.26.579
12892;172720;34.56;550;03.29.26.688
12912;172727;34.56;551;03.29.26.688
12908;172727;34.56;552;03.29.26.688
12892;172729;34.56;553;03.29.26.688
12912;172727;34.56;554;03.29.26.688
12932;172737;34.56;555;03.29.26.688
12908;172729;34.56;556;03.29.26.688
12908;172734;34.56;557;03.29.26.688
12920;172732;34.56;558;03.29.26.688
12928;172725;34.56;559;03.29.26.688
12908;172736;34.56;560;03.29.26.688
12932;172737;34.56;561;03.29.26.699
12892;172739;34.56;562;03.29.26.699
12920;172729;34.56;563;03.29.26.699
12900;172734;34.56;564;03.29.26.699
12888;172728;34.56;565;03.29.26.699
12896;172717;34.56;566;03.29.26.699
12876;172714;34.56;567;03.29.26.699
12912;172721;34.56;568;03.29.26.699
12892;172719;34.56;569;03.29.26.699
12908;172720;34.56;570;03.29.26.699
12892;172719;34.56;571;03.29.26.699
12892;172722;34.56;572;03.29.26.699
12900;172717;34.56;573;03.29.26.699
12904;172720;34.56;574;03.29.26.710
12904;172718;34.56;575;03.29.26.820
12892;172718;34.56;576;03.29.26.820
12928;172718;34.56;577;03.29.26.820
12932;172716;34.56;578;03.29.26.820
12876;172715;34.56;579;03.29.26.820
12928;172714;34.56;580;03.29.26.820
12916;172712;34.56;581;03.29.26.820
12928;172714;34.56;582;03.29.26.831
12908;172722;34.56;583;03.29.26.831
12916;172703;34.56;584;03.29.26.831
12892;172716;34.56;585;03.29.26.831
12892;172712;34.56;586;03.29.26.831
12908;172710;34.56;587;03.29.26.831
12920;172707;34.56;588;03.29.26.831
12916;172711;34.56;589;03.29.26.831
12916;172713;34.56;590;03.29.26.831
12916;172719;34.56;591;03.29.26.831
12928;172727;34.56;592;03.29.26.831
12900;172727;34.56;593;03.29.26.831
12896;172733;34.56;594;03.29.26.831
12908;172729;34.56;595;03.29.26.831
12920;172733;34.56;596;03.29.26.842
12900;172741;34.56;597;03.29.26.842
12928;172735;34.56;598;03.29.26.842
12964;172742;34.56;599;03.29.26.842
12900;172740;34.56;600;03.29.26.930
12884;172748;34.56;601;03.29.26.930
12916;172743;34.56;602;03.29.26.930
12896;172744;34.56;603;03.29.26.930
12908;172756;34.56;604;03.29.26.941
12908;172745;34.56;605;03.29.26.941
12936;172755;34.56;606;03.29.26.941
12904;172749;34.56;607;03.29.26.941
12884;172743;34.56;608;03.29.26.941
12916;172750;34.56;609;03.29.26.941
12928;172746;34.56;610;03.29.26.941
12920;172740;34.56;611;03.29.26.952
12904;172735;34.56;612;03.29.26.952
12904;172739;34.56;613;03.29.26.952
12904;172737;34.56;614;03.29.26.952
12928;172734;34.56;615;03.29.26.952
12936;172734;34.56;616;03.29.26.952
12892;172727;34.56;617;03.29.26.952
12928;172721;34.56;618;03.29.26.952
12936;172723;34.56;619;03.29.26.952
12876;172719;34.56;620;03.29.26.952
12928;172716;34.56;621;03.29.26.952
12924;172706;34.56;622;03.29.26.952
12924;172699;34.56;623;03.29.26.952
12904;172699;34.56;624;03.29.26.962
12920;172696;34.56;625;03.29.27.061
12900;172698;34.56;626;03.29.27.061
12888;172687;34.56;627;03.29.27.061
12904;172683;34.56;628;03.29.27.061
12920;172679;34.56;629;03.29.27.061
12884;172673;34.56;630;03.29.27.061
12892;172674;34.56;631;03.29.27.061
12908;172674;34.56;632;03.29.27.061
12916;172669;34.56;633;03.29.27.061
12924;172667;34.56;634;03.29.27.061
12872;172665;34.56;635;03.29.27.061
12936;172654;34.56;636;03.29.27.061
12908;172659;34.56;637;03.29.27.072
12936;172655;34.56;638;03.29.27.072
12924;172654;34.56;639;03.29.27.072
12908;172659;34.56;640;03.29.27.072
12928;172656;34.56;641;03.29.27.072
12888;172665;34.56;642;03.29.27.072
12928;172663;34.56;643;03.29.27.072
12920;172660;34.56;644;03.29.27.072
12884;172666;34.56;645;03.29.27.072
12888;172656;34.56;646;03.29.27.072
12892;172653;34.56;647;03.29.27.072
12892;172659;34.56;648;03.29.27.072
12936;172656;34.56;649;03.29.27.072
12904;172656;34.52;650;03.29.27.182
12908;172652;34.52;651;03.29.27.182
12904;172657;34.52;652;03.29.27.182
12904;172655;34.52;653;03.29.27.182
12920;172655;34.52;654;03.29.27.182
12904;172663;34.52;655;03.29.27.182
12912;172653;34.52;656;03.29.27.182
12928;172659;34.52;657;03.29.27.182
12908;172662;34.52;658;03.29.27.193
12904;172665;34.52;659;03.29.27.193
12920;172658;34.52;660;03.29.27.193
12912;172653;34.52;661;03.29.27.193
12928;172663;34.52;662;03.29.27.193
12888;172657;34.52;663;03.29.27.193
12916;172659;34.52;664;03.29.27.193
12916;172659;34.52;665;03.29.27.193
12908;172654;34.52;666;03.29.27.193
12904;172660;34.52;667;03.29.27.193
12932;172651;34.52;668;03.29.27.193
12924;172651;34.52;669;03.29.27.193
12924;172651;34.52;670;03.29.27.193
12916;172654;34.52;671;03.29.27.193
12912;172658;34.52;672;03.29.27.203
12908;172653;34.52;673;03.29.27.203
12920;172657;34.52;674;03.29.27.203
12884;172659;34.52;675;03.29.27.313
12936;172669;34.52;676;03.29.27.313
12912;172655;34.52;677;03.29.27.313
12896;172647;34.52;678;03.29.27.313
12900;172654;34.52;679;03.29.27.324
12900;172655;34.52;680;03.29.27.324
12892;172644;34.52;681;03.29.27.324
12912;172649;34.52;682;03.29.27.324
12892;172644;34.52;683;03.29.27.324
12908;172641;34.52;684;03.29.27.324
12888;172641;34.52;685;03.29.27.324
12908;172645;34.52;686;03.29.27.324
12920;172646;34.52;687;03.29.27.324
12928;172647;34.52;688;03.29.27.324
12944;172635;34.52;689;03.29.27.324
12888;172635;34.52;690;03.29.27.324
12916;172636;34.52;691;03.29.27.324
12892;172644;34.52;692;03.29.27.335
12928;172639;34.52;693;03.29.27.335
12912;172644;34.52;694;03.29.27.335
12912;172646;34.52;695;03.29.27.335
12892;172651;34.52;696;03.29.27.335
12908;172651;34.52;697;03.29.27.335
12896;172648;34.52;698;03.29.27.335
12920;172653;34.52;699;03.29.27.335
12904;172658;34.52;700;03.29.27.466
12928;172656;34.52;701;03.29.27.466
12928;172651;34.52;702;03.29.27.466
12888;172654;34.52;703;03.29.27.466
12904;172657;34.52;704;03.29.27.466
12928;172656;34.52;705;03.29.27.466
12912;172658;34.52;706;03.29.27.466
12908;172650;34.52;707;03.29.27.466
12904;172671;34.52;708;03.29.27.466
12916;172667;34.52;709;03.29.27.466
12916;172664;34.52;710;03.29.27.466
12936;172663;34.52;711;03.29.27.466
12880;172672;34.52;712;03.29.27.466
12932;172673;34.52;713;03.29.27.477
12960;172676;34.52;714;03.29.27.477
12912;172676;34.52;715;03.29.27.477
12924;172678;34.52;716;03.29.27.477
12908;172680;34.52;717;03.29.27.477
12908;172680;34.52;718;03.29.27.477
12928;172686;34.52;719;03.29.27.477
12912;172685;34.52;720;03.29.27.477
12924;172681;34.52;721;03.29.27.477
12924;172690;34.52;722;03.29.27.477
12928;172686;34.52;723;03.29.27.477
12932;172696;34.52;724;03.29.27.477
12936;172702;34.52;725;03.29.27.565
12904;172703;34.52;726;03.29.27.565
12932;172701;34.52;727;03.29.27.565
12892;172703;34.52;728;03.29.27.565
12912;172707;34.52;729;03.29.27.565
12876;172709;34.52;730;03.29.27.565
12912;172712;34.52;731;03.29.27.565
12936;172713;34.52;732;03.29.27.565
12900;172720;34.52;733;03.29.27.576
12928;172713;34.52;734;03.29.27.576
12960;172708;34.52;735;03.29.27.576
12912;172716;34.52;736;03.29.27.576
12900;172709;34.52;737;03.29.27.576
12924;172709;34.52;738;03.29.27.576
12900;172721;34.52;739;03.29.27.576
12912;172715;34.52;740;03.29.27.576
12928;172717;34.52;741;03.29.27.576
12932;172721;34.52;742;03.29.27.609
12912;172718;34.52;743;03.29.27.609
12896;172726;34.52;744;03.29.27.609
12888;172730;34.52;745;03.29.27.609
12896;172726;34.52;746;03.29.27.609
12920;172727;34.52;747;03.29.27.609
12892;172729;34.52;748;03.29.27.609
12932;172729;34.52;749;03.29.27.609
12928;172733;34.56;750;03.29.27.685
12928;172732;34.56;751;03.29.27.685
12900;172732;34.56;752;03.29.27.685
12928;172731;34.56;753;03.29.27.685
12908;172739;34.56;754;03.29.27.685
12944;172740;34.56;755;03.29.27.685
12936;172741;34.56;756;03.29.27.696
12900;172742;34.56;757;03.29.27.696
12912;172740;34.56;758;03.29.27.696
12892;172740;34.56;759;03.29.27.696
12900;172744;34.56;760;03.29.27.696
12904;172746;34.56;761;03.29.27.696
12904;172748;34.56;762;03.29.27.696
12928;172746;34.56;763;03.29.27.696
12912;172749;34.56;764;03.29.27.696
12880;172745;34.56;765;03.29.27.696
12936;172751;34.56;766;03.29.27.696
12920;172755;34.56;767;03.29.27.696
12920;172754;34.56;768;03.29.27.696
12924;172749;34.56;769;03.29.27.707
12896;172734;34.56;770;03.29.27.707
12904;172751;34.56;771;03.29.27.707
12928;172746;34.56;772;03.29.27.707
12936;172740;34.56;773;03.29.27.707
12940;172732;34.56;774;03.29.27.707
12920;172734;34.56;775;03.29.27.806
12900;172726;34.56;776;03.29.27.806
12928;172729;34.56;777;03.29.27.817
12912;172736;34.56;778;03.29.27.817
12928;172714;34.56;779;03.29.27.817
12932;172711;34.56;780;03.29.27.817
12924;172710;34.56;781;03.29.27.817
12912;172701;34.56;782;03.29.27.817
12916;172700;34.56;783;03.29.27.817
12928;172696;34.56;784;03.29.27.817
12924;172690;34.56;785;03.29.27.817
12928;172692;34.56;786;03.29.27.817
12928;172678;34.56;787;03.29.27.817
12912;172679;34.56;788;03.29.27.817
12904;172673;34.56;789;03.29.27.817
12908;172670;34.56;790;03.29.27.828
12904;172661;34.56;791;03.29.27.828
12892;172667;34.56;792;03.29.27.828
12936;172661;34.56;793;03.29.27.828
12900;172662;34.56;794;03.29.27.828
12900;172659;34.56;795;03.29.27.828
12876;172668;34.56;796;03.29.27.828
12908;172674;34.56;797;03.29.27.828
12900;172673;34.56;798;03.29.27.828
12928;172667;34.56;799;03.29.27.828
12872;172668;34.56;800;03.29.27.949
12908;172665;34.56;801;03.29.27.949
12884;172657;34.56;802;03.29.27.949
12908;172661;34.56;803;03.29.27.949
12960;172662;34.56;804;03.29.27.949
12920;172661;34.56;805;03.29.27.949
12888;172667;34.56;806;03.29.27.949
12916;172665;34.56;807;03.29.27.949
12904;172662;34.56;808;03.29.27.949
12892;172658;34.56;809;03.29.27.949
12932;172667;34.56;810;03.29.27.949
12900;172657;34.56;811;03.29.27.960
12936;172669;34.56;812;03.29.27.960
12912;172664;34.56;813;03.29.27.960
12908;172664;34.56;814;03.29.27.960
12900;172675;34.56;815;03.29.27.960
12912;172678;34.56;816;03.29.27.960
12908;172663;34.56;817;03.29.27.960
12908;172680;34.56;818;03.29.27.960
12900;172676;34.56;819;03.29.27.960
12928;172668;34.56;820;03.29.27.960
12920;172680;34.56;821;03.29.27.960
12884;172684;34.56;822;03.29.27.960
12924;172671;34.56;823;03.29.27.960
12936;172675;34.56;824;03.29.27.971
12904;172675;34.56;825;03.29.28.058
12920;172686;34.56;826;03.29.28.058
12928;172671;34.56;827;03.29.28.058
12892;172680;34.56;828;03.29.28.058
12892;172678;34.56;829;03.29.28.058
12912;172688;34.56;830;03.29.28.058
12916;172675;34.56;831;03.29.28.058
12916;172670;34.56;832;03.29.28.058
12924;172679;34.56;833;03.29.28.091
12908;172678;34.56;834;03.29.28.091
12888;172669;34.56;835;03.29.28.091
12900;172675;34.56;836;03.29.28.091
12916;172664;34.56;837;03.29.28.091
12944;172660;34.56;838;03.29.28.091
12920;172672;34.56;839;03.29.28.091
12924;172667;34.56;840;03.29.28.091
12908;172668;34.56;841;03.29.28.091
12928;172668;34.56;842;03.29.28.102
12900;172675;34.56;843;03.29.28.102
12932;172664;34.56;844;03.29.28.102
12928;172675;34.56;845;03.29.28.102
12920;172673;34.56;846;03.29.28.102
12944;172665;34.56;847;03.29.28.102
12904;172671;34.56;848;03.29.28.102
12944;172677;34.56;849;03.29.28.102
12900;172663;34.52;850;03.29.28.179
12916;172674;34.52;851;03.29.28.179
12900;172672;34.52;852;03.29.28.179
12900;172670;34.52;853;03.29.28.179
12908;172673;34.52;854;03.29.28.190
12892;172672;34.52;855;03.29.28.190
12944;172671;34.52;856;03.29.28.190
12940;172670;34.52;857;03.29.28.190
12908;172676;34.52;858;03.29.28.190
12896;172674;34.52;859;03.29.28.190
12892;172680;34.52;860;03.29.28.190
12908;172676;34.52;861;03.29.28.190
12944;172668;34.52;862;03.29.28.201
12892;172673;34.52;863;03.29.28.201
12928;172681;34.52;864;03.29.28.201
12936;172669;34.52;865;03.29.28.201
12924;172682;34.52;866;03.29.28.201
12912;172681;34.52;867;03.29.28.201
12928;172683;34.52;868;03.29.28.201
12900;172678;34.52;869;03.29.28.201
12920;172682;34.52;870;03.29.28.201
12916;172681;34.52;871;03.29.28.201
12908;172687;34.52;872;03.29.28.201
12900;172690;34.52;873;03.29.28.201
12904;172680;34.52;874;03.29.28.201
12928;172688;34.52;875;03.29.28.321
12932;172684;34.52;876;03.29.28.321
12908;172680;34.52;877;03.29.28.321
12916;172694;34.52;878;03.29.28.321
12872;172680;34.52;879;03.29.28.321
12912;172692;34.52;880;03.29.28.321
12928;172697;34.52;881;03.29.28.321
12940;172699;34.52;882;03.29.28.321
12920;172694;34.52;883;03.29.28.321
12900;172694;34.52;884;03.29.28.321
12912;172695;34.52;885;03.29.28.321
12912;172698;34.52;886;03.29.28.321
12920;172696;34.52;887;03.29.28.332
12884;172706;34.52;888;03.29.28.332
12884;172704;34.52;889;03.29.28.332
12884;172711;34.52;890;03.29.28.332
12892;172703;34.52;891;03.29.28.332
12904;172700;34.52;892;03.29.28.332
12932;172708;34.52;893;03.29.28.332
12920;172712;34.52;894;03.29.28.332
12920;172711;34.52;895;03.29.28.332
12860;172720;34.52;896;03.29.28.332
12932;172705;34.52;897;03.29.28.332
12916;172713;34.52;898;03.29.28.332
12928;172709;34.52;899;03.29.28.332
12892;172709;34.52;900;03.29.28.441
12892;172715;34.52;901;03.29.28.441
12924;172721;34.52;902;03.29.28.441
12892;172724;34.52;903;03.29.28.441
12896;172719;34.52;904;03.29.28.441
12912;172715;34.52;905;03.29.28.441
12924;172719;34.52;906;03.29.28.441
12904;172730;34.52;907;03.29.28.441
12904;172719;34.52;908;03.29.28.441
12912;172720;34.52;909;03.29.28.453
12920;172722;34.52;910;03.29.28.453
12944;172733;34.52;911;03.29.28.453
12928;172723;34.52;912;03.29.28.453
12936;172740;34.52;913;03.29.28.453
12916;172734;34.52;914;03.29.28.453
12920;172737;34.52;915;03.29.28.453
12920;172737;34.52;916;03.29.28.453
12912;172741;34.52;917;03.29.28.453
12888;172746;34.52;918;03.29.28.453
12904;172744;34.52;919;03.29.28.453
12936;172740;34.52;920;03.29.28.453
12912;172742;34.52;921;03.29.28.453
12932;172750;34.52;922;03.29.28.453
12920;172739;34.52;923;03.29.28.464
12928;172742;34.52;924;03.29.28.464
12912;172744;34.52;925;03.29.28.584
12928;172731;34.52;926;03.29.28.584
12920;172727;34.52;927;03.29.28.584
12920;172724;34.52;928;03.29.28.584
12928;172721;34.52;929;03.29.28.595
12912;172716;34.52;930;03.29.28.595
12916;172715;34.52;931;03.29.28.595
12908;172712;34.52;932;03.29.28.595
12904;172702;34.52;933;03.29.28.595
12920;172694;34.52;934;03.29.28.595
12892;172696;34.52;935;03.29.28.595
12888;172688;34.52;936;03.29.28.595
12936;172692;34.52;937;03.29.28.595
12912;172691;34.52;938;03.29.28.595
12908;172684;34.52;939;03.29.28.595
12912;172678;34.52;940;03.29.28.595
12904;172672;34.52;941;03.29.28.595
12900;172670;34.52;942;03.29.28.595
12892;172664;34.52;943;03.29.28.606
12936;172661;34.52;944;03.29.28.606
12904;172661;34.52;945;03.29.28.606
12892;172657;34.52;946;03.29.28.606
12916;172646;34.52;947;03.29.28.606
12912;172650;34.52;948;03.29.28.606
12916;172653;34.52;949;03.29.28.606
12924;172650;34.56;950;03.29.28.693
12892;172657;34.56;951;03.29.28.704
12920;172655;34.56;952;03.29.28.704
12892;172649;34.56;953;03.29.28.704
12928;172650;34.56;954;03.29.28.704
12904;172647;34.56;955;03.29.28.704
12928;172645;34.56;956;03.29.28.704
12912;172647;34.56;957;03.29.28.704
12916;172647;34.56;958;03.29.28.726
12900;172648;34.56;959;03.29.28.726
12900;172645;34.56;960;03.29.28.726
12912;172647;34.56;961;03.29.28.726
12888;172648;34.56;962;03.29.28.726
12916;172651;34.56;963;03.29.28.726
12908;172642;34.56;964;03.29.28.726
12892;172642;34.56;965;03.29.28.726
12928;172644;34.56;966;03.29.28.726
12904;172643;34.56;967;03.29.28.726
12892;172651;34.56;968;03.29.28.726
12928;172644;34.56;969;03.29.28.726
12912;172647;34.56;970;03.29.28.726
12908;172647;34.56;971;03.29.28.737
12916;172645;34.56;972;03.29.28.737
12908;172644;34.56;973;03.29.28.737
12944;172650;34.56;974;03.29.28.737
12900;172652;34.56;975;03.29.28.813
12924;172652;34.56;976;03.29.28.813
12888;172645;34.56;977;03.29.28.813
12900;172653;34.56;978;03.29.28.813
12932;172645;34.56;979;03.29.28.813
12904;172651;34.56;980;03.29.28.813
12924;172649;34.56;981;03.29.28.813
12908;172653;34.56;982;03.29.28.813
12900;172645;34.56;983;03.29.28.813
12908;172653;34.56;984;03.29.28.824
12912;172648;34.56;985;03.29.28.824
12900;172652;34.56;986;03.29.28.824
12908;172647;34.56;987;03.29.28.824
12908;172648;34.56;988;03.29.28.824
12916;172643;34.56;989;03.29.28.824
12920;172657;34.56;990;03.29.28.824
12888;172646;34.56;991;03.29.28.824
12920;172649;34.56;992;03.29.28.835
12920;172646;34.56;993;03.29.28.835
12900;172645;34.56;994;03.29.28.835
12880;172641;34.56;995;03.29.28.835
12928;172637;34.56;996;03.29.28.835
12932;172637;34.56;997;03.29.28.835
12916;172640;34.56;998;03.29.28.835
12944;172641;34.56;999;03.29.28.835
12916;172642;34.56;000;03.29.28.945
12924;172644;34.56;001;03.29.28.945
12944;172645;34.56;002;03.29.28.945
12916;172644;34.56;003;03.29.28.945
12928;172640;34.56;004;03.29.28.945
12928;172647;34.56;005;03.29.28.956
12924;172655;34.56;006;03.29.28.956
12908;172651;34.56;007;03.29.28.956
12920;172647;34.56;008;03.29.28.956
12900;172652;34.56;009;03.29.28.956
12928;172648;34.56;010;03.29.28.956
12904;172653;34.56;011;03.29.28.956
12916;172655;34.56;012;03.29.28.956
12904;172643;34.56;013;03.29.28.956
12916;172655;34.56;014;03.29.28.967
12904;172650;34.56;015;03.29.28.967
12912;172657;34.56;016;03.29.28.967
12900;172655;34.56;017;03.29.28.967
12884;172657;34.56;018;03.29.28.967
12944;172655;34.56;019;03.29.28.967
12912;172670;34.56;020;03.29.28.967
12912;172662;34.56;021;03.29.28.967
12908;172666;34.56;022;03.29.28.978
12872;172669;34.56;023;03.29.28.978
12940;172667;34.56;024;03.29.28.978
12944;172667;34.56;025;03.29.29.087
12932;172665;34.56;026;03.29.29.087
12944;172676;34.56;027;03.29.29.087
12928;172671;34.56;028;03.29.29.087
12924;172667;34.56;029;03.29.29.087
12924;172668;34.56;030;03.29.29.087
12920;172676;34.56;031;03.29.29.087
12908;172670;34.56;032;03.29.29.087
12916;172676;34.56;033;03.29.29.087
12920;172674;34.56;034;03.29.29.098
12904;172684;34.56;035;03.29.29.098
12888;172672;34.56;036;03.29.29.098
12920;172681;34.56;037;03.29.29.098
12916;172681;34.56;038;03.29.29.098
12908;172679;34.56;039;03.29.29.098
12920;172675;34.56;040;03.29.29.098
12928;172678;34.56;041;03.29.29.098
12908;172680;34.56;042;03.29.29.098
12888;172680;34.56;043;03.29.29.098
12928;172683;34.56;044;03.29.29.098
12892;172693;34.56;045;03.29.29.098
12948;172688;34.56;046;03.29.29.098
12920;172686;34.56;047;03.29.29.109
12928;172678;34.56;048;03.29.29.109
12928;172681;34.56;049;03.29.29.109
12908;172691;34.56;050;03.29.29.185
12904;172691;34.56;051;03.29.29.185
12908;172683;34.56;052;03.29.29.185
12924;172697;34.56;053;03.29.29.185
12904;172694;34.56;054;03.29.29.185
12908;172701;34.56;055;03.29.29.185
12908;172693;34.56;056;03.29.29.185
12908;172705;34.56;057;03.29.29.185
12908;172702;34.56;058;03.29.29.196
12924;172697;34.56;059;03.29.29.196
12884;172708;34.56;060;03.29.29.196
12892;172703;34.56;061;03.29.29.196
12920;172697;34.56;062;03.29.29.196
12904;172705;34.56;063;03.29.29.196
12920;172706;34.56;064;03.29.29.196
12912;172704;34.56;065;03.29.29.196
12928;172704;34.56;066;03.29.29.196
12904;172704;34.56;067;03.29.29.218
12928;172705;34.56;068;03.29.29.218
12928;172708;34.56;069;03.29.29.218
12916;172707;34.56;070;03.29.29.218
12928;172709;34.56;071;03.29.29.218
12920;172712;34.56;072;03.29.29.218
12928;172709;34.56;073;03.29.29.218
12928;172713;34.56;074;03.29.29.218
12908;172710;34.56;075;03.29.29.306
12928;172709;34.56;076;03.29.29.306
12884;172706;34.56;077;03.29.29.306
12920;172708;34.56;078;03.29.29.306
12928;172706;34.56;079;03.29.29.306
12892;172700;34.56;080;03.29.29.306
12924;172704;34.56;081;03.29.29.317
12928;172696;34.56;082;03.29.29.317
12916;172698;34.56;083;03.29.29.317
12940;172685;34.56;084;03.29.29.317
12908;172693;34.56;085;03.29.29.317
12892;172683;34.56;086;03.29.29.317
12928;172683;34.56;087;03.29.29.317
12924;172679;34.56;088;03.29.29.317
12916;172672;34.56;089;03.29.29.317
12920;172664;34.56;090;03.29.29.317
12920;172655;34.56;091;03.29.29.317
12936;172657;34.56;092;03.29.29.317
12908;172655;34.56;093;03.29.29.317
12920;172648;34.56;094;03.29.29.317
12908;172640;34.56;095;03.29.29.328
12928;172637;34.56;096;03.29.29.328
12936;172637;34.56;097;03.29.29.328
12912;172637;34.56;098;03.29.29.328
12928;172633;34.56;099;03.29.29.328
12936;172625;34.56;100;03.29.29.449
12904;172627;34.56;101;03.29.29.449
12940;172627;34.56;102;03.29.29.460
12928;172639;34.56;103;03.29.29.460
12900;172634;34.56;104;03.29.29.460
12960;172630;34.56;105;03.29.29.460
12924;172627;34.56;106;03.29.29.460
12912;172629;34.56;107;03.29.29.460
12908;172628;34.56;108;03.29.29.460
12908;172618;34.56;109;03.29.29.460
12900;172624;34.56;110;03.29.29.460
12900;172622;34.56;111;03.29.29.460
12892;172624;34.56;112;03.29.29.460
12928;172629;34.56;113;03.29.29.460
12924;172620;34.56;114;03.29.29.460
12912;172624;34.56;115;03.29.29.471
12908;172625;34.56;116;03.29.29.471
12892;172623;34.56;117;03.29.29.482
12924;172628;34.56;118;03.29.29.482
12888;172630;34.56;119;03.29.29.482
12904;172628;34.56;120;03.29.29.493
12896;172634;34.56;121;03.29.29.493
12912;172633;34.56;122;03.29.29.493
12900;172632;34.56;123;03.29.29.493
12948;172639;34.56;124;03.29.29.493
12900;172636;34.56;125;03.29.29.580
12920;172638;34.56;126;03.29.29.580
12924;172630;34.56;127;03.29.29.580
12908;172633;34.56;128;03.29.29.580
12944;172632;34.56;129;03.29.29.580
12888;172629;34.56;130;03.29.29.580
12912;172631;34.56;131;03.29.29.580
12904;172639;34.56;132;03.29.29.580
12920;172634;34.56;133;03.29.29.591
12924;172631;34.56;134;03.29.29.591
12912;172630;34.56;135;03.29.29.591
12948;172627;34.56;136;03.29.29.591
12916;172622;34.56;137;03.29.29.591
12912;172637;34.56;138;03.29.29.591
12912;172636;34.56;139;03.29.29.591
12928;172631;34.56;140;03.29.29.591
12920;172635;34.56;141;03.29.29.591
12928;172636;34.56;142;03.29.29.591
12916;172634;34.56;143;03.29.29.591
12888;172635;34.56;144;03.29.29.591
12900;172634;34.56;145;03.29.29.602
12912;172636;34.56;146;03.29.29.602
12928;172631;34.56;147;03.29.29.602
12936;172635;34.56;148;03.29.29.602
12956;172624;34.56;149;03.29.29.602
12908;172630;34.52;150;03.29.29.690
12892;172630;34.52;151;03.29.29.690
12904;172631;34.52;152;03.29.29.690
12928;172627;34.52;153;03.29.29.690
12928;172630;34.52;154;03.29.29.690
12884;172630;34.52;155;03.29.29.690
12928;172621;34.52;156;03.29.29.690
12936;172621;34.52;157;03.29.29.690
12892;172632;34.52;158;03.29.29.712
12932;172629;34.52;159;03.29.29.712
12892;172631;34.52;160;03.29.29.712
12944;172636;34.52;161;03.29.29.712
12936;172633;34.52;162;03.29.29.712
12892;172627;34.52;163;03.29.29.712
12908;172632;34.52;164;03.29.29.712
12932;172627;34.52;165;03.29.29.712
12916;172632;34.52;166;03.29.29.712
12888;172632;34.52;167;03.29.29.712
12912;172633;34.52;168;03.29.29.723
12884;172628;34.52;169;03.29.29.723
12904;172634;34.52;170;03.29.29.723
12888;172636;34.52;171;03.29.29.723
12908;172622;34.52;172;03.29.29.723
12900;172628;34.52;173;03.29.29.723
12932;172628;34.52;174;03.29.29.723
12924;172638;34.52;175;03.29.29.810
12892;172637;34.52;176;03.29.29.810
12940;172639;34.52;177;03.29.29.810
12900;172637;34.52;178;03.29.29.810
12912;172639;34.52;179;03.29.29.821
12920;172631;34.52;180;03.29.29.821
12904;172638;34.52;181;03.29.29.821
12928;172635;34.52;182;03.29.29.821
12936;172643;34.52;183;03.29.29.821
12928;172638;34.52;184;03.29.29.821
12920;172640;34.52;185;03.29.29.821
12928;172648;34.52;186;03.29.29.821
12920;172658;34.52;187;03.29.29.821
12936;172643;34.52;188;03.29.29.832
12908;172655;34.52;189;03.29.29.832
12908;172652;34.52;190;03.29.29.832
12912;172663;34.52;191;03.29.29.832
12916;172661;34.52;192;03.29.29.854
12928;172660;34.52;193;03.29.29.854
12940;172670;34.52;194;03.29.29.854
12928;172658;34.52;195;03.29.29.865
12932;172658;34.52;196;03.29.29.865
12924;172666;34.52;197;03.29.29.865
12900;172669;34.52;198;03.29.29.865
12936;172669;34.52;199;03.29.29.865
12932;172670;34.56;200;03.29.29.952
12924;172673;34.56;201;03.29.29.952
12908;172670;34.56;202;03.29.29.952
12916;172676;34.56;203;03.29.29.952
12932;172666;34.56;204;03.29.29.952
12924;172678;34.56;205;03.29.29.952
12916;172687;34.56;206;03.29.29.952
12904;172681;34.56;207;03.29.29.952
12908;172687;34.56;208;03.29.29.952
12928;172683;34.56;209;03.29.29.952
12916;172686;34.56;210;03.29.29.952
12924;172695;34.56;211;03.29.29.952
12892;172690;34.56;212;03.29.29.963
12892;172691;34.56;213;03.29.29.963
12928;172691;34.56;214;03.29.29.963
12892;172693;34.56;215;03.29.29.963
12928;172690;34.56;216;03.29.29.963
12932;172700;34.56;217;03.29.29.963
12928;172704;34.56;218;03.29.29.963
12944;172703;34.56;219;03.29.29.963
12916;172698;34.56;220;03.29.29.963
12924;172696;34.56;221;03.29.29.963
12896;172703;34.56;222;03.29.29.963
12928;172713;34.56;223;03.29.29.963
12928;172705;34.56;224;03.29.29.963
12920;172698;34.56;225;03.29.30.083
12892;172706;34.56;226;03.29.30.083
12892;172709;34.56;227;03.29.30.083
12896;172709;34.56;228;03.29.30.083
12920;172710;34.56;229;03.29.30.083
12892;172707;34.56;230;03.29.30.083
12932;172712;34.56;231;03.29.30.083
12920;172713;34.56;232;03.29.30.083
12900;172714;34.56;233;03.29.30.094
12904;172706;34.56;234;03.29.30.094
12916;172715;34.56;235;03.29.30.094
12884;172711;34.56;236;03.29.30.094
12916;172710;34.56;237;03.29.30.094
12912;172696;34.56;238;03.29.30.094
12936;172698;34.56;239;03.29.30.094
12900;172701;34.56;240;03.29.30.094
12892;172691;34.56;241;03.29.30.094
12912;172687;34.56;242;03.29.30.094
12916;172677;34.56;243;03.29.30.094
12896;172678;34.56;244;03.29.30.094
12900;172668;34.56;245;03.29.30.105
12928;172662;34.56;246;03.29.30.105
12916;172664;34.56;247;03.29.30.105
12904;172670;34.56;248;03.29.30.105
12924;172652;34.56;249;03.29.30.105
12928;172652;34.56;250;03.29.30.204
12928;172654;34.56;251;03.29.30.204
12904;172633;34.56;252;03.29.30.204
12928;172638;34.56;253;03.29.30.204
12904;172645;34.56;254;03.29.30.215
12924;172628;34.56;255;03.29.30.215
12912;172638;34.56;256;03.29.30.215
12916;172625;34.56;257;03.29.30.215
12912;172626;34.56;258;03.29.30.215
12896;172635;34.56;259;03.29.30.215
12928;172631;34.56;260;03.29.30.215
12932;172624;34.56;261;03.29.30.215
12916;172635;34.56;262;03.29.30.215
12932;172639;34.56;263;03.29.30.215
12916;172636;34.56;264;03.29.30.215
12920;172626;34.56;265;03.29.30.215
12908;172635;34.56;266;03.29.30.215
12908;172636;34.56;267;03.29.30.226
12920;172635;34.56;268;03.29.30.226
12924;172639;34.56;269;03.29.30.226
12916;172640;34.56;270;03.29.30.226
12900;172644;34.56;271;03.29.30.226
12940;172643;34.56;272;03.29.30.226
12924;172646;34.56;273;03.29.30.226
12936;172641;34.56;274;03.29.30.226
12944;172644;34.56;275;03.29.30.302
12920;172639;34.56;276;03.29.30.313
12928;172646;34.56;277;03.29.30.313
12892;172644;34.56;278;03.29.30.313
12928;172651;34.56;279;03.29.30.313
12892;172655;34.56;280;03.29.30.313
12948;172661;34.56;281;03.29.30.313
12920;172656;34.56;282;03.29.30.313
12916;172671;34.56;283;03.29.30.313
12892;172676;34.56;284;03.29.30.313
12904;172668;34.56;285;03.29.30.324
12920;172681;34.56;286;03.29.30.324
12928;172681;34.56;287;03.29.30.324
12904;172688;34.56;288;03.29.30.324
12932;172685;34.56;289;03.29.30.324
12912;172688;34.56;290;03.29.30.324
12904;172695;34.56;291;03.29.30.324
12928;172691;34.56;292;03.29.30.335
12912;172695;34.56;293;03.29.30.346
12916;172697;34.56;294;03.29.30.346
12920;172691;34.56;295;03.29.30.346
12912;172698;34.56;296;03.29.30.346
12904;172700;34.56;297;03.29.30.346
12936;172705;34.56;298;03.29.30.346
12948;172716;34.56;299;03.29.30.346
12916;172719;34.56;300;03.29.30.433
12908;172722;34.56;301;03.29.30.433
12908;172716;34.56;302;03.29.30.433
12928;172723;34.56;303;03.29.30.433
12928;172730;34.56;304;03.29.30.433
12912;172721;34.56;305;03.29.30.433
12904;172729;34.56;306;03.29.30.433
12944;172736;34.56;307;03.29.30.433
12936;172736;34.56;308;03.29.30.433
12940;172737;34.56;309;03.29.30.433
12928;172729;34.56;310;03.29.30.444
12928;172742;34.56;311;03.29.30.444
12928;172743;34.56;312;03.29.30.444
12912;172741;34.56;313;03.29.30.444
12912;172749;34.56;314;03.29.30.444
12920;172748;34.56;315;03.29.30.444
12928;172745;34.56;316;03.29.30.444
12924;172741;34.56;317;03.29.30.444
12924;172743;34.56;318;03.29.30.444
12920;172753;34.56;319;03.29.30.444
12908;172751;34.56;320;03.29.30.444
12908;172758;34.56;321;03.29.30.444
12944;172760;34.56;322;03.29.30.455
12916;172760;34.56;323;03.29.30.455
12944;172751;34.56;324;03.29.30.455
12908;172760;34.56;325;03.29.30.565
12908;172761;34.56;326;03.29.30.565
12936;172758;34.56;327;03.29.30.565
12920;172762;34.56;328;03.29.30.565
12916;172760;34.56;329;03.29.30.565
12940;172760;34.56;330;03.29.30.565
12916;172755;34.56;331;03.29.30.576
12916;172754;34.56;332;03.29.30.576
12936;172752;34.56;333;03.29.30.576
12912;172749;34.56;334;03.29.30.576
12960;172746;34.56;335;03.29.30.576
12904;172743;34.56;336;03.29.30.576
12924;172742;34.56;337;03.29.30.576
12920;172732;34.56;338;03.29.30.576
12900;172739;34.56;339;03.29.30.576
12928;172727;34.56;340;03.29.30.576
12876;172727;34.56;341;03.29.30.576
12900;172722;34.56;342;03.29.30.576
12912;172727;34.56;343;03.29.30.576
12904;172720;34.56;344;03.29.30.587
12916;172721;34.56;345;03.29.30.587
12924;172726;34.56;346;03.29.30.587
12916;172729;34.56;347;03.29.30.587
12936;172720;34.56;348;03.29.30.587
12928;172711;34.56;349;03.29.30.587
12928;172710;34.56;350;03.29.30.696
12916;172708;34.56;351;03.29.30.707
12924;172707;34.56;352;03.29.30.707
12928;172703;34.56;353;03.29.30.707
12936;172714;34.56;354;03.29.30.707
12904;172700;34.56;355;03.29.30.707
12892;172708;34.56;356;03.29.30.707
12944;172706;34.56;357;03.29.30.707
12904;172708;34.56;358;03.29.30.707
12928;172706;34.56;359;03.29.30.707
12908;172706;34.56;360;03.29.30.707
12924;172709;34.56;361;03.29.30.707
12928;172704;34.56;362;03.29.30.707
12908;172708;34.56;363;03.29.30.707
12892;172706;34.56;364;03.29.30.718
12900;172711;34.56;365;03.29.30.718
12936;172703;34.56;366;03.29.30.718
12924;172711;34.56;367;03.29.30.718
12884;172712;34.56;368;03.29.30.718
12940;172718;34.56;369;03.29.30.718
12928;172725;34.56;370;03.29.30.718
12944;172710;34.56;371;03.29.30.718
12916;172716;34.56;372;03.29.30.718
12928;172715;34.56;373;03.29.30.718
12920;172716;34.56;374;03.29.30.718
12892;172719;34.56;375;03.29.30.817
12916;172724;34.56;376;03.29.30.817
12900;172727;34.56;377;03.29.30.817
12912;172723;34.56;378;03.29.30.817
12892;172724;34.56;379;03.29.30.817
12912;172721;34.56;380;03.29.30.817
12904;172727;34.56;381;03.29.30.817
12924;172730;34.56;382;03.29.30.817
12896;172732;34.56;383;03.29.30.828
12892;172734;34.56;384;03.29.30.828
12928;172728;34.56;385;03.29.30.828
12944;172720;34.56;386;03.29.30.828
12916;172717;34.56;387;03.29.30.828
12916;172724;34.56;388;03.29.30.828
12900;172718;34.56;389;03.29.30.828
12932;172713;34.56;390;03.29.30.828
12904;172713;34.56;391;03.29.30.828
12940;172707;34.56;392;03.29.30.839
12944;172708;34.56;393;03.29.30.839
12920;172698;34.56;394;03.29.30.839
12924;172698;34.56;395;03.29.30.839
12944;172694;34.56;396;03.29.30.839
12896;172703;34.56;397;03.29.30.839
12912;172695;34.56;398;03.29.30.839
12928;172686;34.56;399;03.29.30.839
12908;172680;34.56;400;03.29.30.949
12896;172684;34.56;401;03.29.30.949
12924;172683;34.56;402;03.29.30.949
12928;172672;34.56;403;03.29.30.949
12900;172671;34.56;404;03.29.30.949
12928;172671;34.56;405;03.29.30.949
12928;172664;34.56;406;03.29.30.949
12916;172656;34.56;407;03.29.30.960
12880;172657;34.56;408;03.29.30.982
12904;172658;34.56;409;03.29.30.982
12908;172660;34.56;410;03.29.30.982
12924;172654;34.56;411;03.29.30.982
12908;172649;34.56;412;03.29.30.982
12892;172654;34.56;413;03.29.30.982
12884;172649;34.56;414;03.29.30.982
12916;172654;34.56;415;03.29.30.993
12888;172653;34.56;416;03.29.30.993
12944;172654;34.56;417;03.29.30.993
12912;172648;34.56;418;03.29.30.993
12900;172654;34.56;419;03.29.30.993
12928;172648;34.56;420;03.29.30.993
12952;172660;34.56;421;03.29.30.993
12896;172656;34.56;422;03.29.30.993
12952;172657;34.56;423;03.29.30.993
12904;172652;34.56;424;03.29.30.993
12928;172655;34.56;425;03.29.31.058
12888;172656;34.56;426;03.29.31.058
12900;172666;34.56;427;03.29.31.058
12908;172656;34.56;428;03.29.31.069
12940;172662;34.56;429;03.29.31.069
12920;172662;34.56;430;03.29.31.069
12912;172654;34.56;431;03.29.31.069
12936;172658;34.56;432;03.29.31.069
12924;172664;34.56;433;03.29.31.069
12908;172661;34.56;434;03.29.31.069
12920;172666;34.56;435;03.29.31.069
12912;172663;34.56;436;03.29.31.069
12892;172653;34.56;437;03.29.31.069
12928;172651;34.56;438;03.29.31.069
12932;172657;34.56;439;03.29.31.069
12920;172648;34.56;440;03.29.31.069
12908;172663;34.56;441;03.29.31.079
12904;172666;34.56;442;03.29.31.079
12908;172666;34.56;443;03.29.31.079
12908;172659;34.56;444;03.29.31.079
12944;172662;34.56;445;03.29.31.079
12912;172660;34.56;446;03.29.31.079
12892;172663;34.56;447;03.29.31.079
12952;172660;34.56;448;03.29.31.079
12924;172671;34.56;449;03.29.31.079
12904;172667;34.56;450;03.29.31.200
12900;172670;34.56;451;03.29.31.200
12876;172667;34.56;452;03.29.31.200
12892;172667;34.56;453;03.29.31.200
12912;172656;34.56;454;03.29.31.200
12908;172653;34.56;455;03.29.31.200
12916;172656;34.56;456;03.29.31.200
12928;172660;34.56;457;03.29.31.200
12924;172663;34.56;458;03.29.31.200
12892;172674;34.56;459;03.29.31.200
12912;172673;34.56;460;03.29.31.200
12928;172668;34.56;461;03.29.31.200
12896;172660;34.56;462;03.29.31.211
12908;172671;34.56;463;03.29.31.211
12928;172668;34.56;464;03.29.31.211
12908;172664;34.56;465;03.29.31.211
12908;172664;34.56;466;03.29.31.211
12928;172669;34.56;467;03.29.31.211
12892;172668;34.56;468;03.29.31.211
12904;172668;34.56;469;03.29.31.211
12916;172676;34.56;470;03.29.31.211
12916;172673;34.56;471;03.29.31.211
12916;172674;34.56;472;03.29.31.211
12944;172674;34.56;473;03.29.31.211
12920;172682;34.56;474;03.29.31.211
12900;172674;34.56;475;03.29.31.310
12884;172681;34.56;476;03.29.31.310
12928;172674;34.56;477;03.29.31.310
12916;172677;34.56;478;03.29.31.310
12896;172676;34.56;479;03.29.31.310
12916;172671;34.56;480;03.29.31.310
12932;172678;34.56;481;03.29.31.310
12904;172677;34.56;482;03.29.31.310
12892;172684;34.56;483;03.29.31.332
12892;172678;34.56;484;03.29.31.332
12888;172690;34.56;485;03.29.31.332
12892;172692;34.56;486;03.29.31.332
12892;172682;34.56;487;03.29.31.332
12900;172678;34.56;488;03.29.31.332
12908;172692;34.56;489;03.29.31.332
12896;172692;34.56;490;03.29.31.332
12908;172688;34.56;491;03.29.31.332
12896;172696;34.56;492;03.29.31.343
12920;172685;34.56;493;03.29.31.343
12892;172697;34.56;494;03.29.31.343
12928;172697;34.56;495;03.29.31.343
12920;172700;34.56;496;03.29.31.343
12904;172692;34.56;497;03.29.31.343
12904;172694;34.56;498;03.29.31.343
12920;172687;34.56;499;03.29.31.343
12912;172700;34.56;500;03.29.31.431
12904;172693;34.56;501;03.29.31.431
12932;172690;34.56;502;03.29.31.431
12916;172685;34.56;503;03.29.31.431
12892;172695;34.56;504;03.29.31.431
12900;172693;34.56;505;03.29.31.431
12920;172693;34.56;506;03.29.31.442
12944;172692;34.56;507;03.29.31.442
12904;172707;34.56;508;03.29.31.442
12884;172704;34.56;509;03.29.31.442
12912;172705;34.56;510;03.29.31.442
12932;172705;34.56;511;03.29.31.442
12928;172704;34.56;512;03.29.31.442
12928;172708;34.56;513;03.29.31.442
12932;172699;34.56;514;03.29.31.442
12884;172711;34.56;515;03.29.31.442
12912;172705;34.56;516;03.29.31.442
12892;172715;34.56;517;03.29.31.442
12924;172717;34.56;518;03.29.31.442
12928;172713;34.56;519;03.29.31.453
12916;172716;34.56;520;03.29.31.453
12940;172709;34.56;521;03.29.31.453
12928;172718;34.56;522;03.29.31.453
12936;172717;34.56;523;03.29.31.453
12920;172721;34.56;524;03.29.31.453
12904;172715;34.56;525;03.29.31.562
12892;172725;34.56;526;03.29.31.573
12924;172721;34.56;527;03.29.31.573
12900;172713;34.56;528;03.29.31.573
12896;172737;34.56;529;03.29.31.573
12904;172731;34.56;530;03.29.31.573
12904;172727;34.56;531;03.29.31.573
12908;172721;34.56;532;03.29.31.573
12904;172728;34.56;533;03.29.31.573
12908;172724;34.56;534;03.29.31.573
12908;172718;34.56;535;03.29.31.573
12936;172720;34.56;536;03.29.31.573
12892;172710;34.56;537;03.29.31.573
12892;172713;34.56;538;03.29.31.573
12888;172698;34.56;539;03.29.31.584
12924;172706;34.56;540;03.29.31.584
12944;172698;34.56;541;03.29.31.584
12912;172704;34.56;542;03.29.31.584
12928;172690;34.56;543;03.29.31.584
12924;172686;34.56;544;03.29.31.584
12944;172682;34.56;545;03.29.31.584
12916;172679;34.56;546;03.29.31.584
12876;172674;34.56;547;03.29.31.584
12888;172669;34.56;548;03.29.31.584
12928;172665;34.56;549;03.29.31.584
12928;172660;34.52;550;03.29.31.704
12904;172664;34.52;551;03.29.31.704
12928;172659;34.52;552;03.29.31.704
12920;172650;34.52;553;03.29.31.704
12888;172650;34.52;554;03.29.31.704
12940;172643;34.52;555;03.29.31.704
12916;172639;34.52;556;03.29.31.704
12904;172641;34.52;557;03.29.31.704
12916;172643;34.52;558;03.29.31.704
12916;172638;34.52;559;03.29.31.715
12944;172634;34.52;560;03.29.31.715
12892;172633;34.52;561;03.29.31.715
12928;172632;34.52;562;03.29.31.715
12916;172635;34.52;563;03.29.31.715
12916;172631;34.52;564;03.29.31.715
12888;172633;34.52;565;03.29.31.715
12884;172628;34.52;566;03.29.31.715
12904;172630;34.52;567;03.29.31.715
12888;172629;34.52;568;03.29.31.715
12892;172629;34.52;569;03.29.31.715
12892;172637;34.52;570;03.29.31.715
12920;172633;34.52;571;03.29.31.715
12928;172636;34.52;572;03.29.31.726
12904;172638;34.52;573;03.29.31.726
12944;172637;34.52;574;03.29.31.726
12904;172638;34.52;575;03.29.31.813
12960;172632;34.52;576;03.29.31.813
12920;172636;34.52;577;03.29.31.813
12900;172641;34.52;578;03.29.31.813
12908;172632;34.52;579;03.29.31.813
12892;172628;34.52;580;03.29.31.824
12920;172637;34.52;581;03.29.31.824
12892;172638;34.52;582;03.29.31.824
12920;172638;34.52;583;03.29.31.824
12928;172640;34.52;584;03.29.31.824
12916;172626;34.52;585;03.29.31.824
12908;172630;34.52;586;03.29.31.824
12860;172625;34.52;587;03.29.31.824
12908;172629;34.52;588;03.29.31.835
12932;172627;34.52;589;03.29.31.835
12916;172638;34.52;590;03.29.31.835
12884;172631;34.52;591;03.29.31.835
12892;172639;34.52;592;03.29.31.835
12924;172634;34.52;593;03.29.31.835
12908;172632;34.52;594;03.29.31.835
12928;172634;34.52;595;03.29.31.835
12936;172639;34.52;596;03.29.31.835
12916;172638;34.52;597;03.29.31.835
12912;172634;34.52;598;03.29.31.835
12944;172635;34.52;599;03.29.31.835
12908;172638;34.56;600;03.29.31.934
12936;172638;34.56;601;03.29.31.945
12932;172639;34.56;602;03.29.31.945
12896;172637;34.56;603;03.29.31.945
12944;172627;34.56;604;03.29.31.945
12904;172640;34.56;605;03.29.31.945
12928;172633;34.56;606;03.29.31.945
12916;172634;34.56;607;03.29.31.945
12904;172635;34.56;608;03.29.31.945
12892;172634;34.56;609;03.29.31.945
12924;172628;34.56;610;03.29.31.945
12904;172627;34.56;611;03.29.31.945
12932;172632;34.56;612;03.29.31.945
12924;172629;34.56;613;03.29.31.945
12908;172626;34.56;614;03.29.31.945
12904;172625;34.56;615;03.29.31.956
12908;172633;34.56;616;03.29.31.956
12912;172626;34.56;617;03.29.31.956
12936;172626;34.56;618;03.29.31.956
12908;172623;34.56;619;03.29.31.956
12928;172629;34.56;620;03.29.31.956
12896;172622;34.56;621;03.29.31.956
12892;172636;34.56;622;03.29.31.956
12928;172628;34.56;623;03.29.31.956
12924;172627;34.56;624;03.29.31.956
12896;172637;34.56;625;03.29.32.066
12896;172635;34.56;626;03.29.32.066
12908;172629;34.56;627;03.29.32.066
12900;172639;34.56;628;03.29.32.066
12924;172643;34.56;629;03.29.32.066
12932;172636;34.56;630;03.29.32.066
12928;172635;34.56;631;03.29.32.066
12900;172638;34.56;632;03.29.32.066
12892;172641;34.56;633;03.29.32.066
12916;172642;34.56;634;03.29.32.066
12908;172640;34.56;635;03.29.32.066
12908;172645;34.56;636;03.29.32.077
12916;172640;34.56;637;03.29.32.077
12888;172642;34.56;638;03.29.32.077
12908;172645;34.56;639;03.29.32.077
12908;172649;34.56;640;03.29.32.077
12912;172646;34.56;641;03.29.32.077
12944;172642;34.56;642;03.29.32.077
12924;172659;34.56;643;03.29.32.077
12916;172653;34.56;644;03.29.32.077
12904;172652;34.56;645;03.29.32.077
12900;172643;34.56;646;03.29.32.077
12904;172654;34.56;647;03.29.32.077
12920;172662;34.56;648;03.29.32.077
12908;172656;34.56;649;03.29.32.088
12928;172659;34.56;650;03.29.32.197
12908;172659;34.56;651;03.29.32.197
12944;172663;34.56;652;03.29.32.197
12908;172662;34.56;653;03.29.32.197
12892;172668;34.56;654;03.29.32.197
12920;172669;34.56;655;03.29.32.197
12924;172670;34.56;656;03.29.32.197
12932;172669;34.56;657;03.29.32.208
12924;172672;34.56;658;03.29.32.208
12912;172675;34.56;659;03.29.32.208
12928;172669;34.56;660;03.29.32.208
12928;172674;34.56;661;03.29.32.208
12912;172670;34.56;662;03.29.32.208
12928;172676;34.56;663;03.29.32.208
12916;172677;34.56;664;03.29.32.208
12924;172681;34.56;665;03.29.32.208
12920;172685;34.56;666;03.29.32.208
12908;172691;34.56;667;03.29.32.219
12904;172684;34.56;668;03.29.32.219
12908;172695;34.56;669;03.29.32.219
12916;172694;34.56;670;03.29.32.219
12908;172693;34.56;671;03.29.32.219
12892;172709;34.56;672;03.29.32.219
12916;172701;34.56;673;03.29.32.219
12916;172700;34.56;674;03.29.32.230
12896;172706;34.56;675;03.29.32.307
12916;172708;34.56;676;03.29.32.307
12892;172694;34.56;677;03.29.32.307
12928;172705;34.56;678;03.29.32.318
12904;172711;34.56;679;03.29.32.318
12888;172705;34.56;680;03.29.32.318
12892;172714;34.56;681;03.29.32.318
12916;172716;34.56;682;03.29.32.318
12888;172710;34.56;683;03.29.32.329
12916;172710;34.56;684;03.29.32.329
12904;172712;34.56;685;03.29.32.329
12892;172712;34.56;686;03.29.32.329
12888;172703;34.56;687;03.29.32.340
12944;172710;34.56;688;03.29.32.340
12892;172703;34.56;689;03.29.32.340
12908;172700;34.56;690;03.29.32.340
12904;172701;34.56;691;03.29.32.340
12900;172695;34.56;692;03.29.32.340
12928;172689;34.56;693;03.29.32.340
12900;172688;34.56;694;03.29.32.340
12884;172678;34.56;695;03.29.32.340
12928;172675;34.56;696;03.29.32.340
12912;172677;34.56;697;03.29.32.340
12904;172672;34.56;698;03.29.32.340
12948;172665;34.56;699;03.29.32.340
12936;172662;34.56;700;03.29.32.439
12936;172654;34.56;701;03.29.32.439
12892;172652;34.56;702;03.29.32.439
12876;172654;34.56;703;03.29.32.439
12924;172650;34.56;704;03.29.32.439
12908;172643;34.56;705;03.29.32.439
12912;172647;34.56;706;03.29.32.439
12888;172632;34.56;707;03.29.32.439
12904;172639;34.56;708;03.29.32.439
12908;172633;34.56;709;03.29.32.439
12912;172633;34.56;710;03.29.32.439
12892;172627;34.56;711;03.29.32.439
12892;172633;34.56;712;03.29.32.439
12892;172625;34.56;713;03.29.32.450
12904;172635;34.56;714;03.29.32.450
12928;172622;34.56;715;03.29.32.450
12888;172628;34.56;716;03.29.32.450
12920;172618;34.56;717;03.29.32.472
12892;172626;34.56;718;03.29.32.472
12912;172620;34.56;719;03.29.32.472
12904;172624;34.56;720;03.29.32.472
12916;172629;34.56;721;03.29.32.472
12924;172628;34.56;722;03.29.32.472
12924;172629;34.56;723;03.29.32.472
12932;172622;34.56;724;03.29.32.472
12928;172624;34.56;725;03.29.32.560
12908;172635;34.56;726;03.29.32.560
12932;172624;34.56;727;03.29.32.560
12928;172618;34.56;728;03.29.32.560
12936;172630;34.56;729;03.29.32.560
12900;172633;34.56;730;03.29.32.560
12908;172626;34.56;731;03.29.32.560
12936;172623;34.56;732;03.29.32.560
12892;172626;34.56;733;03.29.32.560
12944;172624;34.56;734;03.29.32.570
12896;172629;34.56;735;03.29.32.570
12904;172616;34.56;736;03.29.32.570
12928;172627;34.56;737;03.29.32.570
12928;172629;34.56;738;03.29.32.570
12924;172631;34.56;739;03.29.32.570
12892;172638;34.56;740;03.29.32.570
12920;172629;34.56;741;03.29.32.570
12928;172631;34.56;742;03.29.32.570
12892;172631;34.56;743;03.29.32.570
12924;172630;34.56;744;03.29.32.570
12916;172630;34.56;745;03.29.32.570
12928;172636;34.56;746;03.29.32.570
12888;172638;34.56;747;03.29.32.581
12912;172635;34.56;748;03.29.32.581
12920;172641;34.56;749;03.29.32.581
12908;172633;34.56;750;03.29.32.691
12912;172630;34.56;751;03.29.32.691
12936;172637;34.56;752;03.29.32.691
12924;172627;34.56;753;03.29.32.691
12900;172631;34.56;754;03.29.32.691
12896;172627;34.56;755;03.29.32.702
12904;172632;34.56;756;03.29.32.702
12924;172630;34.56;757;03.29.32.702
12888;172621;34.56;758;03.29.32.702
12928;172640;34.56;759;03.29.32.702
12916;172633;34.56;760;03.29.32.702
12912;172622;34.56;761;03.29.32.702
12892;172623;34.56;762;03.29.32.702
12928;172625;34.56;763;03.29.32.702
12916;172628;34.56;764;03.29.32.702
12920;172628;34.56;765;03.29.32.702
12904;172632;34.56;766;03.29.32.702
12892;172635;34.56;767;03.29.32.713
12884;172632;34.56;768;03.29.32.713
12912;172635;34.56;769;03.29.32.713
12900;172645;34.56;770;03.29.32.713
12904;172636;34.56;771;03.29.32.713
12928;172637;34.56;772;03.29.32.713
12904;172638;34.56;773;03.29.32.713
12916;172634;34.56;774;03.29.32.713
12892;172643;34.56;775;03.29.32.834
12904;172644;34.56;776;03.29.32.845
12920;172637;34.56;777;03.29.32.845
12892;172641;34.56;778;03.29.32.845
12892;172643;34.56;779;03.29.32.845
12900;172647;34.56;780;03.29.32.845
12904;172642;34.56;781;03.29.32.845
12908;172643;34.56;782;03.29.32.845
12936;172646;34.56;783;03.29.32.845
12908;172654;34.56;784;03.29.32.845
12932;172660;34.56;785;03.29.32.845
12912;172655;34.56;786;03.29.32.845
12904;172657;34.56;787;03.29.32.845
12892;172660;34.56;788;03.29.32.845
12936;172663;34.56;789;03.29.32.856
12900;172659;34.56;790;03.29.32.856
12912;172666;34.56;791;03.29.32.856
12932;172662;34.56;792;03.29.32.856
12928;172666;34.56;793;03.29.32.856
12900;172672;34.56;794;03.29.32.856
12940;172668;34.56;795;03.29.32.856
12924;172672;34.56;796;03.29.32.856
12896;172677;34.56;797;03.29.32.856
12888;172678;34.56;798;03.29.32.856
12920;172681;34.56;799;03.29.32.856
12896;172675;34.52;800;03.29.32.943
12924;172684;34.52;801;03.29.32.943
12928;172680;34.52;802;03.29.32.943
12916;172691;34.52;803;03.29.32.943
12892;172677;34.52;804;03.29.32.943
12924;172686;34.52;805;03.29.32.943
12920;172695;34.52;806;03.29.32.943
12912;172692;34.52;807;03.29.32.943
12928;172691;34.52;808;03.29.32.943
12924;172687;34.52;809;03.29.32.954
12892;172698;34.52;810;03.29.32.954
12928;172691;34.52;811;03.29.32.954
12928;172693;34.52;812;03.29.32.954
12908;172690;34.52;813;03.29.32.954
12908;172696;34.52;814;03.29.32.954
12932;172700;34.52;815;03.29.32.954
12896;172696;34.52;816;03.29.32.954
12928;172692;34.52;817;03.29.32.965
12904;172708;34.52;818;03.29.32.965
12908;172707;34.52;819;03.29.32.965
12896;172711;34.52;820;03.29.32.965
12920;172710;34.52;821;03.29.32.965
12916;172708;34.52;822;03.29.32.965
12908;172719;34.52;823;03.29.32.965
12928;172705;34.52;824;03.29.32.965
12912;172709;34.52;825;03.29.33.074
12908;172717;34.52;826;03.29.33.074
12928;172715;34.52;827;03.29.33.074
12920;172718;34.52;828;03.29.33.074
12928;172712;34.52;829;03.29.33.074
12924;172718;34.52;830;03.29.33.074
12904;172715;34.52;831;03.29.33.085
12928;172711;34.52;832;03.29.33.085
12928;172717;34.52;833;03.29.33.096
12904;172718;34.52;834;03.29.33.096
12912;172729;34.52;835;03.29.33.096
12924;172723;34.52;836;03.29.33.096
12884;172722;34.52;837;03.29.33.096
12896;172726;34.52;838;03.29.33.096
12920;172723;34.52;839;03.29.33.107
12892;172719;34.52;840;03.29.33.107
12920;172720;34.52;841;03.29.33.107
12908;172719;34.52;842;03.29.33.107
12916;172712;34.52;843;03.29.33.107
12904;172705;34.52;844;03.29.33.107
12900;172705;34.52;845;03.29.33.107
12928;172707;34.52;846;03.29.33.107
12892;172694;34.52;847;03.29.33.107
12908;172694;34.52;848;03.29.33.107
12920;172683;34.52;849;03.29.33.107
12892;172681;34.56;850;03.29.33.184
12900;172683;34.56;851;03.29.33.184
12932;172676;34.56;852;03.29.33.195
12916;172669;34.56;853;03.29.33.195
12932;172661;34.56;854;03.29.33.195
12908;172654;34.56;855;03.29.33.195
12904;172657;34.56;856;03.29.33.195
12916;172652;34.56;857;03.29.33.195
12928;172652;34.56;858;03.29.33.195
12928;172648;34.56;859;03.29.33.195
12920;172645;34.56;860;03.29.33.195
12940;172634;34.56;861;03.29.33.195
12892;172635;34.56;862;03.29.33.195
12904;172629;34.56;863;03.29.33.195
12912;172640;34.56;864;03.29.33.195
12928;172635;34.56;865;03.29.33.195
12928;172633;34.56;866;03.29.33.206
12896;172632;34.56;867;03.29.33.206
12904;172644;34.56;868;03.29.33.206
12916;172632;34.56;869;03.29.33.206
12896;172637;34.56;870;03.29.33.216
12896;172638;34.56;871;03.29.33.216
12888;172632;34.56;872;03.29.33.216
12900;172630;34.56;873;03.29.33.216
12912;172635;34.56;874;03.29.33.216
12900;172634;34.56;875;03.29.33.318
12904;172641;34.56;876;03.29.33.329
12912;172644;34.56;877;03.29.33.329
12908;172637;34.56;878;03.29.33.329
12892;172634;34.56;879;03.29.33.329
12944;172634;34.56;880;03.29.33.329
12892;172642;34.56;881;03.29.33.329
12928;172634;34.56;882;03.29.33.329
12900;172638;34.56;883;03.29.33.329
12916;172641;34.56;884;03.29.33.329
12900;172639;34.56;885;03.29.33.340
12896;172643;34.56;886;03.29.33.340
12896;172634;34.56;887;03.29.33.340
12944;172641;34.56;888;03.29.33.340
12904;172640;34.56;889;03.29.33.340
12884;172645;34.56;890;03.29.33.340
12904;172646;34.56;891;03.29.33.340
12912;172647;34.56;892;03.29.33.340
12944;172641;34.56;893;03.29.33.340
12924;172641;34.56;894;03.29.33.351
12912;172650;34.56;895;03.29.33.351
12900;172649;34.56;896;03.29.33.351
12936;172648;34.56;897;03.29.33.351
12928;172650;34.56;898;03.29.33.351
12936;172660;34.56;899;03.29.33.351
12944;172659;34.56;900;03.29.33.438
12928;172649;34.56;901;03.29.33.438
12928;172653;34.56;902;03.29.33.438
12928;172648;34.56;903;03.29.33.438
12928;172660;34.56;904;03.29.33.438
12944;172654;34.56;905;03.29.33.438
12924;172654;34.56;906;03.29.33.438
12932;172650;34.56;907;03.29.33.438
12936;172653;34.56;908;03.29.33.460
12936;172646;34.56;909;03.29.33.460
12916;172648;34.56;910;03.29.33.460
12892;172642;34.56;911;03.29.33.460
12904;172644;34.56;912;03.29.33.460
12920;172641;34.56;913;03.29.33.460
12892;172642;34.56;914;03.29.33.460
12932;172638;34.56;915;03.29.33.460
12916;172643;34.56;916;03.29.33.460
12920;172643;34.56;917;03.29.33.460
12920;172639;34.56;918;03.29.33.460
12900;172639;34.56;919;03.29.33.471
12916;172647;34.56;920;03.29.33.471
12904;172642;34.56;921;03.29.33.471
12908;172636;34.56;922;03.29.33.471
12892;172635;34.56;923;03.29.33.471
12908;172643;34.56;924;03.29.33.471
12936;172642;34.56;925;03.29.33.559
12904;172650;34.56;926;03.29.33.559
12928;172646;34.56;927;03.29.33.559
12936;172647;34.56;928;03.29.33.559
12912;172641;34.56;929;03.29.33.559
12900;172647;34.56;930;03.29.33.559
12940;172652;34.56;931;03.29.33.559
12908;172653;34.56;932;03.29.33.559
12892;172651;34.56;933;03.29.33.569
12928;172649;34.56;934;03.29.33.569
12900;172644;34.56;935;03.29.33.569
12904;172659;34.56;936;03.29.33.569
12904;172650;34.56;937;03.29.33.569
12892;172647;34.56;938;03.29.33.569
12924;172655;34.56;939;03.29.33.569
12908;172653;34.56;940;03.29.33.569
12912;172657;34.56;941;03.29.33.569
12892;172662;34.56;942;03.29.33.569
12916;172662;34.56;943;03.29.33.569
12928;172660;34.56;944;03.29.33.569
12936;172665;34.56;945;03.29.33.581
12928;172665;34.56;946;03.29.33.581
12920;172667;34.56;947;03.29.33.581
12920;172658;34.56;948;03.29.33.581
12920;172665;34.56;949;03.29.33.581
12912;172655;34.56;950;03.29.33.691
12920;172671;34.56;951;03.29.33.691
12908;172671;34.56;952;03.29.33.691
12908;172670;34.56;953;03.29.33.691
12916;172678;34.56;954;03.29.33.703
12916;172679;34.56;955;03.29.33.703
12904;172679;34.56;956;03.29.33.703
12900;172683;34.56;957;03.29.33.703
12920;172676;34.56;958;03.29.33.703
12928;172684;34.56;959;03.29.33.703
12928;172675;34.56;960;03.29.33.703
12912;172688;34.56;961;03.29.33.703
12928;172681;34.56;962;03.29.33.703
12916;172690;34.56;963;03.29.33.703
12904;172683;34.56;964;03.29.33.703
12912;172698;34.56;965;03.29.33.703
12924;172691;34.56;966;03.29.33.703
12888;172699;34.56;967;03.29.33.703
12916;172702;34.56;968;03.29.33.714
12936;172693;34.56;969;03.29.33.714
12940;172703;34.56;970;03.29.33.714
12956;172694;34.56;971;03.29.33.714
12932;172701;34.56;972;03.29.33.714
12928;172698;34.56;973;03.29.33.714
12912;172699;34.56;974;03.29.33.714
12928;172708;34.56;975;03.29.33.812
12876;172708;34.56;976;03.29.33.823
12908;172703;34.56;977;03.29.33.823
12920;172705;34.56;978;03.29.33.823
12920;172710;34.56;979;03.29.33.823
12900;172709;34.56;980;03.29.33.823
12928;172716;34.56;981;03.29.33.823
12920;172715;34.56;982;03.29.33.823
12924;172714;34.56;983;03.29.33.823
12908;172717;34.56;984;03.29.33.823
12928;172718;34.56;985;03.29.33.823
12892;172719;34.56;986;03.29.33.823
12916;172716;34.56;987;03.29.33.823
12908;172713;34.56;988;03.29.33.823
12892;172714;34.56;989;03.29.33.834
12920;172708;34.56;990;03.29.33.834
12928;172702;34.56;991;03.29.33.834
12912;172701;34.56;992;03.29.33.834
12920;172694;34.56;993;03.29.33.834
12916;172687;34.56;994;03.29.33.834
12916;172686;34.56;995;03.29.33.834
12924;172679;34.56;996;03.29.33.834
12912;172662;34.56;997;03.29.33.834
12928;172666;34.56;998;03.29.33.834
12948;172666;34.56;999;03.29.33.834
12920;172656;34.52;000;03.29.33.955
12940;172648;34.52;001;03.29.33.955
12904;172653;34.52;002;03.29.33.955
12900;172644;34.52;003;03.29.33.955
12920;172632;34.52;004;03.29.33.955
12932;172627;34.52;005;03.29.33.955
12924;172634;34.52;006;03.29.33.955
12904;172621;34.52;007;03.29.33.955
12908;172619;34.52;008;03.29.33.955
12912;172610;34.52;009;03.29.33.955
12924;172604;34.52;010;03.29.33.966
12932;172607;34.52;011;03.29.33.966
12924;172609;34.52;012;03.29.33.966
12904;172593;34.52;013;03.29.33.966
12916;172598;34.52;014;03.29.33.966
12904;172587;34.52;015;03.29.33.966
12928;172592;34.52;016;03.29.33.966
12916;172581;34.52;017;03.29.33.966
12916;172589;34.52;018;03.29.33.966
12896;172586;34.52;019;03.29.33.966
12928;172578;34.52;020;03.29.33.966
12920;172576;34.52;021;03.29.33.966
12900;172584;34.52;022;03.29.33.977
12884;172590;34.52;023;03.29.33.977
12900;172581;34.52;024;03.29.33.977
12928;172578;34.52;025;03.29.34.065
12920;172569;34.52;026;03.29.34.065
12920;172573;34.52;027;03.29.34.065
12920;172576;34.52;028;03.29.34.065
12908;172576;34.52;029;03.29.34.065
12908;172572;34.52;030;03.29.34.065
12916;172573;34.52;031;03.29.34.065
12916;172571;34.52;032;03.29.34.076
12940;172568;34.52;033;03.29.34.087
12912;172564;34.52;034;03.29.34.087
12928;172567;34.52;035;03.29.34.087
12916;172567;34.52;036;03.29.34.087
12904;172562;34.52;037;03.29.34.087
12928;172558;34.52;038;03.29.34.087
12904;172566;34.52;039;03.29.34.087
12924;172558;34.52;040;03.29.34.098
12924;172564;34.52;041;03.29.34.098
12912;172551;34.52;042;03.29.34.098
12932;172552;34.52;043;03.29.34.098
12908;172552;34.52;044;03.29.34.098
12932;172549;34.52;045;03.29.34.098
12940;172547;34.52;046;03.29.34.098
12928;172547;34.52;047;03.29.34.098
12916;172548;34.52;048;03.29.34.098
12960;172550;34.52;049;03.29.34.098
12924;172554;34.52;050;03.29.34.185
12932;172553;34.52;051;03.29.34.185
12948;172545;34.52;052;03.29.34.185
12892;172552;34.52;053;03.29.34.196
12892;172542;34.52;054;03.29.34.196
12916;172558;34.52;055;03.29.34.196
12928;172555;34.52;056;03.29.34.196
12944;172548;34.52;057;03.29.34.196
12916;172552;34.52;058;03.29.34.196
12928;172557;34.52;059;03.29.34.196
12908;172555;34.52;060;03.29.34.196
12916;172550;34.52;061;03.29.34.196
12892;172554;34.52;062;03.29.34.196
12912;172561;34.52;063;03.29.34.196
12896;172557;34.52;064;03.29.34.196
12892;172560;34.52;065;03.29.34.196
12908;172558;34.52;066;03.29.34.207
12928;172561;34.52;067;03.29.34.218
12888;172568;34.52;068;03.29.34.218
12928;172565;34.52;069;03.29.34.218
12884;172562;34.52;070;03.29.34.229
12916;172577;34.52;071;03.29.34.229
12928;172578;34.52;072;03.29.34.229
12900;172571;34.52;073;03.29.34.229
12904;172586;34.52;074;03.29.34.229
12892;172588;34.52;075;03.29.34.317
12924;172581;34.52;076;03.29.34.317
12932;172580;34.52;077;03.29.34.317
12892;172588;34.52;078;03.29.34.317
12908;172589;34.52;079;03.29.34.317
12928;172583;34.52;080;03.29.34.317
12912;172591;34.52;081;03.29.34.317
12928;172591;34.52;082;03.29.34.317
12924;172597;34.52;083;03.29.34.317
12916;172595;34.52;084;03.29.34.317
12928;172594;34.52;085;03.29.34.317
12896;172586;34.52;086;03.29.34.328
12928;172593;34.52;087;03.29.34.328
12920;172597;34.52;088;03.29.34.328
12924;172606;34.52;089;03.29.34.328
12928;172606;34.52;090;03.29.34.328
12924;172607;34.52;091;03.29.34.328
12916;172610;34.52;092;03.29.34.328
12888;172611;34.52;093;03.29.34.328
12908;172611;34.52;094;03.29.34.328
12896;172615;34.52;095;03.29.34.328
12908;172607;34.52;096;03.29.34.328
12912;172617;34.52;097;03.29.34.328
12880;172627;34.52;098;03.29.34.328
12892;172621;34.52;099;03.29.34.338
12876;172624;34.52;100;03.29.34.459
12932;172622;34.52;101;03.29.34.459
12936;172617;34.52;102;03.29.34.459
12920;172623;34.52;103;03.29.34.459
12912;172615;34.52;104;03.29.34.459
12904;172631;34.52;105;03.29.34.459
12908;172626;34.52;106;03.29.34.459
12888;172624;34.52;107;03.29.34.459
12940;172629;34.52;108;03.29.34.470
12912;172626;34.52;109;03.29.34.470
12904;172630;34.52;110;03.29.34.470
12908;172632;34.52;111;03.29.34.470
12928;172630;34.52;112;03.29.34.470
12928;172628;34.52;113;03.29.34.470
12884;172629;34.52;114;03.29.34.470
12928;172623;34.52;115;03.29.34.470
12928;172626;34.52;116;03.29.34.481
12924;172630;34.52;117;03.29.34.481
12888;172630;34.52;118;03.29.34.481
12892;172621;34.52;119;03.29.34.481
12924;172627;34.52;120;03.29.34.481
12920;172624;34.52;121;03.29.34.481
12896;172625;34.52;122;03.29.34.481
12932;172629;34.52;123;03.29.34.481
12928;172631;34.52;124;03.29.34.481
12888;172642;34.52;125;03.29.34.557
12916;172640;34.52;126;03.29.34.557
12876;172635;34.52;127;03.29.34.557
12896;172643;34.52;128;03.29.34.557
12916;172644;34.52;129;03.29.34.568
12908;172643;34.52;130;03.29.34.568
12904;172643;34.52;131;03.29.34.568
12928;172643;34.52;132;03.29.34.568
12916;172642;34.52;133;03.29.34.579
12908;172651;34.52;134;03.29.34.579
12920;172657;34.52;135;03.29.34.579
12936;172657;34.52;136;03.29.34.579
12900;172655;34.52;137;03.29.34.590
12900;172662;34.52;138;03.29.34.590
12908;172658;34.52;139;03.29.34.590
12888;172652;34.52;140;03.29.34.590
12888;172652;34.52;141;03.29.34.590
12892;172662;34.52;142;03.29.34.590
12884;172659;34.52;143;03.29.34.590
12940;172654;34.52;144;03.29.34.590
12908;172659;34.52;145;03.29.34.590
12920;172643;34.52;146;03.29.34.590
12876;172644;34.52;147;03.29.34.590
12924;172643;34.52;148;03.29.34.590
12936;172637;34.52;149;03.29.34.601
12932;172640;34.52;150;03.29.34.678
12908;172627;34.52;151;03.29.34.689
12900;172624;34.52;152;03.29.34.689
12908;172620;34.52;153;03.29.34.689
12908;172611;34.52;154;03.29.34.689
12904;172609;34.52;155;03.29.34.689
12904;172606;34.52;156;03.29.34.689
12900;172604;34.52;157;03.29.34.689
12920;172595;34.52;158;03.29.34.689
12884;172597;34.52;159;03.29.34.689
12896;172587;34.52;160;03.29.34.689
12920;172589;34.52;161;03.29.34.689
12904;172576;34.52;162;03.29.34.689
12912;172572;34.52;163;03.29.34.700
12912;172573;34.52;164;03.29.34.700
12892;172572;34.52;165;03.29.34.700
12928;172564;34.52;166;03.29.34.700
12884;172563;34.52;167;03.29.34.700
12932;172566;34.52;168;03.29.34.700
12928;172552;34.52;169;03.29.34.700
12908;172552;34.52;170;03.29.34.700
12904;172550;34.52;171;03.29.34.700
12904;172544;34.52;172;03.29.34.700
12924;172545;34.52;173;03.29.34.700
12928;172544;34.52;174;03.29.34.700
12916;172549;34.52;175;03.29.34.809
12924;172547;34.52;176;03.29.34.809
12908;172540;34.52;177;03.29.34.809
12908;172549;34.52;178;03.29.34.809
12908;172554;34.52;179;03.29.34.809
12944;172542;34.52;180;03.29.34.809
12908;172545;34.52;181;03.29.34.809
12936;172544;34.52;182;03.29.34.809
12904;172547;34.52;183;03.29.34.809
12908;172534;34.52;184;03.29.34.820
12928;172545;34.52;185;03.29.34.820
12900;172542;34.52;186;03.29.34.820
12904;172544;34.52;187;03.29.34.820
12916;172546;34.52;188;03.29.34.820
12912;172546;34.52;189;03.29.34.820
12908;172543;34.52;190;03.29.34.820
12892;172542;34.52;191;03.29.34.820
12932;172545;34.52;192;03.29.34.820
12900;172545;34.52;193;03.29.34.820
12892;172555;34.52;194;03.29.34.820
12884;172551;34.52;195;03.29.34.820
12904;172544;34.52;196;03.29.34.820
12928;172546;34.52;197;03.29.34.830
12912;172559;34.52;198;03.29.34.830
12928;172555;34.52;199;03.29.34.830
12932;172550;34.52;200;03.29.34.951
12928;172551;34.52;201;03.29.34.951
12900;172554;34.52;202;03.29.34.951
12884;172558;34.52;203;03.29.34.951
12888;172558;34.52;204;03.29.34.962
12928;172564;34.52;205;03.29.34.962
12924;172562;34.52;206;03.29.34.962
12892;172564;34.52;207;03.29.34.962
12904;172571;34.52;208;03.29.34.962
12904;172565;34.52;209;03.29.34.962
12936;172565;34.52;210;03.29.34.962
12896;172558;34.52;211;03.29.34.962
12928;172563;34.52;212;03.29.34.962
12904;172561;34.52;213;03.29.34.962
12916;172566;34.52;214;03.29.34.962
12928;172548;34.52;215;03.29.34.962
12908;172560;34.52;216;03.29.34.962
12928;172565;34.52;217;03.29.34.973
12944;172556;34.52;218;03.29.34.973
12916;172564;34.52;219;03.29.34.973
12880;172565;34.52;220;03.29.34.973
12904;172564;34.52;221;03.29.34.973
12928;172569;34.52;222;03.29.34.973
12904;172565;34.52;223;03.29.34.973
12924;172567;34.52;224;03.29.34.973
12888;172558;34.52;225;03.29.35.072
12900;172569;34.52;226;03.29.35.072
12916;172560;34.52;227;03.29.35.072
12896;172564;34.52;228;03.29.35.072
12928;172564;34.52;229;03.29.35.072
12904;172570;34.52;230;03.29.35.072
12896;172569;34.52;231;03.29.35.072
12908;172584;34.52;232;03.29.35.072
12900;172567;34.52;233;03.29.35.094
12888;172591;34.52;234;03.29.35.094
12904;172583;34.52;235;03.29.35.094
12908;172577;34.52;236;03.29.35.094
12912;172580;34.52;237;03.29.35.094
12932;172580;34.52;238;03.29.35.094
12900;172583;34.52;239;03.29.35.094
12904;172583;34.52;240;03.29.35.094
12920;172590;34.52;241;03.29.35.094
12912;172591;34.52;242;03.29.35.094
12892;172596;34.52;243;03.29.35.105
12904;172600;34.52;244;03.29.35.105
12916;172586;34.52;245;03.29.35.105
12932;172599;34.52;246;03.29.35.105
12900;172602;34.52;247;03.29.35.105
12892;172611;34.52;248;03.29.35.105
12940;172609;34.52;249;03.29.35.105
12904;172610;34.52;250;03.29.35.203
12916;172606;34.52;251;03.29.35.203
12932;172610;34.52;252;03.29.35.203
12920;172605;34.52;253;03.29.35.203
12860;172615;34.52;254;03.29.35.203
12920;172620;34.52;255;03.29.35.203
12944;172618;34.52;256;03.29.35.203
12928;172622;34.52;257;03.29.35.203
12896;172611;34.52;258;03.29.35.214
12936;172621;34.52;259;03.29.35.214
12928;172622;34.52;260;03.29.35.214
12944;172624;34.52;261;03.29.35.214
12916;172628;34.52;262;03.29.35.214
12928;172634;34.52;263;03.29.35.214
12900;172638;34.52;264;03.29.35.214
12924;172638;34.52;265;03.29.35.214
12912;172640;34.52;266;03.29.35.214
12920;172640;34.52;267;03.29.35.225
12928;172639;34.52;268;03.29.35.225
12928;172637;34.52;269;03.29.35.225
12904;172647;34.52;270;03.29.35.225
12936;172636;34.52;271;03.29.35.225
12904;172647;34.52;272;03.29.35.225
12908;172646;34.52;273;03.29.35.225
12916;172642;34.52;274;03.29.35.225
12884;172643;34.52;275;03.29.35.313
12908;172646;34.52;276;03.29.35.313
12920;172642;34.52;277;03.29.35.313
12920;172647;34.52;278;03.29.35.313
12912;172641;34.52;279;03.29.35.313
12928;172648;34.52;280;03.29.35.313
12916;172652;34.52;281;03.29.35.324
12916;172654;34.52;282;03.29.35.324
12904;172662;34.52;283;03.29.35.324
12908;172663;34.52;284;03.29.35.324
12920;172662;34.52;285;03.29.35.324
12920;172668;34.52;286;03.29.35.324
12932;172667;34.52;287;03.29.35.324
12884;172676;34.52;288;03.29.35.324
12944;172675;34.52;289;03.29.35.324
12904;172673;34.52;290;03.29.35.324
12904;172679;34.52;291;03.29.35.324
12904;172676;34.52;292;03.29.35.324
12908;172690;34.52;293;03.29.35.324
12928;172681;34.52;294;03.29.35.335
12928;172681;34.52;295;03.29.35.335
12912;172691;34.52;296;03.29.35.335
12896;172684;34.52;297;03.29.35.335
12936;172679;34.52;298;03.29.35.335
12936;172672;34.52;299;03.29.35.335
12892;172688;34.56;300;03.29.35.445
12928;172684;34.56;301;03.29.35.445
12900;172693;34.56;302;03.29.35.456
12900;172686;34.56;303;03.29.35.456
12916;172702;34.56;304;03.29.35.456
12904;172690;34.56;305;03.29.35.456
12908;172691;34.56;306;03.29.35.456
12928;172694;34.56;307;03.29.35.456
12908;172694;34.56;308;03.29.35.456
12916;172695;34.56;309;03.29.35.456
12928;172688;34.56;310;03.29.35.456
12896;172684;34.56;311;03.29.35.456
12892;172689;34.56;312;03.29.35.456
12916;172694;34.56;313;03.29.35.456
12908;172688;34.56;314;03.29.35.456
12876;172676;34.56;315;03.29.35.467
12920;172669;34.56;316;03.29.35.467
12896;172663;34.56;317;03.29.35.467
12892;172653;34.56;318;03.29.35.467
12892;172658;34.56;319;03.29.35.467
12924;172657;34.56;320;03.29.35.467
12884;172645;34.56;321;03.29.35.467
12928;172635;34.56;322;03.29.35.467
12912;172644;34.56;323;03.29.35.467
12920;172632;34.56;324;03.29.35.467
12928;172634;34.56;325;03.29.35.566
12944;172622;34.56;326;03.29.35.566
12928;172625;34.56;327;03.29.35.566
12900;172623;34.56;328;03.29.35.566
12928;172616;34.56;329;03.29.35.566
12920;172616;34.56;330;03.29.35.566
12892;172612;34.56;331;03.29.35.566
12912;172612;34.56;332;03.29.35.566
12924;172617;34.56;333;03.29.35.588
12892;172613;34.56;334;03.29.35.588
12908;172617;34.56;335;03.29.35.588
12900;172619;34.56;336;03.29.35.588
12908;172619;34.56;337;03.29.35.588
12928;172618;34.56;338;03.29.35.588
12924;172611;34.56;339;03.29.35.588
12916;172620;34.56;340;03.29.35.588
12892;172617;34.56;341;03.29.35.588
12924;172619;34.56;342;03.29.35.632
12904;172618;34.56;343;03.29.35.632
12880;172630;34.56;344;03.29.35.632
12904;172618;34.56;345;03.29.35.632
12928;172625;34.56;346;03.29.35.632
12896;172622;34.56;347;03.29.35.632
12912;172623;34.56;348;03.29.35.632
12920;172629;34.56;349;03.29.35.632
12928;172630;34.56;350;03.29.35.687
12904;172629;34.56;351;03.29.35.687
12916;172632;34.56;352;03.29.35.687
12940;172635;34.56;353;03.29.35.687
12908;172635;34.56;354;03.29.35.687
12936;172628;34.56;355;03.29.35.687
12944;172632;34.56;356;03.29.35.687
12912;172631;34.56;357;03.29.35.687
12900;172631;34.56;358;03.29.35.720
12920;172629;34.56;359;03.29.35.720
12916;172635;34.56;360;03.29.35.720
12936;172632;34.56;361;03.29.35.720
12912;172633;34.56;362;03.29.35.720
12892;172643;34.56;363;03.29.35.720
12884;172646;34.56;364;03.29.35.720
12884;172644;34.56;365;03.29.35.720
12912;172648;34.56;366;03.29.35.720
12920;172638;34.56;367;03.29.35.720
12920;172640;34.56;368;03.29.35.731
12944;172643;34.56;369;03.29.35.731
12908;172649;34.56;370;03.29.35.731
12908;172648;34.56;371;03.29.35.731
12912;172654;34.56;372;03.29.35.731
12900;172645;34.56;373;03.29.35.731
12900;172645;34.56;374;03.29.35.731
12896;172647;34.56;375;03.29.35.808
12920;172643;34.56;376;03.29.35.808
12916;172643;34.56;377;03.29.35.808
12928;172639;34.56;378;03.29.35.808
12932;172649;34.56;379;03.29.35.808
12924;172645;34.56;380;03.29.35.808
12908;172648;34.56;381;03.29.35.809
12928;172649;34.56;382;03.29.35.820
12916;172654;34.56;383;03.29.35.820
12912;172648;34.56;384;03.29.35.820
12892;172644;34.56;385;03.29.35.820
12920;172646;34.56;386;03.29.35.820
12928;172640;34.56;387;03.29.35.820
12904;172639;34.56;388;03.29.35.820
12916;172639;34.56;389;03.29.35.820
12904;172638;34.56;390;03.29.35.820
12920;172640;34.56;391;03.29.35.820
12928;172642;34.56;392;03.29.35.820
12904;172646;34.56;393;03.29.35.820
12892;172644;34.56;394;03.29.35.820
12928;172642;34.56;395;03.29.35.831
12892;172636;34.56;396;03.29.35.831
12916;172646;34.56;397;03.29.35.831
12912;172645;34.56;398;03.29.35.831
12932;172652;34.56;399;03.29.35.831
12920;172650;34.56;400;03.29.35.939
12908;172651;34.56;401;03.29.35.950
12900;172657;34.56;402;03.29.35.950
12912;172652;34.56;403;03.29.35.950
12892;172652;34.56;404;03.29.35.950
12916;172648;34.56;405;03.29.35.950
12912;172642;34.56;406;03.29.35.950
12916;172650;34.56;407;03.29.35.950
12924;172655;34.56;408;03.29.35.950
12936;172657;34.56;409;03.29.35.950
12904;172659;34.56;410;03.29.35.950
12936;172646;34.56;411;03.29.35.950
12932;172652;34.56;412;03.29.35.950
12904;172660;34.56;413;03.29.35.950
12900;172661;34.56;414;03.29.35.961
12960;172660;34.56;415;03.29.35.961
12896;172664;34.56;416;03.29.35.961
12916;172673;34.56;417;03.29.35.961
12900;172670;34.56;418;03.29.35.961
12904;172671;34.56;419;03.29.35.961
12912;172672;34.56;420;03.29.35.961
12900;172666;34.56;421;03.29.35.961
12928;172673;34.56;422;03.29.35.961
12900;172676;34.56;423;03.29.35.961
12936;172669;34.56;424;03.29.35.961
12924;172673;34.56;425;03.29.36.082
12912;172679;34.56;426;03.29.36.082
12928;172680;34.56;427;03.29.36.082
12928;172681;34.56;428;03.29.36.082
12932;172685;34.56;429;03.29.36.082
12932;172685;34.56;430;03.29.36.082
12920;172687;34.56;431;03.29.36.082
12908;172691;34.56;432;03.29.36.082
12908;172684;34.56;433;03.29.36.082
12928;172686;34.56;434;03.29.36.082
12912;172683;34.56;435;03.29.36.082
12928;172696;34.56;436;03.29.36.093
12928;172697;34.56;437;03.29.36.093
12904;172703;34.56;438;03.29.36.093
12944;172695;34.56;439;03.29.36.093
12916;172702;34.56;440;03.29.36.093
12920;172706;34.56;441;03.29.36.093
12892;172703;34.56;442;03.29.36.093
12924;172701;34.56;443;03.29.36.093
12916;172705;34.56;444;03.29.36.093
12904;172708;34.56;445;03.29.36.093
12908;172714;34.56;446;03.29.36.093
12932;172715;34.56;447;03.29.36.093
12916;172718;34.56;448;03.29.36.093
12904;172721;34.56;449;03.29.36.104
12924;172710;34.52;450;03.29.36.192
12912;172716;34.52;451;03.29.36.192
12928;172726;34.52;452;03.29.36.192
12912;172727;34.52;453;03.29.36.192
12908;172730;34.52;454;03.29.36.192
12900;172723;34.52;455;03.29.36.192
12912;172720;34.52;456;03.29.36.192
12904;172732;34.52;457;03.29.36.203
12892;172722;34.52;458;03.29.36.214
12920;172731;34.52;459;03.29.36.214
12920;172730;34.52;460;03.29.36.214
12892;172733;34.52;461;03.29.36.214
12928;172728;34.52;462;03.29.36.214
12928;172736;34.52;463;03.29.36.214
12932;172733;34.52;464;03.29.36.214
12908;172727;34.52;465;03.29.36.214
12920;172732;34.52;466;03.29.36.225
12912;172728;34.52;467;03.29.36.225
12908;172723;34.52;468;03.29.36.225
12936;172712;34.52;469;03.29.36.225
12932;172719;34.52;470;03.29.36.225
12900;172711;34.52;471;03.29.36.225
12928;172715;34.52;472;03.29.36.225
12908;172707;34.52;473;03.29.36.225
12944;172699;34.52;474;03.29.36.225
12908;172690;34.52;475;03.29.36.322
12912;172692;34.52;476;03.29.36.322
12896;172683;34.52;477;03.29.36.332
12904;172685;34.52;478;03.29.36.332
12892;172674;34.52;479;03.29.36.332
12920;172675;34.52;480;03.29.36.332
12884;172672;34.52;481;03.29.36.332
12928;172666;34.52;482;03.29.36.332
12908;172662;34.52;483;03.29.36.354
12908;172656;34.52;484;03.29.36.354
12908;172655;34.52;485;03.29.36.354
12888;172639;34.52;486;03.29.36.354
12916;172640;34.52;487;03.29.36.354
12892;172639;34.52;488;03.29.36.354
12940;172628;34.52;489;03.29.36.354
12940;172634;34.52;490;03.29.36.354
12912;172630;34.52;491;03.29.36.354
12888;172634;34.52;492;03.29.36.354
12904;172623;34.52;493;03.29.36.354
12912;172626;34.52;494;03.29.36.354
12928;172626;34.52;495;03.29.36.354
12908;172630;34.52;496;03.29.36.354
12932;172619;34.52;497;03.29.36.366
12936;172630;34.52;498;03.29.36.366
12940;172627;34.52;499;03.29.36.366
12904;172626;34.56;500;03.29.36.443
12904;172624;34.56;501;03.29.36.443
12928;172626;34.56;502;03.29.36.443
12908;172624;34.56;503;03.29.36.443
12916;172619;34.56;504;03.29.36.443
12928;172619;34.56;505;03.29.36.443
12920;172626;34.56;506;03.29.36.443
12904;172614;34.56;507;03.29.36.443
12928;172628;34.56;508;03.29.36.443
12892;172613;34.56;509;03.29.36.443
12924;172625;34.56;510;03.29.36.443
12908;172626;34.56;511;03.29.36.443
12900;172633;34.56;512;03.29.36.453
12892;172626;34.56;513;03.29.36.453
12928;172623;34.56;514;03.29.36.453
12908;172632;34.56;515;03.29.36.453
12900;172631;34.56;516;03.29.36.453
12928;172628;34.56;517;03.29.36.453
12908;172632;34.56;518;03.29.36.453
12908;172628;34.56;519;03.29.36.453
12892;172626;34.56;520;03.29.36.453
12912;172632;34.56;521;03.29.36.453
12912;172630;34.56;522;03.29.36.453
12916;172628;34.56;523;03.29.36.453
12908;172635;34.56;524;03.29.36.453
12880;172638;34.56;525;03.29.36.574
12912;172635;34.56;526;03.29.36.574
12916;172635;34.56;527;03.29.36.574
12892;172647;34.56;528;03.29.36.574
12916;172639;34.56;529;03.29.36.574
12912;172628;34.56;530;03.29.36.574
12928;172639;34.56;531;03.29.36.574
12916;172641;34.56;532;03.29.36.585
12892;172640;34.56;533;03.29.36.585
12896;172636;34.56;534;03.29.36.585
12932;172636;34.56;535;03.29.36.585
12904;172633;34.56;536;03.29.36.585
12904;172627;34.56;537;03.29.36.585
12892;172637;34.56;538;03.29.36.585
12920;172626;34.56;539;03.29.36.585
12916;172622;34.56;540;03.29.36.585
12912;172616;34.56;541;03.29.36.585
12916;172624;34.56;542;03.29.36.596
12904;172618;34.56;543;03.29.36.596
12892;172622;34.56;544;03.29.36.596
12908;172623;34.56;545;03.29.36.596
12892;172621;34.56;546;03.29.36.596
12904;172609;34.56;547;03.29.36.596
12908;172621;34.56;548;03.29.36.596
12908;172621;34.56;549;03.29.36.607
12932;172617;34.52;550;03.29.36.683
12892;172617;34.52;551;03.29.36.683
12896;172623;34.52;552;03.29.36.683
12892;172614;34.52;553;03.29.36.683
12888;172613;34.52;554;03.29.36.694
12904;172614;34.52;555;03.29.36.694
12912;172619;34.52;556;03.29.36.694
12892;172617;34.52;557;03.29.36.694
12900;172614;34.52;558;03.29.36.694
12892;172619;34.52;559;03.29.36.694
12936;172621;34.52;560;03.29.36.694
12928;172615;34.52;561;03.29.36.694
12908;172620;34.52;562;03.29.36.694
12892;172620;34.52;563;03.29.36.705
12892;172618;34.52;564;03.29.36.705
12920;172623;34.52;565;03.29.36.705
12912;172628;34.52;566;03.29.36.705
12892;172620;34.52;567;03.29.36.705
12916;172627;34.52;568;03.29.36.705
12924;172630;34.52;569;03.29.36.705
12908;172620;34.52;570;03.29.36.705
12928;172627;34.52;571;03.29.36.716
12876;172621;34.52;572;03.29.36.716
12908;172626;34.52;573;03.29.36.716
12920;172629;34.52;574;03.29.36.716
12916;172629;34.52;575;03.29.36.804
12908;172628;34.52;576;03.29.36.815
12904;172628;34.52;577;03.29.36.815
12916;172623;34.52;578;03.29.36.815
12912;172621;34.52;579;03.29.36.815
12888;172632;34.52;580;03.29.36.815
12936;172632;34.52;581;03.29.36.815
12928;172629;34.52;582;03.29.36.815
12932;172636;34.52;583;03.29.36.815
12896;172636;34.52;584;03.29.36.815
12920;172637;34.52;585;03.29.36.815
12920;172636;34.52;586;03.29.36.815
12892;172633;34.52;587;03.29.36.815
12920;172640;34.52;588;03.29.36.826
12912;172639;34.52;589;03.29.36.826
12912;172644;34.52;590;03.29.36.826
12916;172644;34.52;591;03.29.36.826
12912;172643;34.52;592;03.29.36.826
12944;172643;34.52;593;03.29.36.826
12892;172646;34.52;594;03.29.36.826
12900;172642;34.52;595;03.29.36.826
12912;172644;34.52;596;03.29.36.826
12932;172643;34.52;597;03.29.36.826
12912;172641;34.52;598;03.29.36.826
12928;172650;34.52;599;03.29.36.826
12908;172653;34.52;600;03.29.36.936
12920;172644;34.52;601;03.29.36.936
12928;172646;34.52;602;03.29.36.936
12932;172645;34.52;603;03.29.36.936
12928;172639;34.52;604;03.29.36.936
12928;172648;34.52;605;03.29.36.936
12904;172648;34.52;606;03.29.36.936
12944;172654;34.52;607;03.29.36.936
12900;172645;34.52;608;03.29.36.936
12932;172646;34.52;609;03.29.36.947
12928;172645;34.52;610;03.29.36.947
12912;172652;34.52;611;03.29.36.947
12900;172657;34.52;612;03.29.36.947
12920;172657;34.52;613;03.29.36.947
12908;172652;34.52;614;03.29.36.947
12928;172651;34.52;615;03.29.36.947
12904;172656;34.52;616;03.29.36.947
12912;172659;34.52;617;03.29.36.947
12916;172667;34.52;618;03.29.36.947
12920;172667;34.52;619;03.29.36.947
12912;172661;34.52;620;03.29.36.947
12912;172658;34.52;621;03.29.36.947
12904;172665;34.52;622;03.29.36.958
12908;172670;34.52;623;03.29.36.958
12908;172666;34.52;624;03.29.36.958
12920;172668;34.52;625;03.29.37.067
12916;172665;34.52;626;03.29.37.067
12912;172662;34.52;627;03.29.37.067
12928;172672;34.52;628;03.29.37.067
12924;172670;34.52;629;03.29.37.067
12936;172672;34.52;630;03.29.37.078
12928;172674;34.52;631;03.29.37.078
12908;172672;34.52;632;03.29.37.078
12920;172674;34.52;633;03.29.37.078
12892;172665;34.52;634;03.29.37.078
12900;172667;34.52;635;03.29.37.078
12928;172663;34.52;636;03.29.37.078
12884;172656;34.52;637;03.29.37.078
12912;172655;34.52;638;03.29.37.078
12884;172646;34.52;639;03.29.37.078
12920;172640;34.52;640;03.29.37.078
12916;172631;34.52;641;03.29.37.078
12884;172635;34.52;642;03.29.37.078
12912;172627;34.52;643;03.29.37.089
12888;172620;34.52;644;03.29.37.089
12940;172623;34.52;645;03.29.37.089
12904;172610;34.52;646;03.29.37.089
12916;172602;34.52;647;03.29.37.089
12896;172602;34.52;648;03.29.37.089
12928;172596;34.52;649;03.29.37.089
12908;172599;34.52;650;03.29.37.199
12908;172596;34.52;651;03.29.37.199
12904;172581;34.52;652;03.29.37.210
12928;172583;34.52;653;03.29.37.210
12900;172584;34.52;654;03.29.37.210
12884;172583;34.52;655;03.29.37.210
12928;172584;34.52;656;03.29.37.210
12908;172570;34.52;657;03.29.37.210
12920;172567;34.52;658;03.29.37.210
12908;172573;34.52;659;03.29.37.210
12888;172567;34.52;660;03.29.37.210
12940;172566;34.52;661;03.29.37.210
12876;172565;34.52;662;03.29.37.210
12912;172567;34.52;663;03.29.37.210
12912;172570;34.52;664;03.29.37.221
12952;172566;34.52;665;03.29.37.221
12912;172567;34.52;666;03.29.37.221
12924;172565;34.52;667;03.29.37.221
12900;172555;34.52;668;03.29.37.221
12900;172560;34.52;669;03.29.37.221
12892;172565;34.52;670;03.29.37.221
12904;172568;34.52;671;03.29.37.221
12928;172561;34.52;672;03.29.37.221
12900;172551;34.52;673;03.29.37.221
12944;172556;34.52;674;03.29.37.221
12900;172550;34.52;675;03.29.37.320
12936;172552;34.52;676;03.29.37.320
12916;172547;34.52;677;03.29.37.320
12924;172557;34.52;678;03.29.37.320
12908;172546;34.52;679;03.29.37.320
12924;172548;34.52;680;03.29.37.320
12912;172546;34.52;681;03.29.37.320
12892;172552;34.52;682;03.29.37.320
12892;172541;34.52;683;03.29.37.331
12892;172551;34.52;684;03.29.37.331
12908;172540;34.52;685;03.29.37.331
12904;172535;34.52;686;03.29.37.331
12908;172548;34.52;687;03.29.37.331
12928;172549;34.52;688;03.29.37.331
12928;172538;34.52;689;03.29.37.331
12916;172538;34.52;690;03.29.37.331
12928;172533;34.52;691;03.29.37.331
12908;172536;34.52;692;03.29.37.331
12920;172528;34.52;693;03.29.37.331
12916;172531;34.52;694;03.29.37.342
12916;172532;34.52;695;03.29.37.342
12908;172531;34.52;696;03.29.37.342
12892;172537;34.52;697;03.29.37.342
12908;172530;34.52;698;03.29.37.342
12932;172532;34.52;699;03.29.37.342
12920;172540;34.56;700;03.29.37.440
12924;172532;34.56;701;03.29.37.440
12944;172531;34.56;702;03.29.37.440
12916;172528;34.56;703;03.29.37.440
12908;172528;34.56;704;03.29.37.440
12908;172530;34.56;705;03.29.37.440
12920;172531;34.56;706;03.29.37.440
12928;172524;34.56;707;03.29.37.440
12900;172533;34.56;708;03.29.37.451
12908;172522;34.56;709;03.29.37.451
12908;172525;34.56;710;03.29.37.451
12920;172520;34.56;711;03.29.37.451
12944;172525;34.56;712;03.29.37.451
12892;172522;34.56;713;03.29.37.451
12908;172515;34.56;714;03.29.37.451
12892;172522;34.56;715;03.29.37.451
12908;172518;34.56;716;03.29.37.451
12928;172515;34.56;717;03.29.37.451
12916;172522;34.56;718;03.29.37.451
12908;172514;34.56;719;03.29.37.451
12928;172525;34.56;720;03.29.37.451
12900;172518;34.56;721;03.29.37.462
12920;172520;34.56;722;03.29.37.462
12920;172525;34.56;723;03.29.37.462
12904;172517;34.56;724;03.29.37.462
12928;172514;34.56;725;03.29.37.561
12900;172515;34.56;726;03.29.37.561
12928;172520;34.56;727;03.29.37.561
12904;172527;34.56;728;03.29.37.561
12928;172522;34.56;729;03.29.37.572
12884;172523;34.56;730;03.29.37.572
12932;172533;34.56;731;03.29.37.572
12920;172522;34.56;732;03.29.37.572
12908;172539;34.56;733;03.29.37.572
12928;172531;34.56;734;03.29.37.572
12912;172532;34.56;735;03.29.37.572
12896;172543;34.56;736;03.29.37.583
12928;172535;34.56;737;03.29.37.583
12904;172535;34.56;738;03.29.37.583
12904;172541;34.56;739;03.29.37.583
12924;172539;34.56;740;03.29.37.583
12904;172543;34.56;741;03.29.37.583
12916;172537;34.56;742;03.29.37.583
12924;172543;34.56;743;03.29.37.583
12912;172535;34.56;744;03.29.37.583
12920;172543;34.56;745;03.29.37.583
12928;172537;34.56;746;03.29.37.594
12920;172540;34.56;747;03.29.37.594
12892;172540;34.56;748;03.29.37.594
12928;172543;34.56;749;03.29.37.594
12928;172541;34.52;750;03.29.37.704
12900;172548;34.52;751;03.29.37.704
12908;172546;34.52;752;03.29.37.704
12924;172541;34.52;753;03.29.37.704
12908;172547;34.52;754;03.29.37.704
12928;172539;34.52;755;03.29.37.704
12908;172551;34.52;756;03.29.37.704
12904;172551;34.52;757;03.29.37.704
12920;172558;34.52;758;03.29.37.704
12888;172550;34.52;759;03.29.37.704
12928;172558;34.52;760;03.29.37.704
12924;172558;34.52;761;03.29.37.704
12932;172559;34.52;762;03.29.37.704
12916;172558;34.52;763;03.29.37.715
12928;172556;34.52;764;03.29.37.715
12904;172565;34.52;765;03.29.37.715
12912;172555;34.52;766;03.29.37.715
12932;172558;34.52;767;03.29.37.715
12892;172549;34.52;768;03.29.37.715
12912;172552;34.52;769;03.29.37.715
12912;172558;34.52;770;03.29.37.715
12956;172562;34.52;771;03.29.37.715
12928;172556;34.52;772;03.29.37.715
12916;172555;34.52;773;03.29.37.715
12944;172562;34.52;774;03.29.37.715
12928;172565;34.52;775;03.29.37.813
12916;172571;34.52;776;03.29.37.813
12912;172571;34.52;777;03.29.37.813
12924;172577;34.52;778;03.29.37.813
12904;172569;34.52;779;03.29.37.813
12884;172575;34.52;780;03.29.37.813
12908;172578;34.52;781;03.29.37.813
12900;172579;34.52;782;03.29.37.813
12924;172583;34.52;783;03.29.37.824
12928;172581;34.52;784;03.29.37.824
12916;172577;34.52;785;03.29.37.824
12928;172584;34.52;786;03.29.37.824
12912;172587;34.52;787;03.29.37.824
12904;172593;34.52;788;03.29.37.824
12932;172578;34.52;789;03.29.37.824
12932;172585;34.52;790;03.29.37.824
12892;172595;34.52;791;03.29.37.824
12904;172591;34.52;792;03.29.37.835
12896;172601;34.52;793;03.29.37.835
12928;172596;34.52;794;03.29.37.835
12892;172592;34.52;795;03.29.37.835
12904;172602;34.52;796;03.29.37.835
12928;172599;34.52;797;03.29.37.835
12928;172596;34.52;798;03.29.37.835
12944;172600;34.52;799;03.29.37.835
12900;172586;34.52;800;03.29.37.933
12920;172592;34.52;801;03.29.37.933
12928;172588;34.52;802;03.29.37.933
12912;172581;34.52;803;03.29.37.933
12940;172569;34.52;804;03.29.37.933
12904;172573;34.52;805;03.29.37.944
12924;172561;34.52;806;03.29.37.944
12936;172565;34.52;807;03.29.37.944
12900;172560;34.52;808;03.29.37.944
12908;172559;34.52;809;03.29.37.944
12924;172549;34.52;810;03.29.37.944
12884;172545;34.52;811;03.29.37.944
12928;172548;34.52;812;03.29.37.944
12932;172540;34.52;813;03.29.37.944
12904;172533;34.52;814;03.29.37.944
12912;172533;34.52;815;03.29.37.944
12904;172528;34.52;816;03.29.37.944
12900;172531;34.52;817;03.29.37.944
12912;172520;34.52;818;03.29.37.955
12928;172523;34.52;819;03.29.37.955
12892;172522;34.52;820;03.29.37.955
12904;172514;34.52;821;03.29.37.955
12928;172520;34.52;822;03.29.37.955
12876;172514;34.52;823;03.29.37.955
12904;172509;34.52;824;03.29.37.955
12928;172517;34.52;825;03.29.38.054
12928;172508;34.52;826;03.29.38.065
12904;172518;34.52;827;03.29.38.065
12912;172516;34.52;828;03.29.38.065
12948;172508;34.52;829;03.29.38.065
12936;172521;34.52;830;03.29.38.065
12928;172519;34.52;831;03.29.38.065
12928;172518;34.52;832;03.29.38.065
12896;172519;34.52;833;03.29.38.065
12920;172516;34.52;834;03.29.38.065
12928;172504;34.52;835;03.29.38.065
12904;172512;34.52;836;03.29.38.065
12912;172515;34.52;837;03.29.38.065
12928;172524;34.52;838;03.29.38.065
12916;172520;34.52;839;03.29.38.076
12904;172522;34.52;840;03.29.38.076
12928;172525;34.52;841;03.29.38.076
12936;172519;34.52;842;03.29.38.076
12920;172523;34.52;843;03.29.38.076
12892;172521;34.52;844;03.29.38.076
12924;172518;34.52;845;03.29.38.076
12948;172518;34.52;846;03.29.38.076
12920;172516;34.52;847;03.29.38.076
12912;172517;34.52;848;03.29.38.076
12928;172516;34.52;849;03.29.38.076
12928;172514;34.52;850;03.29.38.207
12916;172516;34.52;851;03.29.38.207
12924;172520;34.52;852;03.29.38.207
12908;172519;34.52;853;03.29.38.207
12916;172525;34.52;854;03.29.38.207
12916;172528;34.52;855;03.29.38.207
12904;172526;34.52;856;03.29.38.207
12928;172526;34.52;857;03.29.38.207
12904;172530;34.52;858;03.29.38.207
12912;172519;34.52;859;03.29.38.207
12932;172527;34.52;860;03.29.38.218
12924;172524;34.52;861;03.29.38.218
12928;172525;34.52;862;03.29.38.218
12904;172521;34.52;863;03.29.38.218
12892;172518;34.52;864;03.29.38.218
12892;172521;34.52;865;03.29.38.218
12908;172512;34.52;866;03.29.38.218
12924;172514;34.52;867;03.29.38.218
12928;172515;34.52;868;03.29.38.218
12880;172516;34.52;869;03.29.38.218
12928;172516;34.52;870;03.29.38.218
12936;172514;34.52;871;03.29.38.218
12916;172519;34.52;872;03.29.38.229
12876;172515;34.52;873;03.29.38.229
12944;172517;34.52;874;03.29.38.229
12908;172505;34.52;875;03.29.38.317
12932;172519;34.52;876;03.29.38.317
12920;172520;34.52;877;03.29.38.317
12912;172526;34.52;878;03.29.38.317
12876;172527;34.52;879;03.29.38.317
12908;172522;34.52;880;03.29.38.328
12924;172526;34.52;881;03.29.38.328
12908;172525;34.52;882;03.29.38.328
12892;172533;34.52;883;03.29.38.328
12892;172517;34.52;884;03.29.38.328
12920;172529;34.52;885;03.29.38.328
12928;172518;34.52;886;03.29.38.328
12900;172532;34.52;887;03.29.38.328
12928;172531;34.52;888;03.29.38.328
12892;172530;34.52;889;03.29.38.328
12892;172533;34.52;890;03.29.38.328
12944;172535;34.52;891;03.29.38.328
12892;172536;34.52;892;03.29.38.339
12900;172543;34.52;893;03.29.38.339
12892;172542;34.52;894;03.29.38.339
12892;172535;34.52;895;03.29.38.339
12932;172541;34.52;896;03.29.38.339
12900;172540;34.52;897;03.29.38.339
12944;172540;34.52;898;03.29.38.339
12924;172551;34.52;899;03.29.38.350
12896;172544;34.56;900;03.29.38.438
12920;172543;34.56;901;03.29.38.438
12904;172546;34.56;902;03.29.38.438
12904;172546;34.56;903;03.29.38.449
12916;172547;34.56;904;03.29.38.449
12892;172540;34.56;905;03.29.38.449
12916;172549;34.56;906;03.29.38.449
12860;172549;34.56;907;03.29.38.449
12916;172558;34.56;908;03.29.38.449
12908;172554;34.56;909;03.29.38.449
12928;172558;34.56;910;03.29.38.449
12912;172561;34.56;911;03.29.38.449
12920;172561;34.56;912;03.29.38.449
12892;172560;34.56;913;03.29.38.449
12896;172567;34.56;914;03.29.38.449
12924;172554;34.56;915;03.29.38.449
12928;172562;34.56;916;03.29.38.460
12908;172563;34.56;917;03.29.38.471
12928;172568;34.56;918;03.29.38.471
12904;172562;34.56;919;03.29.38.471
12912;172563;34.56;920;03.29.38.482
12928;172568;34.56;921;03.29.38.482
12892;172552;34.56;922;03.29.38.482
12912;172564;34.56;923;03.29.38.482
12932;172560;34.56;924;03.29.38.482
12860;172565;34.56;925;03.29.38.569
12916;172568;34.56;926;03.29.38.569
12908;172571;34.56;927;03.29.38.569
12912;172567;34.56;928;03.29.38.569
12904;172572;34.56;929;03.29.38.569
12916;172573;34.56;930;03.29.38.569
12912;172579;34.56;931;03.29.38.569
12916;172577;34.56;932;03.29.38.569
12912;172568;34.56;933;03.29.38.569
12884;172576;34.56;934;03.29.38.569
12924;172580;34.56;935;03.29.38.569
12928;172577;34.56;936;03.29.38.569
12904;172576;34.56;937;03.29.38.569
12896;172579;34.56;938;03.29.38.580
12924;172587;34.56;939;03.29.38.580
12924;172588;34.56;940;03.29.38.580
12908;172585;34.56;941;03.29.38.580
12888;172579;34.56;942;03.29.38.580
12892;172586;34.56;943;03.29.38.580
12928;172586;34.56;944;03.29.38.580
12936;172573;34.56;945;03.29.38.580
12920;172585;34.56;946;03.29.38.580
12904;172587;34.56;947;03.29.38.580
12912;172589;34.56;948;03.29.38.580
12928;172582;34.56;949;03.29.38.580
12896;172590;34.56;950;03.29.38.701
12936;172581;34.56;951;03.29.38.701
12892;172584;34.56;952;03.29.38.701
12892;172584;34.56;953;03.29.38.701
12912;172582;34.56;954;03.29.38.701
12892;172578;34.56;955;03.29.38.701
12900;172573;34.56;956;03.29.38.701
12940;172576;34.56;957;03.29.38.701
12924;172565;34.56;958;03.29.38.701
12912;172563;34.56;959;03.29.38.712
12908;172562;34.56;960;03.29.38.712
12924;172546;34.56;961;03.29.38.712
12928;172546;34.56;962;03.29.38.712
12908;172551;34.56;963;03.29.38.712
12884;172544;34.56;964;03.29.38.712
12908;172538;34.56;965;03.29.38.712
12916;172534;34.56;966;03.29.38.712
12928;172532;34.56;967;03.29.38.712
12960;172531;34.56;968;03.29.38.712
12908;172522;34.56;969;03.29.38.712
12932;172517;34.56;970;03.29.38.712
12900;172509;34.56;971;03.29.38.723
12908;172525;34.56;972;03.29.38.723
12904;172516;34.56;973;03.29.38.723
12936;172512;34.56;974;03.29.38.723
12924;172516;34.56;975;03.29.38.833
12900;172512;34.56;976;03.29.38.833
12932;172514;34.56;977;03.29.38.833
12904;172519;34.56;978;03.29.38.833
12928;172507;34.56;979;03.29.38.833
12912;172514;34.56;980;03.29.38.844
12892;172505;34.56;981;03.29.38.844
12892;172511;34.56;982;03.29.38.844
12932;172502;34.56;983;03.29.38.844
12916;172514;34.56;984;03.29.38.844
12892;172513;34.56;985;03.29.38.844
12876;172513;34.56;986;03.29.38.844
12928;172514;34.56;987;03.29.38.844
12924;172512;34.56;988;03.29.38.844
12916;172501;34.56;989;03.29.38.844
12892;172514;34.56;990;03.29.38.844
12920;172505;34.56;991;03.29.38.844
12916;172502;34.56;992;03.29.38.855
12892;172502;34.56;993;03.29.38.855
12960;172508;34.56;994;03.29.38.855
12908;172507;34.56;995;03.29.38.855
12928;172506;34.56;996;03.29.38.855
12892;172503;34.56;997;03.29.38.866
12904;172516;34.56;998;03.29.38.866
12924;172514;34.56;999;03.29.38.866
12912;172509;34.52;000;03.29.38.964
12944;172508;34.52;001;03.29.38.975
12892;172507;34.52;002;03.29.38.975
12892;172503;34.52;003;03.29.38.975
12916;172502;34.52;004;03.29.38.975
12932;172506;34.52;005;03.29.38.975
12900;172507;34.52;006;03.29.38.975
12900;172504;34.52;007;03.29.38.975
12908;172508;34.52;008;03.29.38.975
12928;172505;34.52;009;03.29.38.975
12896;172508;34.52;010;03.29.38.975
12920;172503;34.52;011;03.29.38.975
12924;172509;34.52;012;03.29.38.975
12920;172492;34.52;013;03.29.38.986
12904;172498;34.52;014;03.29.38.986
12932;172502;34.52;015;03.29.38.986
12908;172504;34.52;016;03.29.38.986
12928;172503;34.52;017;03.29.38.986
12928;172498;34.52;018;03.29.38.986
12916;172501;34.52;019;03.29.38.986
12916;172498;34.52;020;03.29.38.986
12944;172500;34.52;021;03.29.38.986
12892;172498;34.52;022;03.29.38.986
12920;172495;34.52;023;03.29.38.986
12920;172495;34.52;024;03.29.38.986
12924;172493;34.52;025;03.29.39.074
12908;172495;34.52;026;03.29.39.074
12908;172499;34.52;027;03.29.39.074
12928;172499;34.52;028;03.29.39.074
12932;172494;34.52;029;03.29.39.074
12940;172492;34.52;030;03.29.39.074
12904;172505;34.52;031;03.29.39.074
12944;172493;34.52;032;03.29.39.074
12912;172496;34.52;033;03.29.39.074
12928;172493;34.52;034;03.29.39.074
12900;172502;34.52;035;03.29.39.074
12928;172493;34.52;036;03.29.39.074
12916;172496;34.52;037;03.29.39.085
12944;172499;34.52;038;03.29.39.085
12916;172499;34.52;039;03.29.39.085
12928;172502;34.52;040;03.29.39.085
12904;172491;34.52;041;03.29.39.085
12904;172500;34.52;042;03.29.39.085
12932;172494;34.52;043;03.29.39.085
12932;172492;34.52;044;03.29.39.085
12916;172504;34.52;045;03.29.39.085
12912;172503;34.52;046;03.29.39.085
12912;172500;34.52;047;03.29.39.085
12892;172508;34.52;048;03.29.39.085
12928;172500;34.52;049;03.29.39.085
12904;172501;34.52;050;03.29.39.206
12908;172503;34.52;051;03.29.39.206
12928;172499;34.52;052;03.29.39.206
12900;172496;34.52;053;03.29.39.206
12912;172497;34.52;054;03.29.39.206
12904;172513;34.52;055;03.29.39.206
12928;172516;34.52;056;03.29.39.217
12912;172505;34.52;057;03.29.39.217
12896;172513;34.52;058;03.29.39.217
12908;172506;34.52;059;03.29.39.217
12904;172509;34.52;060;03.29.39.217
12892;172514;34.52;061;03.29.39.217
12928;172519;34.52;062;03.29.39.217
12876;172517;34.52;063;03.29.39.217
12924;172513;34.52;064;03.29.39.217
12912;172523;34.52;065;03.29.39.217
12904;172524;34.52;066;03.29.39.229
12904;172522;34.52;067;03.29.39.240
12896;172514;34.52;068;03.29.39.240
12932;172512;34.52;069;03.29.39.240
12884;172518;34.52;070;03.29.39.240
12904;172524;34.52;071;03.29.39.240
12928;172523;34.52;072;03.29.39.240
12936;172523;34.52;073;03.29.39.240
12892;172523;34.52;074;03.29.39.251
12908;172513;34.52;075;03.29.39.327
12912;172519;34.52;076;03.29.39.327
12932;172521;34.52;077;03.29.39.327
12928;172516;34.52;078;03.29.39.327
12920;172520;34.52;079;03.29.39.338
12928;172519;34.52;080;03.29.39.338
12928;172526;34.52;081;03.29.39.338
12924;172529;34.52;082;03.29.39.338
12900;172533;34.52;083;03.29.39.338
12936;172539;34.52;084;03.29.39.338
12908;172538;34.52;085;03.29.39.338
12944;172529;34.52;086;03.29.39.338
12924;172539;34.52;087;03.29.39.338
12916;172536;34.52;088;03.29.39.338
12892;172547;34.52;089;03.29.39.338
12916;172554;34.52;090;03.29.39.338
12924;172549;34.52;091;03.29.39.338
12908;172537;34.52;092;03.29.39.349
12896;172550;34.52;093;03.29.39.349
12904;172544;34.52;094;03.29.39.349
12892;172552;34.52;095;03.29.39.349
12892;172557;34.52;096;03.29.39.349
12892;172561;34.52;097;03.29.39.349
12908;172560;34.52;098;03.29.39.349
12920;172553;34.52;099;03.29.39.349
12916;172550;34.52;100;03.29.39.470
12928;172556;34.52;101;03.29.39.470
12916;172564;34.52;102;03.29.39.470
12908;172558;34.52;103;03.29.39.470
12928;172556;34.52;104;03.29.39.470
12888;172551;34.52;105;03.29.39.470
12904;172550;34.52;106;03.29.39.470
12908;172548;34.52;107;03.29.39.470
12900;172540;34.52;108;03.29.39.470
12924;172537;34.52;109;03.29.39.470
12892;172532;34.52;110;03.29.39.470
12920;172531;34.52;111;03.29.39.470
12928;172510;34.52;112;03.29.39.481
12892;172519;34.52;113;03.29.39.481
12908;172511;34.52;114;03.29.39.481
12912;172508;34.52;115;03.29.39.481
12928;172502;34.52;116;03.29.39.481
12928;172497;34.52;117;03.29.39.481
12904;172498;34.52;118;03.29.39.481
12912;172490;34.52;119;03.29.39.481
12932;172494;34.52;120;03.29.39.481
12900;172480;34.52;121;03.29.39.481
12912;172487;34.52;122;03.29.39.481
12936;172476;34.52;123;03.29.39.481
12948;172478;34.52;124;03.29.39.481
12892;172469;34.52;125;03.29.39.567
12912;172464;34.52;126;03.29.39.567
12904;172466;34.52;127;03.29.39.567
12928;172462;34.52;128;03.29.39.567
12944;172459;34.52;129;03.29.39.567
12928;172456;34.52;130;03.29.39.567
12928;172465;34.52;131;03.29.39.567
12928;172464;34.52;132;03.29.39.567
12932;172461;34.52;133;03.29.39.567
12916;172471;34.52;134;03.29.39.578
12944;172461;34.52;135;03.29.39.578
12936;172461;34.52;136;03.29.39.578
12892;172460;34.52;137;03.29.39.578
12936;172468;34.52;138;03.29.39.578
12940;172461;34.52;139;03.29.39.578
12924;172455;34.52;140;03.29.39.578
12932;172459;34.52;141;03.29.39.578
12928;172462;34.52;142;03.29.39.600
12928;172462;34.52;143;03.29.39.600
12928;172453;34.52;144;03.29.39.600
12932;172455;34.52;145;03.29.39.600
12924;172465;34.52;146;03.29.39.600
12928;172452;34.52;147;03.29.39.600
12908;172450;34.52;148;03.29.39.600
12936;172460;34.52;149;03.29.39.600
12920;172454;34.56;150;03.29.39.688
12924;172455;34.56;151;03.29.39.688
12908;172450;34.56;152;03.29.39.688
12892;172454;34.56;153;03.29.39.688
12900;172457;34.56;154;03.29.39.699
12928;172462;34.56;155;03.29.39.699
12908;172464;34.56;156;03.29.39.699
12936;172466;34.56;157;03.29.39.699
12928;172454;34.56;158;03.29.39.699
12916;172458;34.56;159;03.29.39.699
12928;172463;34.56;160;03.29.39.699
12944;172464;34.56;161;03.29.39.699
12916;172462;34.56;162;03.29.39.699
12920;172469;34.56;163;03.29.39.699
12900;172466;34.56;164;03.29.39.699
12912;172467;34.56;165;03.29.39.699
12892;172473;34.56;166;03.29.39.699
12892;172470;34.56;167;03.29.39.710
12928;172460;34.56;168;03.29.39.710
12920;172465;34.56;169;03.29.39.710
12912;172461;34.56;170;03.29.39.710
12924;172456;34.56;171;03.29.39.710
12912;172470;34.56;172;03.29.39.710
12908;172467;34.56;173;03.29.39.710
12924;172470;34.56;174;03.29.39.710
12908;172468;34.56;175;03.29.39.820
12904;172473;34.56;176;03.29.39.831
12916;172469;34.56;177;03.29.39.831
12920;172466;34.56;178;03.29.39.831
12916;172476;34.56;179;03.29.39.831
12900;172471;34.56;180;03.29.39.831
12932;172463;34.56;181;03.29.39.831
12884;172462;34.56;182;03.29.39.831
12916;172471;34.56;183;03.29.39.831
12892;172459;34.56;184;03.29.39.831
12920;172477;34.56;185;03.29.39.831
12924;172462;34.56;186;03.29.39.831
12928;172466;34.56;187;03.29.39.831
12912;172470;34.56;188;03.29.39.831
12904;172470;34.56;189;03.29.39.842
12936;172472;34.56;190;03.29.39.842
12912;172465;34.56;191;03.29.39.842
12908;172474;34.56;192;03.29.39.842
12936;172465;34.56;193;03.29.39.842
12916;172469;34.56;194;03.29.39.842
12932;172468;34.56;195;03.29.39.842
12916;172466;34.56;196;03.29.39.842
12892;172467;34.56;197;03.29.39.842
12932;172460;34.56;198;03.29.39.842
12936;172460;34.56;199;03.29.39.842
12916;172464;34.56;200;03.29.39.940
12920;172467;34.56;201;03.29.39.940
12892;172463;34.56;202;03.29.39.940
12924;172467;34.56;203;03.29.39.940
12900;172461;34.56;204;03.29.39.940
12928;172467;34.56;205;03.29.39.940
12900;172467;34.56;206;03.29.39.940
12916;172473;34.56;207;03.29.39.940
12888;172468;34.56;208;03.29.39.962
12940;172471;34.56;209;03.29.39.962
12936;172477;34.56;210;03.29.39.962
12908;172467;34.56;211;03.29.39.962
12904;172476;34.56;212;03.29.39.962
12916;172471;34.56;213;03.29.39.962
12932;172471;34.56;214;03.29.39.962
12888;172479;34.56;215;03.29.39.962
12928;172475;34.56;216;03.29.39.962
12928;172472;34.56;217;03.29.39.962
12916;172470;34.56;218;03.29.39.973
12912;172483;34.56;219;03.29.39.973
12892;172482;34.56;220;03.29.39.973
12900;172486;34.56;221;03.29.39.973
12916;172485;34.56;222;03.29.39.973
12928;172486;34.56;223;03.29.39.973
12920;172479;34.56;224;03.29.39.973
12920;172491;34.56;225;03.29.40.061
12940;172481;34.56;226;03.29.40.061
12920;172484;34.56;227;03.29.40.061
12920;172500;34.56;228;03.29.40.061
12916;172488;34.56;229;03.29.40.061
12928;172500;34.56;230;03.29.40.061
12896;172500;34.56;231;03.29.40.061
12896;172507;34.56;232;03.29.40.072
12896;172506;34.56;233;03.29.40.072
12944;172507;34.56;234;03.29.40.072
12892;172513;34.56;235;03.29.40.072
12892;172510;34.56;236;03.29.40.072
12940;172517;34.56;237;03.29.40.072
12916;172515;34.56;238;03.29.40.072
12920;172516;34.56;239;03.29.40.072
12900;172525;34.56;240;03.29.40.072
12892;172520;34.56;241;03.29.40.072
12908;172520;34.56;242;03.29.40.072
12892;172513;34.56;243;03.29.40.072
12916;172513;34.56;244;03.29.40.072
12908;172529;34.56;245;03.29.40.083
12916;172536;34.56;246;03.29.40.083
12904;172538;34.56;247;03.29.40.083
12916;172546;34.56;248;03.29.40.083
12920;172556;34.56;249;03.29.40.083
12928;172547;34.56;250;03.29.40.182
12924;172557;34.56;251;03.29.40.182
12932;172558;34.56;252;03.29.40.182
12916;172558;34.56;253;03.29.40.193
12888;172569;34.56;254;03.29.40.193
12928;172565;34.56;255;03.29.40.193
12920;172572;34.56;256;03.29.40.193
12920;172576;34.56;257;03.29.40.193
12900;172569;34.56;258;03.29.40.193
12932;172576;34.56;259;03.29.40.193
12892;172574;34.56;260;03.29.40.193
12932;172581;34.56;261;03.29.40.193
12892;172585;34.56;262;03.29.40.193
12912;172580;34.56;263;03.29.40.193
12916;172579;34.56;264;03.29.40.193
12904;172580;34.56;265;03.29.40.193
12900;172568;34.56;266;03.29.40.204
12904;172565;34.56;267;03.29.40.204
12900;172562;34.56;268;03.29.40.204
12904;172561;34.56;269;03.29.40.204
12928;172557;34.56;270;03.29.40.204
12912;172560;34.56;271;03.29.40.204
12892;172550;34.56;272;03.29.40.204
12928;172542;34.56;273;03.29.40.204
12952;172531;34.56;274;03.29.40.204
12936;172521;34.56;275;03.29.40.324
12912;172515;34.56;276;03.29.40.324
12944;172518;34.56;277;03.29.40.324
12928;172513;34.56;278;03.29.40.324
12892;172513;34.56;279;03.29.40.324
12888;172499;34.56;280;03.29.40.324
12912;172501;34.56;281;03.29.40.324
12932;172499;34.56;282;03.29.40.324
12904;172501;34.56;283;03.29.40.324
12912;172492;34.56;284;03.29.40.324
12924;172488;34.56;285;03.29.40.324
12908;172486;34.56;286;03.29.40.324
12928;172473;34.56;287;03.29.40.335
12888;172481;34.56;288;03.29.40.335
12908;172475;34.56;289;03.29.40.335
12928;172483;34.56;290;03.29.40.335
12928;172478;34.56;291;03.29.40.335
12892;172475;34.56;292;03.29.40.335
12904;172471;34.56;293;03.29.40.335
12908;172477;34.56;294;03.29.40.335
12928;172476;34.56;295;03.29.40.335
12932;172475;34.56;296;03.29.40.335
12932;172481;34.56;297;03.29.40.346
12928;172476;34.56;298;03.29.40.346
12960;172464;34.56;299;03.29.40.346
12924;172478;34.52;300;03.29.40.456
12920;172482;34.52;301;03.29.40.456
12892;172486;34.52;302;03.29.40.456
12908;172484;34.52;303;03.29.40.456
12912;172474;34.52;304;03.29.40.456
12912;172485;34.52;305;03.29.40.456
12888;172485;34.52;306;03.29.40.456
12892;172480;34.52;307;03.29.40.456
12892;172480;34.52;308;03.29.40.456
12916;172484;34.52;309;03.29.40.467
12924;172480;34.52;310;03.29.40.467
12904;172482;34.52;311;03.29.40.467
12924;172490;34.52;312;03.29.40.467
12912;172490;34.52;313;03.29.40.467
12916;172493;34.52;314;03.29.40.467
12928;172494;34.52;315;03.29.40.467
12944;172487;34.52;316;03.29.40.467
12932;172489;34.52;317;03.29.40.467
12884;172501;34.52;318;03.29.40.467
12936;172492;34.52;319;03.29.40.467
12928;172492;34.52;320;03.29.40.467
12936;172509;34.52;321;03.29.40.468
12948;172501;34.52;322;03.29.40.479
12904;172504;34.52;323;03.29.40.479
12904;172500;34.52;324;03.29.40.479
12892;172506;34.52;325;03.29.40.566
12944;172499;34.52;326;03.29.40.566
12900;172506;34.52;327;03.29.40.566
12892;172509;34.52;328;03.29.40.566
12904;172508;34.52;329;03.29.40.566
12900;172503;34.52;330;03.29.40.566
12892;172502;34.52;331;03.29.40.577
