gsr; bvp; skt; skt2; Cont; time
12876;170790;34.80;050;03.47.40.456
12904;170787;34.80;051;03.47.40.456
12900;170790;34.80;052;03.47.40.456
12912;170793;34.80;053;03.47.40.456
12888;170788;34.80;054;03.47.40.456
12920;170785;34.80;055;03.47.40.456
12904;170784;34.80;056;03.47.40.467
12892;170783;34.80;057;03.47.40.467
12912;170780;34.80;058;03.47.40.467
12880;170785;34.80;059;03.47.40.467
12908;170785;34.80;060;03.47.40.467
12912;170781;34.80;061;03.47.40.467
12908;170791;34.80;062;03.47.40.467
12880;170781;34.80;063;03.47.40.467
12920;170792;34.80;064;03.47.40.467
12884;170784;34.80;065;03.47.40.467
12920;170776;34.80;066;03.47.40.467
12908;170783;34.80;067;03.47.40.467
12928;170785;34.80;068;03.47.40.467
12912;170792;34.80;069;03.47.40.480
12904;170794;34.80;070;03.47.40.480
12908;170792;34.80;071;03.47.40.480
12912;170792;34.80;072;03.47.40.480
12912;170791;34.80;073;03.47.40.480
12908;170798;34.80;074;03.47.40.480
12904;170796;34.80;075;03.47.40.595
12924;170803;34.80;076;03.47.40.595
12900;170795;34.80;077;03.47.40.595
12896;170792;34.80;078;03.47.40.595
12908;170794;34.80;079;03.47.40.595
12928;170794;34.80;080;03.47.40.595
12912;170807;34.80;081;03.47.40.595
12888;170805;34.80;082;03.47.40.595
12928;170803;34.80;083;03.47.40.595
12928;170811;34.80;084;03.47.40.595
12892;170805;34.80;085;03.47.40.595
12904;170807;34.80;086;03.47.40.606
12916;170816;34.80;087;03.47.40.606
12912;170810;34.80;088;03.47.40.606
12900;170813;34.80;089;03.47.40.606
12892;170812;34.80;090;03.47.40.606
12916;170819;34.80;091;03.47.40.606
12920;170833;34.80;092;03.47.40.606
12880;170819;34.80;093;03.47.40.606
12916;170826;34.80;094;03.47.40.606
12928;170824;34.80;095;03.47.40.606
12892;170826;34.80;096;03.47.40.606
12908;170827;34.80;097;03.47.40.606
12892;170825;34.80;098;03.47.40.606
12928;170836;34.80;099;03.47.40.617
12904;170828;34.80;100;03.47.40.704
12912;170832;34.80;101;03.47.40.704
12884;170840;34.80;102;03.47.40.704
12880;170838;34.80;103;03.47.40.704
12892;170838;34.80;104;03.47.40.704
12892;170833;34.80;105;03.47.40.704
12908;170845;34.80;106;03.47.40.704
12904;170840;34.80;107;03.47.40.714
12920;170843;34.80;108;03.47.40.714
12912;170849;34.80;109;03.47.40.714
12928;170838;34.80;110;03.47.40.714
12920;170850;34.80;111;03.47.40.714
12876;170845;34.80;112;03.47.40.714
12920;170835;34.80;113;03.47.40.725
12892;170847;34.80;114;03.47.40.725
12896;170842;34.80;115;03.47.40.725
12904;170851;34.80;116;03.47.40.725
12928;170848;34.80;117;03.47.40.725
12896;170846;34.80;118;03.47.40.725
12912;170847;34.80;119;03.47.40.725
12904;170837;34.80;120;03.47.40.725
12920;170836;34.80;121;03.47.40.725
12908;170822;34.80;122;03.47.40.725
12892;170823;34.80;123;03.47.40.725
12940;170821;34.80;124;03.47.40.725
12900;170823;34.80;125;03.47.40.824
12916;170812;34.80;126;03.47.40.824
12904;170811;34.80;127;03.47.40.835
12912;170800;34.80;128;03.47.40.835
12912;170796;34.80;129;03.47.40.835
12860;170799;34.80;130;03.47.40.835
12908;170794;34.80;131;03.47.40.835
12904;170786;34.80;132;03.47.40.835
12904;170783;34.80;133;03.47.40.835
12916;170780;34.80;134;03.47.40.835
12912;170782;34.80;135;03.47.40.835
12892;170773;34.80;136;03.47.40.835
12900;170771;34.80;137;03.47.40.835
12912;170772;34.80;138;03.47.40.835
12892;170764;34.80;139;03.47.40.835
12932;170773;34.80;140;03.47.40.846
12912;170759;34.80;141;03.47.40.846
12884;170760;34.80;142;03.47.40.846
12912;170757;34.80;143;03.47.40.846
12892;170765;34.80;144;03.47.40.846
12928;170756;34.80;145;03.47.40.846
12932;170762;34.80;146;03.47.40.846
12916;170759;34.80;147;03.47.40.846
12888;170765;34.80;148;03.47.40.846
12908;170753;34.80;149;03.47.40.846
12920;170755;34.04;150;03.47.40.967
12916;170758;34.04;151;03.47.40.967
12928;170762;34.04;152;03.47.40.967
12944;170768;34.04;153;03.47.40.967
12896;170757;34.04;154;03.47.40.967
12916;170758;34.04;155;03.47.40.967
12928;170760;34.04;156;03.47.40.967
12908;170759;34.04;157;03.47.40.967
12908;170759;34.04;158;03.47.40.967
12860;170762;34.04;159;03.47.40.967
12892;170759;34.04;160;03.47.40.967
12896;170770;34.04;161;03.47.40.978
12912;170769;34.04;162;03.47.40.978
12876;170771;34.04;163;03.47.40.978
12900;170762;34.04;164;03.47.40.978
12928;170761;34.04;165;03.47.40.978
12904;170765;34.04;166;03.47.40.978
12888;170768;34.04;167;03.47.40.978
12888;170765;34.04;168;03.47.40.978
12908;170768;34.04;169;03.47.40.978
12892;170773;34.04;170;03.47.40.978
12908;170774;34.04;171;03.47.40.978
12908;170773;34.04;172;03.47.40.978
12884;170763;34.04;173;03.47.40.978
12916;170761;34.04;174;03.47.40.989
12928;170768;34.04;175;03.47.41.098
12892;170767;34.04;176;03.47.41.098
12904;170775;34.04;177;03.47.41.098
12928;170760;34.04;178;03.47.41.098
12892;170777;34.04;179;03.47.41.098
12884;170763;34.04;180;03.47.41.098
12920;170768;34.04;181;03.47.41.098
12908;170778;34.04;182;03.47.41.098
12904;170765;34.04;183;03.47.41.109
12900;170767;34.04;184;03.47.41.109
12900;170766;34.04;185;03.47.41.109
12892;170766;34.04;186;03.47.41.109
12908;170762;34.04;187;03.47.41.109
12892;170773;34.04;188;03.47.41.109
12924;170770;34.04;189;03.47.41.109
12904;170764;34.04;190;03.47.41.109
12908;170762;34.04;191;03.47.41.109
12904;170764;34.04;192;03.47.41.109
12908;170760;34.04;193;03.47.41.109
12904;170756;34.04;194;03.47.41.109
12908;170761;34.04;195;03.47.41.109
12936;170762;34.04;196;03.47.41.109
12908;170767;34.04;197;03.47.41.121
12880;170763;34.04;198;03.47.41.121
12892;170762;34.04;199;03.47.41.121
12892;170758;34.08;200;03.47.41.198
12908;170755;34.08;201;03.47.41.198
12908;170769;34.08;202;03.47.41.198
12908;170770;34.08;203;03.47.41.198
12884;170766;34.08;204;03.47.41.198
12912;170768;34.08;205;03.47.41.198
12904;170776;34.08;206;03.47.41.209
12892;170775;34.08;207;03.47.41.209
12924;170773;34.08;208;03.47.41.231
12928;170771;34.08;209;03.47.41.231
12892;170776;34.08;210;03.47.41.231
12892;170778;34.08;211;03.47.41.231
12916;170787;34.08;212;03.47.41.231
12912;170786;34.08;213;03.47.41.231
12888;170777;34.08;214;03.47.41.242
12892;170778;34.08;215;03.47.41.242
12904;170780;34.08;216;03.47.41.242
12888;170784;34.08;217;03.47.41.242
12916;170791;34.08;218;03.47.41.242
12892;170799;34.08;219;03.47.41.242
12932;170791;34.08;220;03.47.41.242
12880;170792;34.08;221;03.47.41.242
12912;170796;34.08;222;03.47.41.242
12916;170800;34.08;223;03.47.41.242
12932;170805;34.08;224;03.47.41.242
12928;170802;34.08;225;03.47.41.319
12908;170801;34.08;226;03.47.41.319
12892;170802;34.08;227;03.47.41.330
12908;170808;34.08;228;03.47.41.330
12924;170813;34.08;229;03.47.41.330
12888;170812;34.08;230;03.47.41.330
12924;170814;34.08;231;03.47.41.330
12932;170814;34.08;232;03.47.41.330
12900;170815;34.08;233;03.47.41.330
12936;170816;34.08;234;03.47.41.330
12888;170817;34.08;235;03.47.41.330
12912;170826;34.08;236;03.47.41.330
12900;170823;34.08;237;03.47.41.330
12896;170832;34.08;238;03.47.41.330
12944;170826;34.08;239;03.47.41.330
12892;170829;34.08;240;03.47.41.341
12924;170833;34.08;241;03.47.41.341
12928;170831;34.08;242;03.47.41.395
12900;170838;34.08;243;03.47.41.395
12928;170837;34.08;244;03.47.41.395
12900;170836;34.08;245;03.47.41.395
12924;170835;34.08;246;03.47.41.395
12912;170836;34.08;247;03.47.41.395
12904;170831;34.08;248;03.47.41.395
12940;170842;34.08;249;03.47.41.395
12912;170849;34.04;250;03.47.41.461
12904;170848;34.04;251;03.47.41.461
12900;170847;34.04;252;03.47.41.461
12900;170845;34.04;253;03.47.41.461
12900;170858;34.04;254;03.47.41.461
12892;170856;34.04;255;03.47.41.461
12924;170849;34.04;256;03.47.41.461
12908;170862;34.04;257;03.47.41.461
12908;170866;34.04;258;03.47.41.461
12928;170870;34.04;259;03.47.41.461
12904;170872;34.04;260;03.47.41.461
12936;170871;34.04;261;03.47.41.472
12916;170869;34.04;262;03.47.41.472
12916;170873;34.04;263;03.47.41.472
12928;170877;34.04;264;03.47.41.472
12916;170868;34.04;265;03.47.41.472
12916;170871;34.04;266;03.47.41.472
12888;170870;34.04;267;03.47.41.472
12892;170873;34.04;268;03.47.41.472
12904;170881;34.04;269;03.47.41.472
12916;170879;34.04;270;03.47.41.472
12900;170881;34.04;271;03.47.41.472
12924;170878;34.04;272;03.47.41.472
12928;170885;34.04;273;03.47.41.472
12932;170885;34.04;274;03.47.41.483
12900;170879;34.04;275;03.47.41.593
12892;170875;34.04;276;03.47.41.593
12912;170877;34.04;277;03.47.41.593
12876;170870;34.04;278;03.47.41.593
12900;170870;34.04;279;03.47.41.593
12912;170866;34.04;280;03.47.41.593
12904;170860;34.04;281;03.47.41.593
12912;170860;34.04;282;03.47.41.604
12888;170853;34.04;283;03.47.41.604
12908;170837;34.04;284;03.47.41.604
12916;170841;34.04;285;03.47.41.604
12908;170830;34.04;286;03.47.41.604
12888;170824;34.04;287;03.47.41.604
12904;170820;34.04;288;03.47.41.604
12920;170823;34.04;289;03.47.41.604
12944;170815;34.04;290;03.47.41.604
12912;170811;34.04;291;03.47.41.604
12928;170809;34.04;292;03.47.41.604
12916;170810;34.04;293;03.47.41.604
12900;170813;34.04;294;03.47.41.604
12900;170801;34.04;295;03.47.41.615
12900;170802;34.04;296;03.47.41.615
12924;170803;34.04;297;03.47.41.615
12920;170802;34.04;298;03.47.41.615
12912;170802;34.04;299;03.47.41.615
12888;170801;34.08;300;03.47.41.703
12884;170812;34.08;301;03.47.41.703
12928;170804;34.08;302;03.47.41.703
12900;170802;34.08;303;03.47.41.703
12912;170795;34.08;304;03.47.41.715
12916;170798;34.08;305;03.47.41.715
12892;170786;34.08;306;03.47.41.715
12904;170793;34.08;307;03.47.41.715
12892;170793;34.08;308;03.47.41.726
12916;170787;34.08;309;03.47.41.726
12856;170799;34.08;310;03.47.41.726
12908;170790;34.08;311;03.47.41.726
12904;170792;34.08;312;03.47.41.726
12916;170786;34.08;313;03.47.41.737
12900;170788;34.08;314;03.47.41.737
12928;170783;34.08;315;03.47.41.737
12872;170785;34.08;316;03.47.41.737
12928;170783;34.08;317;03.47.41.737
12916;170784;34.08;318;03.47.41.737
12904;170779;34.08;319;03.47.41.737
12912;170780;34.08;320;03.47.41.737
12888;170778;34.08;321;03.47.41.737
12912;170775;34.08;322;03.47.41.737
12908;170776;34.08;323;03.47.41.737
12900;170785;34.08;324;03.47.41.737
12888;170788;34.08;325;03.47.41.824
12892;170781;34.08;326;03.47.41.835
12932;170782;34.08;327;03.47.41.835
12912;170783;34.08;328;03.47.41.835
12908;170788;34.08;329;03.47.41.835
12928;170787;34.08;330;03.47.41.835
12924;170786;34.08;331;03.47.41.835
12928;170785;34.08;332;03.47.41.835
12916;170788;34.08;333;03.47.41.835
12912;170788;34.08;334;03.47.41.835
12908;170789;34.08;335;03.47.41.846
12904;170786;34.08;336;03.47.41.846
12920;170791;34.08;337;03.47.41.846
12928;170799;34.08;338;03.47.41.846
12908;170793;34.08;339;03.47.41.846
12928;170793;34.08;340;03.47.41.846
12916;170794;34.08;341;03.47.41.846
12892;170799;34.08;342;03.47.41.857
12908;170799;34.08;343;03.47.41.868
12896;170790;34.08;344;03.47.41.868
12868;170798;34.08;345;03.47.41.868
12908;170799;34.08;346;03.47.41.868
12892;170796;34.08;347;03.47.41.868
12908;170799;34.08;348;03.47.41.868
12916;170801;34.08;349;03.47.41.868
12908;170792;34.04;350;03.47.41.956
12912;170803;34.04;351;03.47.41.956
12900;170804;34.04;352;03.47.41.956
12900;170801;34.04;353;03.47.41.956
12892;170806;34.04;354;03.47.41.956
12912;170806;34.04;355;03.47.41.956
12892;170801;34.04;356;03.47.41.956
12896;170800;34.04;357;03.47.41.956
12916;170804;34.04;358;03.47.41.956
12908;170804;34.04;359;03.47.41.956
12904;170801;34.04;360;03.47.41.967
12932;170801;34.04;361;03.47.41.967
12924;170810;34.04;362;03.47.41.967
12912;170810;34.04;363;03.47.41.967
12896;170813;34.04;364;03.47.41.967
12876;170817;34.04;365;03.47.41.967
12928;170813;34.04;366;03.47.41.967
12940;170819;34.04;367;03.47.41.967
12892;170823;34.04;368;03.47.41.967
12912;170814;34.04;369;03.47.41.967
12916;170817;34.04;370;03.47.41.967
12892;170818;34.04;371;03.47.41.967
12928;170814;34.04;372;03.47.41.967
12924;170830;34.04;373;03.47.41.967
12924;170825;34.04;374;03.47.41.979
12892;170828;34.04;375;03.47.42.088
12908;170819;34.04;376;03.47.42.088
12904;170830;34.04;377;03.47.42.088
12892;170827;34.04;378;03.47.42.088
12892;170833;34.04;379;03.47.42.088
12884;170832;34.04;380;03.47.42.088
12884;170835;34.04;381;03.47.42.088
12892;170837;34.04;382;03.47.42.099
12884;170839;34.04;383;03.47.42.099
12896;170834;34.04;384;03.47.42.099
12916;170834;34.04;385;03.47.42.099
12892;170838;34.04;386;03.47.42.099
12908;170837;34.04;387;03.47.42.099
12928;170842;34.04;388;03.47.42.099
12900;170842;34.04;389;03.47.42.099
12900;170842;34.04;390;03.47.42.099
12916;170853;34.04;391;03.47.42.099
12912;170849;34.04;392;03.47.42.099
12908;170855;34.04;393;03.47.42.099
12916;170857;34.04;394;03.47.42.099
12912;170854;34.04;395;03.47.42.110
12928;170861;34.04;396;03.47.42.110
12900;170862;34.04;397;03.47.42.110
12912;170859;34.04;398;03.47.42.110
12916;170869;34.04;399;03.47.42.110
12892;170859;34.00;400;03.47.42.198
12892;170866;34.00;401;03.47.42.198
12916;170866;34.00;402;03.47.42.198
12916;170869;34.00;403;03.47.42.198
12924;170865;34.00;404;03.47.42.209
12876;170872;34.00;405;03.47.42.209
12912;170872;34.00;406;03.47.42.209
12928;170882;34.00;407;03.47.42.209
12896;170870;34.00;408;03.47.42.220
12884;170874;34.00;409;03.47.42.220
12912;170884;34.00;410;03.47.42.220
12904;170886;34.00;411;03.47.42.220
12892;170884;34.00;412;03.47.42.231
12908;170882;34.00;413;03.47.42.231
12912;170890;34.00;414;03.47.42.231
12892;170888;34.00;415;03.47.42.231
12932;170891;34.00;416;03.47.42.231
12904;170888;34.00;417;03.47.42.231
12892;170895;34.00;418;03.47.42.231
12904;170895;34.00;419;03.47.42.231
12884;170892;34.00;420;03.47.42.231
12912;170895;34.00;421;03.47.42.231
12932;170887;34.00;422;03.47.42.231
12896;170889;34.00;423;03.47.42.231
12928;170888;34.00;424;03.47.42.231
12928;170891;34.00;425;03.47.42.329
12916;170889;34.00;426;03.47.42.329
12892;170895;34.00;427;03.47.42.329
12916;170897;34.00;428;03.47.42.329
12908;170888;34.00;429;03.47.42.329
12912;170896;34.00;430;03.47.42.329
12928;170896;34.00;431;03.47.42.329
12900;170898;34.00;432;03.47.42.329
12908;170896;34.00;433;03.47.42.329
12892;170901;34.00;434;03.47.42.329
12908;170905;34.00;435;03.47.42.329
12916;170901;34.00;436;03.47.42.329
12932;170899;34.00;437;03.47.42.329
12912;170903;34.00;438;03.47.42.340
12916;170906;34.00;439;03.47.42.340
12912;170905;34.00;440;03.47.42.340
12888;170900;34.00;441;03.47.42.340
12908;170898;34.00;442;03.47.42.372
12908;170904;34.00;443;03.47.42.372
12912;170897;34.00;444;03.47.42.372
12896;170900;34.00;445;03.47.42.372
12912;170896;34.00;446;03.47.42.372
12892;170888;34.00;447;03.47.42.372
12904;170883;34.00;448;03.47.42.372
12900;170872;34.00;449;03.47.42.372
12904;170871;34.08;450;03.47.42.449
12916;170858;34.08;451;03.47.42.449
12908;170858;34.08;452;03.47.42.449
12904;170844;34.08;453;03.47.42.449
12932;170846;34.08;454;03.47.42.449
12880;170831;34.08;455;03.47.42.449
12892;170829;34.08;456;03.47.42.449
12908;170825;34.08;457;03.47.42.449
12928;170824;34.08;458;03.47.42.460
12904;170815;34.08;459;03.47.42.460
12912;170804;34.08;460;03.47.42.460
12916;170809;34.08;461;03.47.42.460
12912;170805;34.08;462;03.47.42.460
12892;170804;34.08;463;03.47.42.460
12928;170800;34.08;464;03.47.42.460
12960;170799;34.08;465;03.47.42.460
12932;170788;34.08;466;03.47.42.460
12936;170786;34.08;467;03.47.42.460
12904;170792;34.08;468;03.47.42.460
12908;170796;34.08;469;03.47.42.460
12892;170788;34.08;470;03.47.42.460
12912;170795;34.08;471;03.47.42.471
12928;170785;34.08;472;03.47.42.471
12896;170789;34.08;473;03.47.42.471
12920;170780;34.08;474;03.47.42.471
12916;170786;34.08;475;03.47.42.581
12888;170784;34.08;476;03.47.42.581
12920;170787;34.08;477;03.47.42.581
12884;170781;34.08;478;03.47.42.581
12920;170773;34.08;479;03.47.42.592
12900;170782;34.08;480;03.47.42.592
12928;170773;34.08;481;03.47.42.592
12900;170772;34.08;482;03.47.42.592
12880;170776;34.08;483;03.47.42.592
12892;170772;34.08;484;03.47.42.592
12896;170780;34.08;485;03.47.42.592
12916;170780;34.08;486;03.47.42.592
12912;170792;34.08;487;03.47.42.592
12916;170791;34.08;488;03.47.42.592
12928;170800;34.08;489;03.47.42.592
12900;170800;34.08;490;03.47.42.592
12888;170813;34.08;491;03.47.42.592
12904;170819;34.08;492;03.47.42.603
12920;170822;34.08;493;03.47.42.603
12912;170834;34.08;494;03.47.42.603
12912;170851;34.08;495;03.47.42.603
12916;170854;34.08;496;03.47.42.603
12908;170863;34.08;497;03.47.42.603
12928;170869;34.08;498;03.47.42.603
12924;170879;34.08;499;03.47.42.603
12892;170880;34.04;500;03.47.42.712
12908;170892;34.04;501;03.47.42.723
12932;170901;34.04;502;03.47.42.723
12924;170909;34.04;503;03.47.42.723
12904;170906;34.04;504;03.47.42.723
12916;170897;34.04;505;03.47.42.723
12924;170909;34.04;506;03.47.42.723
12896;170915;34.04;507;03.47.42.723
12888;170913;34.04;508;03.47.42.723
12896;170915;34.04;509;03.47.42.723
12928;170917;34.04;510;03.47.42.723
12936;170919;34.04;511;03.47.42.723
12892;170922;34.04;512;03.47.42.723
12892;170926;34.04;513;03.47.42.723
12900;170935;34.04;514;03.47.42.734
12900;170936;34.04;515;03.47.42.734
12924;170933;34.04;516;03.47.42.734
12944;170941;34.04;517;03.47.42.734
12928;170950;34.04;518;03.47.42.734
12904;170955;34.04;519;03.47.42.734
12900;170952;34.04;520;03.47.42.734
12876;170954;34.04;521;03.47.42.734
12900;170956;34.04;522;03.47.42.734
12900;170967;34.04;523;03.47.42.734
12924;170958;34.04;524;03.47.42.734
12884;170971;34.04;525;03.47.42.833
12928;170973;34.04;526;03.47.42.833
12924;170974;34.04;527;03.47.42.833
12908;170976;34.04;528;03.47.42.833
12916;170991;34.04;529;03.47.42.833
12892;170987;34.04;530;03.47.42.833
12904;170996;34.04;531;03.47.42.833
12912;171006;34.04;532;03.47.42.833
12916;171006;34.04;533;03.47.42.855
12928;171017;34.04;534;03.47.42.855
12912;171020;34.04;535;03.47.42.855
12912;171026;34.04;536;03.47.42.855
12868;171027;34.04;537;03.47.42.855
12884;171040;34.04;538;03.47.42.855
12892;171041;34.04;539;03.47.42.855
12920;171052;34.04;540;03.47.42.855
12912;171055;34.04;541;03.47.42.866
12920;171059;34.04;542;03.47.42.866
12916;171067;34.04;543;03.47.42.866
12884;171073;34.04;544;03.47.42.866
12892;171080;34.04;545;03.47.42.866
12896;171080;34.04;546;03.47.42.866
12888;171088;34.04;547;03.47.42.866
12900;171091;34.04;548;03.47.42.866
12952;171099;34.04;549;03.47.42.866
12912;171108;34.08;550;03.47.42.954
12884;171110;34.08;551;03.47.42.954
12928;171109;34.08;552;03.47.42.954
12920;171120;34.08;553;03.47.42.954
12912;171127;34.08;554;03.47.42.954
12904;171128;34.08;555;03.47.42.954
12924;171130;34.08;556;03.47.42.965
12904;171138;34.08;557;03.47.42.965
12920;171140;34.08;558;03.47.42.965
12900;171152;34.08;559;03.47.42.965
12920;171153;34.08;560;03.47.42.965
12900;171160;34.08;561;03.47.42.965
12892;171162;34.08;562;03.47.42.965
12912;171165;34.08;563;03.47.42.965
12928;171174;34.08;564;03.47.42.965
12880;171177;34.08;565;03.47.42.976
12892;171176;34.08;566;03.47.42.976
12900;171181;34.08;567;03.47.42.987
12916;171191;34.08;568;03.47.42.987
12908;171192;34.08;569;03.47.42.987
12896;171188;34.08;570;03.47.42.987
12904;171190;34.08;571;03.47.42.987
12916;171201;34.08;572;03.47.42.987
12936;171197;34.08;573;03.47.42.987
12936;171198;34.08;574;03.47.42.998
12912;171197;34.08;575;03.47.43.074
12904;171203;34.08;576;03.47.43.074
12932;171202;34.08;577;03.47.43.074
12944;171211;34.08;578;03.47.43.085
12896;171210;34.08;579;03.47.43.085
12900;171205;34.08;580;03.47.43.085
12904;171207;34.08;581;03.47.43.085
12924;171208;34.08;582;03.47.43.085
12928;171217;34.08;583;03.47.43.085
12908;171219;34.08;584;03.47.43.085
12908;171222;34.08;585;03.47.43.085
12904;171218;34.08;586;03.47.43.085
12920;171232;34.08;587;03.47.43.085
12912;171224;34.08;588;03.47.43.085
12924;171224;34.08;589;03.47.43.085
12892;171229;34.08;590;03.47.43.085
12892;171231;34.08;591;03.47.43.096
12936;171235;34.08;592;03.47.43.096
12916;171230;34.08;593;03.47.43.096
12928;171238;34.08;594;03.47.43.096
12904;171235;34.08;595;03.47.43.096
12908;171244;34.08;596;03.47.43.096
12920;171236;34.08;597;03.47.43.096
12908;171238;34.08;598;03.47.43.096
12928;171245;34.08;599;03.47.43.096
12932;171247;34.04;600;03.47.43.217
12908;171246;34.04;601;03.47.43.217
12928;171242;34.04;602;03.47.43.217
12920;171245;34.04;603;03.47.43.217
12936;171253;34.04;604;03.47.43.217
12928;171252;34.04;605;03.47.43.217
12904;171250;34.04;606;03.47.43.217
12892;171254;34.04;607;03.47.43.217
12916;171254;34.04;608;03.47.43.217
12924;171261;34.04;609;03.47.43.217
12904;171266;34.04;610;03.47.43.217
12920;171269;34.04;611;03.47.43.217
12888;171274;34.04;612;03.47.43.228
12928;171277;34.04;613;03.47.43.228
12888;171277;34.04;614;03.47.43.228
12892;171274;34.04;615;03.47.43.228
12892;171290;34.04;616;03.47.43.228
12908;171294;34.04;617;03.47.43.228
12924;171290;34.04;618;03.47.43.228
12904;171293;34.04;619;03.47.43.228
12900;171303;34.04;620;03.47.43.228
12900;171302;34.04;621;03.47.43.228
12936;171308;34.04;622;03.47.43.228
12904;171310;34.04;623;03.47.43.228
12892;171312;34.04;624;03.47.43.228
12900;171319;34.04;625;03.47.43.326
12916;171321;34.04;626;03.47.43.326
12892;171317;34.04;627;03.47.43.326
12916;171321;34.04;628;03.47.43.326
12916;171320;34.04;629;03.47.43.326
12928;171319;34.04;630;03.47.43.326
12892;171322;34.04;631;03.47.43.326
12884;171307;34.04;632;03.47.43.326
12900;171306;34.04;633;03.47.43.348
12884;171295;34.04;634;03.47.43.348
12928;171279;34.04;635;03.47.43.348
12904;171283;34.04;636;03.47.43.348
12928;171271;34.04;637;03.47.43.348
12928;171262;34.04;638;03.47.43.348
12888;171257;34.04;639;03.47.43.348
12924;171253;34.04;640;03.47.43.348
12884;171247;34.04;641;03.47.43.359
12924;171235;34.04;642;03.47.43.359
12904;171233;34.04;643;03.47.43.359
12912;171236;34.04;644;03.47.43.359
12892;171232;34.04;645;03.47.43.359
12924;171230;34.04;646;03.47.43.359
12876;171221;34.04;647;03.47.43.359
12908;171222;34.04;648;03.47.43.359
12928;171217;34.04;649;03.47.43.359
12908;171216;34.04;650;03.47.43.445
12936;171213;34.04;651;03.47.43.445
12924;171213;34.04;652;03.47.43.445
12932;171205;34.04;653;03.47.43.456
12900;171205;34.04;654;03.47.43.456
12916;171203;34.04;655;03.47.43.456
12892;171193;34.04;656;03.47.43.456
12916;171196;34.04;657;03.47.43.456
12928;171192;34.04;658;03.47.43.456
12900;171188;34.04;659;03.47.43.456
12928;171194;34.04;660;03.47.43.456
12876;171191;34.04;661;03.47.43.456
12876;171185;34.04;662;03.47.43.456
12900;171193;34.04;663;03.47.43.456
12924;171183;34.04;664;03.47.43.456
12944;171191;34.04;665;03.47.43.467
12904;171193;34.04;666;03.47.43.467
12936;171193;34.04;667;03.47.43.467
12892;171185;34.04;668;03.47.43.467
12876;171185;34.04;669;03.47.43.467
12928;171187;34.04;670;03.47.43.467
12908;171190;34.04;671;03.47.43.467
12912;171186;34.04;672;03.47.43.467
12912;171196;34.04;673;03.47.43.467
12916;171189;34.04;674;03.47.43.467
12900;171183;34.04;675;03.47.43.577
12892;171183;34.04;676;03.47.43.577
12876;171193;34.04;677;03.47.43.577
12916;171194;34.04;678;03.47.43.577
12928;171191;34.04;679;03.47.43.577
12916;171193;34.04;680;03.47.43.577
12936;171193;34.04;681;03.47.43.577
12920;171193;34.04;682;03.47.43.577
12904;171194;34.04;683;03.47.43.588
12904;171200;34.04;684;03.47.43.588
12928;171198;34.04;685;03.47.43.588
12892;171200;34.04;686;03.47.43.588
12908;171203;34.04;687;03.47.43.588
12928;171201;34.04;688;03.47.43.588
12892;171202;34.04;689;03.47.43.588
12908;171211;34.04;690;03.47.43.588
12928;171203;34.04;691;03.47.43.588
12884;171204;34.04;692;03.47.43.588
12908;171207;34.04;693;03.47.43.588
12924;171204;34.04;694;03.47.43.588
12916;171199;34.04;695;03.47.43.588
12912;171203;34.04;696;03.47.43.599
12892;171198;34.04;697;03.47.43.599
12900;171200;34.04;698;03.47.43.599
12944;171202;34.04;699;03.47.43.599
12892;171208;34.04;700;03.47.43.719
12932;171203;34.04;701;03.47.43.719
12868;171198;34.04;702;03.47.43.719
12920;171198;34.04;703;03.47.43.719
12888;171190;34.04;704;03.47.43.719
12928;171198;34.04;705;03.47.43.719
12920;171190;34.04;706;03.47.43.719
12916;171182;34.04;707;03.47.43.730
12928;171176;34.04;708;03.47.43.730
12888;171178;34.04;709;03.47.43.730
12884;171173;34.04;710;03.47.43.730
12900;171171;34.04;711;03.47.43.730
12912;171173;34.04;712;03.47.43.730
12928;171175;34.04;713;03.47.43.730
12928;171165;34.04;714;03.47.43.730
12932;171169;34.04;715;03.47.43.730
12908;171158;34.04;716;03.47.43.730
12924;171153;34.04;717;03.47.43.730
12916;171148;34.04;718;03.47.43.730
12920;171140;34.04;719;03.47.43.730
12936;171137;34.04;720;03.47.43.741
12892;171139;34.04;721;03.47.43.741
12928;171136;34.04;722;03.47.43.741
12908;171137;34.04;723;03.47.43.741
12936;171133;34.04;724;03.47.43.741
12892;171128;34.04;725;03.47.43.851
12932;171128;34.04;726;03.47.43.851
12912;171129;34.04;727;03.47.43.851
12932;171118;34.04;728;03.47.43.862
12884;171125;34.04;729;03.47.43.862
12892;171126;34.04;730;03.47.43.862
12916;171125;34.04;731;03.47.43.862
12876;171121;34.04;732;03.47.43.862
12888;171126;34.04;733;03.47.43.862
12932;171128;34.04;734;03.47.43.862
12896;171120;34.04;735;03.47.43.862
12892;171116;34.04;736;03.47.43.862
12928;171117;34.04;737;03.47.43.862
12932;171123;34.04;738;03.47.43.862
12920;171123;34.04;739;03.47.43.862
12908;171120;34.04;740;03.47.43.873
12908;171114;34.04;741;03.47.43.873
12916;171114;34.04;742;03.47.43.873
12916;171122;34.04;743;03.47.43.873
12924;171123;34.04;744;03.47.43.873
12928;171119;34.04;745;03.47.43.873
12928;171132;34.04;746;03.47.43.873
12904;171132;34.04;747;03.47.43.873
12916;171125;34.04;748;03.47.43.873
12940;171136;34.04;749;03.47.43.873
12912;171123;34.08;750;03.47.43.960
12908;171132;34.08;751;03.47.43.960
12900;171131;34.08;752;03.47.43.960
12896;171131;34.08;753;03.47.43.960
12912;171137;34.08;754;03.47.43.960
12904;171143;34.08;755;03.47.43.960
12892;171145;34.08;756;03.47.43.960
12904;171149;34.08;757;03.47.43.960
12892;171156;34.08;758;03.47.43.982
12900;171150;34.08;759;03.47.43.982
12908;171161;34.08;760;03.47.43.982
12920;171162;34.08;761;03.47.43.982
12928;171162;34.08;762;03.47.43.982
12932;171162;34.08;763;03.47.43.982
12896;171164;34.08;764;03.47.43.982
12916;171169;34.08;765;03.47.43.982
12944;171183;34.08;766;03.47.43.982
12928;171176;34.08;767;03.47.43.982
12888;171185;34.08;768;03.47.43.982
12928;171187;34.08;769;03.47.43.982
12908;171193;34.08;770;03.47.43.993
12892;171200;34.08;771;03.47.43.993
12892;171203;34.08;772;03.47.43.993
12936;171195;34.08;773;03.47.43.993
12920;171195;34.08;774;03.47.43.993
12860;171195;34.08;775;03.47.44.081
12928;171207;34.08;776;03.47.44.081
12892;171199;34.08;777;03.47.44.081
12900;171202;34.08;778;03.47.44.081
12908;171212;34.08;779;03.47.44.081
12892;171209;34.08;780;03.47.44.081
12912;171211;34.08;781;03.47.44.081
12916;171212;34.08;782;03.47.44.092
12904;171221;34.08;783;03.47.44.092
12900;171219;34.08;784;03.47.44.092
12920;171219;34.08;785;03.47.44.092
12920;171217;34.08;786;03.47.44.092
12896;171222;34.08;787;03.47.44.092
12892;171219;34.08;788;03.47.44.092
12916;171228;34.08;789;03.47.44.092
12932;171219;34.08;790;03.47.44.092
12928;171226;34.08;791;03.47.44.092
12936;171222;34.08;792;03.47.44.114
12904;171229;34.08;793;03.47.44.114
12880;171229;34.08;794;03.47.44.114
12916;171229;34.08;795;03.47.44.114
12952;171226;34.08;796;03.47.44.114
12888;171232;34.08;797;03.47.44.114
12912;171231;34.08;798;03.47.44.114
12928;171234;34.08;799;03.47.44.114
12924;171243;34.08;800;03.47.44.202
12920;171238;34.08;801;03.47.44.202
12876;171229;34.08;802;03.47.44.202
12892;171235;34.08;803;03.47.44.202
12908;171238;34.08;804;03.47.44.202
12900;171235;34.08;805;03.47.44.202
12916;171225;34.08;806;03.47.44.213
12900;171225;34.08;807;03.47.44.213
12888;171221;34.08;808;03.47.44.213
12900;171206;34.08;809;03.47.44.213
12904;171202;34.08;810;03.47.44.213
12892;171196;34.08;811;03.47.44.213
12912;171197;34.08;812;03.47.44.213
12912;171189;34.08;813;03.47.44.213
12920;171180;34.08;814;03.47.44.213
12916;171173;34.08;815;03.47.44.213
12920;171175;34.08;816;03.47.44.213
12916;171177;34.08;817;03.47.44.224
12916;171173;34.08;818;03.47.44.224
12908;171170;34.08;819;03.47.44.224
12892;171159;34.08;820;03.47.44.224
12904;171163;34.08;821;03.47.44.224
12892;171162;34.08;822;03.47.44.224
12936;171160;34.08;823;03.47.44.235
12932;171154;34.08;824;03.47.44.235
12904;171144;34.08;825;03.47.44.333
12936;171133;34.08;826;03.47.44.333
12924;171120;34.08;827;03.47.44.344
12888;171105;34.08;828;03.47.44.344
12928;171099;34.08;829;03.47.44.344
12884;171077;34.08;830;03.47.44.344
12928;171049;34.08;831;03.47.44.344
12880;171028;34.08;832;03.47.44.344
12892;171009;34.08;833;03.47.44.344
12904;170983;34.08;834;03.47.44.344
12908;170956;34.08;835;03.47.44.344
12924;170937;34.08;836;03.47.44.344
12892;170903;34.08;837;03.47.44.344
12920;170882;34.08;838;03.47.44.344
12928;170846;34.08;839;03.47.44.355
12904;170821;34.08;840;03.47.44.355
12912;170801;34.08;841;03.47.44.355
12924;170779;34.08;842;03.47.44.355
12932;170767;34.08;843;03.47.44.355
12932;170736;34.08;844;03.47.44.355
12904;170736;34.08;845;03.47.44.355
12892;170714;34.08;846;03.47.44.355
12932;170700;34.08;847;03.47.44.355
12912;170676;34.08;848;03.47.44.355
12920;170666;34.08;849;03.47.44.355
12948;170655;34.04;850;03.47.44.453
12888;170640;34.04;851;03.47.44.453
12932;170629;34.04;852;03.47.44.453
12936;170636;34.04;853;03.47.44.453
12900;170630;34.04;854;03.47.44.453
12924;170618;34.04;855;03.47.44.453
12900;170622;34.04;856;03.47.44.453
12916;170619;34.04;857;03.47.44.453
12892;170622;34.04;858;03.47.44.464
12912;170629;34.04;859;03.47.44.464
12912;170634;34.04;860;03.47.44.464
12928;170632;34.04;861;03.47.44.464
12936;170641;34.04;862;03.47.44.464
12928;170643;34.04;863;03.47.44.464
12924;170656;34.04;864;03.47.44.464
12908;170665;34.04;865;03.47.44.464
12904;170670;34.04;866;03.47.44.464
12920;170678;34.04;867;03.47.44.475
12912;170681;34.04;868;03.47.44.475
12908;170690;34.04;869;03.47.44.475
12932;170694;34.04;870;03.47.44.475
12916;170701;34.04;871;03.47.44.475
12896;170709;34.04;872;03.47.44.475
12908;170713;34.04;873;03.47.44.475
12928;170729;34.04;874;03.47.44.475
12900;170730;34.04;875;03.47.44.574
12872;170750;34.04;876;03.47.44.574
12928;170759;34.04;877;03.47.44.574
12928;170773;34.04;878;03.47.44.574
12888;170778;34.04;879;03.47.44.574
12900;170777;34.04;880;03.47.44.574
12928;170785;34.04;881;03.47.44.585
12928;170798;34.04;882;03.47.44.585
12888;170806;34.04;883;03.47.44.585
12908;170795;34.04;884;03.47.44.585
12928;170810;34.04;885;03.47.44.585
12912;170824;34.04;886;03.47.44.585
12908;170817;34.04;887;03.47.44.585
12932;170822;34.04;888;03.47.44.585
12896;170839;34.04;889;03.47.44.585
12912;170839;34.04;890;03.47.44.585
12896;170846;34.04;891;03.47.44.585
12908;170847;34.04;892;03.47.44.585
12900;170853;34.04;893;03.47.44.585
12916;170856;34.04;894;03.47.44.596
12908;170864;34.04;895;03.47.44.596
12892;170854;34.04;896;03.47.44.596
12916;170870;34.04;897;03.47.44.596
12892;170869;34.04;898;03.47.44.596
12928;170867;34.04;899;03.47.44.596
12932;170876;34.04;900;03.47.44.705
12924;170879;34.04;901;03.47.44.705
12912;170876;34.04;902;03.47.44.716
12928;170883;34.04;903;03.47.44.716
12928;170886;34.04;904;03.47.44.716
12892;170887;34.04;905;03.47.44.716
12916;170889;34.04;906;03.47.44.716
12912;170894;34.04;907;03.47.44.716
12912;170895;34.04;908;03.47.44.716
12876;170897;34.04;909;03.47.44.716
12908;170889;34.04;910;03.47.44.716
12924;170899;34.04;911;03.47.44.716
12928;170891;34.04;912;03.47.44.716
12912;170893;34.04;913;03.47.44.716
12916;170894;34.04;914;03.47.44.716
12896;170889;34.04;915;03.47.44.727
12892;170894;34.04;916;03.47.44.727
12912;170891;34.04;917;03.47.44.727
12944;170892;34.04;918;03.47.44.727
12924;170893;34.04;919;03.47.44.727
12892;170893;34.04;920;03.47.44.727
12892;170884;34.04;921;03.47.44.727
12872;170889;34.04;922;03.47.44.727
12892;170886;34.04;923;03.47.44.727
12900;170888;34.04;924;03.47.44.727
12908;170886;34.04;925;03.47.44.837
12916;170886;34.04;926;03.47.44.837
12904;170881;34.04;927;03.47.44.837
12928;170887;34.04;928;03.47.44.837
12916;170876;34.04;929;03.47.44.837
12908;170878;34.04;930;03.47.44.837
12908;170881;34.04;931;03.47.44.837
12900;170869;34.04;932;03.47.44.837
12944;170874;34.04;933;03.47.44.837
12908;170869;34.04;934;03.47.44.837
12924;170879;34.04;935;03.47.44.837
12928;170872;34.04;936;03.47.44.837
12928;170871;34.04;937;03.47.44.848
12904;170863;34.04;938;03.47.44.848
12936;170864;34.04;939;03.47.44.848
12928;170857;34.04;940;03.47.44.848
12876;170865;34.04;941;03.47.44.848
12904;170855;34.04;942;03.47.44.848
12904;170856;34.04;943;03.47.44.848
12892;170849;34.04;944;03.47.44.848
12932;170843;34.04;945;03.47.44.848
12928;170849;34.04;946;03.47.44.848
12888;170850;34.04;947;03.47.44.848
12912;170844;34.04;948;03.47.44.848
12920;170841;34.04;949;03.47.44.859
12936;170848;34.04;950;03.47.44.968
12916;170848;34.04;951;03.47.44.968
12920;170847;34.04;952;03.47.44.968
12932;170844;34.04;953;03.47.44.968
12908;170847;34.04;954;03.47.44.968
12904;170850;34.04;955;03.47.44.968
12928;170836;34.04;956;03.47.44.968
12920;170838;34.04;957;03.47.44.968
12920;170834;34.04;958;03.47.44.968
12884;170826;34.04;959;03.47.44.979
12896;170814;34.04;960;03.47.44.979
12912;170814;34.04;961;03.47.44.979
12892;170806;34.04;962;03.47.44.979
12928;170793;34.04;963;03.47.44.979
12888;170791;34.04;964;03.47.44.979
12900;170786;34.04;965;03.47.44.979
12912;170778;34.04;966;03.47.44.979
12908;170777;34.04;967;03.47.44.979
12920;170769;34.04;968;03.47.44.979
12916;170763;34.04;969;03.47.44.979
12892;170758;34.04;970;03.47.44.979
12924;170753;34.04;971;03.47.44.979
12932;170744;34.04;972;03.47.44.990
12932;170750;34.04;973;03.47.44.990
12916;170745;34.04;974;03.47.44.990
12904;170747;34.04;975;03.47.45.078
12892;170741;34.04;976;03.47.45.078
12924;170733;34.04;977;03.47.45.078
12912;170733;34.04;978;03.47.45.078
12876;170730;34.04;979;03.47.45.089
12904;170733;34.04;980;03.47.45.089
12936;170735;34.04;981;03.47.45.089
12912;170728;34.04;982;03.47.45.089
12924;170725;34.04;983;03.47.45.089
12916;170721;34.04;984;03.47.45.089
12884;170718;34.04;985;03.47.45.089
12892;170716;34.04;986;03.47.45.100
12928;170709;34.04;987;03.47.45.100
12916;170716;34.04;988;03.47.45.100
12884;170707;34.04;989;03.47.45.100
12884;170711;34.04;990;03.47.45.100
12916;170705;34.04;991;03.47.45.100
12916;170706;34.04;992;03.47.45.100
12900;170704;34.04;993;03.47.45.100
12928;170714;34.04;994;03.47.45.100
12928;170700;34.04;995;03.47.45.100
12916;170704;34.04;996;03.47.45.100
12936;170692;34.04;997;03.47.45.100
12916;170693;34.04;998;03.47.45.100
12916;170698;34.04;999;03.47.45.111
12888;170702;34.04;000;03.47.45.199
12888;170700;34.04;001;03.47.45.210
12904;170694;34.04;002;03.47.45.210
12916;170696;34.04;003;03.47.45.210
12908;170694;34.04;004;03.47.45.210
12892;170697;34.04;005;03.47.45.210
12904;170699;34.04;006;03.47.45.210
12928;170686;34.04;007;03.47.45.210
12920;170699;34.04;008;03.47.45.210
12892;170699;34.04;009;03.47.45.210
12912;170697;34.04;010;03.47.45.210
12884;170692;34.04;011;03.47.45.210
12924;170703;34.04;012;03.47.45.210
12884;170701;34.04;013;03.47.45.210
12908;170710;34.04;014;03.47.45.221
12932;170704;34.04;015;03.47.45.221
12908;170709;34.04;016;03.47.45.221
12928;170708;34.04;017;03.47.45.221
12928;170705;34.04;018;03.47.45.221
12912;170711;34.04;019;03.47.45.221
12908;170718;34.04;020;03.47.45.221
12908;170723;34.04;021;03.47.45.221
12896;170721;34.04;022;03.47.45.221
12920;170732;34.04;023;03.47.45.221
12920;170721;34.04;024;03.47.45.221
12904;170724;34.04;025;03.47.45.330
12928;170728;34.04;026;03.47.45.330
12900;170731;34.04;027;03.47.45.330
12920;170726;34.04;028;03.47.45.330
12924;170727;34.04;029;03.47.45.330
12932;170725;34.04;030;03.47.45.330
12896;170732;34.04;031;03.47.45.330
12920;170732;34.04;032;03.47.45.330
12912;170733;34.04;033;03.47.45.341
12928;170735;34.04;034;03.47.45.341
12932;170736;34.04;035;03.47.45.341
12904;170740;34.04;036;03.47.45.341
12904;170743;34.04;037;03.47.45.341
12932;170744;34.04;038;03.47.45.341
12900;170749;34.04;039;03.47.45.341
12928;170751;34.04;040;03.47.45.341
12920;170748;34.04;041;03.47.45.341
12900;170748;34.04;042;03.47.45.341
12916;170747;34.04;043;03.47.45.352
12900;170761;34.04;044;03.47.45.352
12904;170763;34.04;045;03.47.45.352
12924;170766;34.04;046;03.47.45.352
12912;170770;34.04;047;03.47.45.352
12912;170774;34.04;048;03.47.45.352
12932;170780;34.04;049;03.47.45.352
12904;170788;34.04;050;03.47.45.472
12884;170777;34.04;051;03.47.45.472
12900;170772;34.04;052;03.47.45.472
12908;170783;34.04;053;03.47.45.472
12876;170784;34.04;054;03.47.45.483
12908;170789;34.04;055;03.47.45.483
12928;170788;34.04;056;03.47.45.483
12896;170784;34.04;057;03.47.45.483
12892;170793;34.04;058;03.47.45.483
12908;170784;34.04;059;03.47.45.483
12908;170794;34.04;060;03.47.45.483
12928;170790;34.04;061;03.47.45.483
12888;170786;34.04;062;03.47.45.483
12916;170797;34.04;063;03.47.45.483
12888;170788;34.04;064;03.47.45.483
12908;170786;34.04;065;03.47.45.483
12912;170785;34.04;066;03.47.45.483
12928;170790;34.04;067;03.47.45.494
12896;170794;34.04;068;03.47.45.494
12932;170783;34.04;069;03.47.45.494
12892;170781;34.04;070;03.47.45.494
12928;170793;34.04;071;03.47.45.494
12888;170794;34.04;072;03.47.45.494
12932;170790;34.04;073;03.47.45.494
12908;170788;34.04;074;03.47.45.494
12908;170797;34.04;075;03.47.45.571
12900;170797;34.04;076;03.47.45.571
12908;170787;34.04;077;03.47.45.581
12908;170790;34.04;078;03.47.45.581
12892;170792;34.04;079;03.47.45.581
12896;170796;34.04;080;03.47.45.581
12924;170794;34.04;081;03.47.45.581
12908;170791;34.04;082;03.47.45.581
12908;170793;34.04;083;03.47.45.581
12908;170804;34.04;084;03.47.45.581
12928;170792;34.04;085;03.47.45.592
12928;170801;34.04;086;03.47.45.592
12904;170799;34.04;087;03.47.45.592
12912;170787;34.04;088;03.47.45.592
12896;170792;34.04;089;03.47.45.592
12908;170788;34.04;090;03.47.45.592
12876;170790;34.04;091;03.47.45.592
12892;170790;34.04;092;03.47.45.603
12908;170787;34.04;093;03.47.45.614
12908;170789;34.04;094;03.47.45.614
12920;170781;34.04;095;03.47.45.614
12936;170786;34.04;096;03.47.45.614
12888;170781;34.04;097;03.47.45.614
12928;170773;34.04;098;03.47.45.614
12940;170768;34.04;099;03.47.45.614
12892;170770;34.04;100;03.47.45.704
12884;170768;34.04;101;03.47.45.704
12900;170768;34.04;102;03.47.45.704
12916;170762;34.04;103;03.47.45.704
12892;170749;34.04;104;03.47.45.704
12944;170749;34.04;105;03.47.45.704
12900;170741;34.04;106;03.47.45.704
12908;170741;34.04;107;03.47.45.704
12900;170729;34.04;108;03.47.45.704
12888;170723;34.04;109;03.47.45.704
12924;170717;34.04;110;03.47.45.704
12892;170716;34.04;111;03.47.45.705
12908;170698;34.04;112;03.47.45.705
12900;170708;34.04;113;03.47.45.705
12896;170696;34.04;114;03.47.45.705
12904;170689;34.04;115;03.47.45.706
12928;170683;34.04;116;03.47.45.707
12912;170689;34.04;117;03.47.45.719
12936;170678;34.04;118;03.47.45.719
12912;170674;34.04;119;03.47.45.719
12932;170676;34.04;120;03.47.45.719
12928;170672;34.04;121;03.47.45.719
12896;170665;34.04;122;03.47.45.719
12916;170662;34.04;123;03.47.45.719
12920;170663;34.04;124;03.47.45.719
12912;170660;34.04;125;03.47.45.829
12928;170658;34.04;126;03.47.45.840
12936;170654;34.04;127;03.47.45.840
12892;170656;34.04;128;03.47.45.840
12900;170652;34.04;129;03.47.45.840
12884;170650;34.04;130;03.47.45.840
12928;170645;34.04;131;03.47.45.840
12908;170644;34.04;132;03.47.45.840
12908;170645;34.04;133;03.47.45.840
12880;170650;34.04;134;03.47.45.840
12888;170639;34.04;135;03.47.45.840
12912;170646;34.04;136;03.47.45.840
12928;170644;34.04;137;03.47.45.840
12896;170640;34.04;138;03.47.45.851
12916;170641;34.04;139;03.47.45.851
12920;170640;34.04;140;03.47.45.851
12892;170635;34.04;141;03.47.45.851
12892;170639;34.04;142;03.47.45.851
12904;170644;34.04;143;03.47.45.851
12916;170642;34.04;144;03.47.45.851
12904;170638;34.04;145;03.47.45.851
12908;170643;34.04;146;03.47.45.851
12928;170635;34.04;147;03.47.45.851
12912;170633;34.04;148;03.47.45.851
12904;170640;34.04;149;03.47.45.851
12916;170640;34.04;150;03.47.45.971
12916;170645;34.04;151;03.47.45.971
12912;170641;34.04;152;03.47.45.971
12896;170636;34.04;153;03.47.45.971
12912;170643;34.04;154;03.47.45.971
12924;170643;34.04;155;03.47.45.971
12892;170653;34.04;156;03.47.45.971
12900;170644;34.04;157;03.47.45.971
12912;170649;34.04;158;03.47.45.982
12896;170646;34.04;159;03.47.45.982
12916;170645;34.04;160;03.47.45.982
12932;170650;34.04;161;03.47.45.982
12916;170642;34.04;162;03.47.45.982
12928;170642;34.04;163;03.47.45.982
12916;170641;34.04;164;03.47.45.982
12904;170635;34.04;165;03.47.45.982
12928;170639;34.04;166;03.47.45.982
12928;170640;34.04;167;03.47.45.982
12908;170638;34.04;168;03.47.45.993
12892;170632;34.04;169;03.47.45.993
12936;170650;34.04;170;03.47.45.993
12916;170641;34.04;171;03.47.45.993
12944;170642;34.04;172;03.47.45.993
12928;170645;34.04;173;03.47.45.993
12920;170643;34.04;174;03.47.45.993
12892;170645;34.04;175;03.47.46.081
12896;170647;34.04;176;03.47.46.081
12932;170642;34.04;177;03.47.46.081
12892;170654;34.04;178;03.47.46.081
12944;170652;34.04;179;03.47.46.081
12904;170649;34.04;180;03.47.46.092
12904;170645;34.04;181;03.47.46.092
12892;170643;34.04;182;03.47.46.092
12904;170640;34.04;183;03.47.46.092
12912;170645;34.04;184;03.47.46.092
12936;170651;34.04;185;03.47.46.092
12920;170659;34.04;186;03.47.46.092
12928;170658;34.04;187;03.47.46.092
12904;170657;34.04;188;03.47.46.092
12912;170657;34.04;189;03.47.46.092
12920;170660;34.04;190;03.47.46.092
12940;170661;34.04;191;03.47.46.092
12908;170664;34.04;192;03.47.46.103
12916;170669;34.04;193;03.47.46.103
12920;170669;34.04;194;03.47.46.103
12908;170665;34.04;195;03.47.46.103
12916;170665;34.04;196;03.47.46.103
12896;170675;34.04;197;03.47.46.103
12908;170668;34.04;198;03.47.46.114
12924;170663;34.04;199;03.47.46.114
12932;170663;34.04;200;03.47.46.202
12916;170671;34.04;201;03.47.46.202
12920;170666;34.04;202;03.47.46.202
12944;170668;34.04;203;03.47.46.213
12900;170665;34.04;204;03.47.46.213
12908;170673;34.04;205;03.47.46.213
12892;170668;34.04;206;03.47.46.213
12908;170668;34.04;207;03.47.46.213
12892;170671;34.04;208;03.47.46.213
12908;170677;34.04;209;03.47.46.213
12912;170669;34.04;210;03.47.46.213
12884;170670;34.04;211;03.47.46.213
12916;170681;34.04;212;03.47.46.213
12912;170668;34.04;213;03.47.46.213
12912;170676;34.04;214;03.47.46.213
12920;170683;34.04;215;03.47.46.213
12896;170673;34.04;216;03.47.46.224
12900;170676;34.04;217;03.47.46.235
12884;170680;34.04;218;03.47.46.235
12896;170685;34.04;219;03.47.46.235
12892;170673;34.04;220;03.47.46.246
12892;170681;34.04;221;03.47.46.246
12876;170669;34.04;222;03.47.46.246
12944;170681;34.04;223;03.47.46.246
12908;170670;34.04;224;03.47.46.246
12888;170672;34.04;225;03.47.46.333
12912;170669;34.04;226;03.47.46.333
12932;170669;34.04;227;03.47.46.333
12904;170664;34.04;228;03.47.46.333
12912;170657;34.04;229;03.47.46.333
12896;170663;34.04;230;03.47.46.333
12920;170662;34.04;231;03.47.46.333
12908;170657;34.04;232;03.47.46.333
12900;170662;34.04;233;03.47.46.333
12896;170664;34.04;234;03.47.46.333
12920;170667;34.04;235;03.47.46.333
12876;170672;34.04;236;03.47.46.333
12892;170668;34.04;237;03.47.46.333
12912;170665;34.04;238;03.47.46.344
12900;170668;34.04;239;03.47.46.344
12896;170673;34.04;240;03.47.46.344
12908;170668;34.04;241;03.47.46.344
12876;170673;34.04;242;03.47.46.344
12896;170674;34.04;243;03.47.46.344
12912;170678;34.04;244;03.47.46.344
12892;170678;34.04;245;03.47.46.344
12912;170683;34.04;246;03.47.46.344
12896;170681;34.04;247;03.47.46.344
12876;170682;34.04;248;03.47.46.344
12924;170673;34.04;249;03.47.46.344
12928;170680;34.04;250;03.47.46.464
12908;170670;34.04;251;03.47.46.464
12892;170668;34.04;252;03.47.46.464
12876;170661;34.04;253;03.47.46.464
12920;170661;34.04;254;03.47.46.464
12912;170664;34.04;255;03.47.46.464
12916;170669;34.04;256;03.47.46.464
12932;170659;34.04;257;03.47.46.475
12908;170666;34.04;258;03.47.46.475
12896;170653;34.04;259;03.47.46.475
12900;170653;34.04;260;03.47.46.475
12916;170656;34.04;261;03.47.46.475
12932;170643;34.04;262;03.47.46.475
12936;170642;34.04;263;03.47.46.475
12928;170645;34.04;264;03.47.46.475
12928;170647;34.04;265;03.47.46.475
12900;170636;34.04;266;03.47.46.475
12892;170623;34.04;267;03.47.46.475
12888;170634;34.04;268;03.47.46.475
12928;170629;34.04;269;03.47.46.486
12900;170621;34.04;270;03.47.46.486
12892;170619;34.04;271;03.47.46.486
12896;170609;34.04;272;03.47.46.486
12916;170614;34.04;273;03.47.46.486
12924;170621;34.04;274;03.47.46.486
12912;170616;34.04;275;03.47.46.572
12912;170616;34.04;276;03.47.46.572
12912;170607;34.04;277;03.47.46.583
12900;170613;34.04;278;03.47.46.583
12908;170611;34.04;279;03.47.46.583
12912;170613;34.04;280;03.47.46.583
12928;170599;34.04;281;03.47.46.583
12892;170607;34.04;282;03.47.46.583
12904;170613;34.04;283;03.47.46.594
12916;170612;34.04;284;03.47.46.605
12884;170609;34.04;285;03.47.46.605
12928;170606;34.04;286;03.47.46.605
12904;170599;34.04;287;03.47.46.605
12916;170598;34.04;288;03.47.46.605
12948;170602;34.04;289;03.47.46.605
12900;170594;34.04;290;03.47.46.605
12928;170595;34.04;291;03.47.46.605
12908;170583;34.04;292;03.47.46.605
12900;170587;34.04;293;03.47.46.605
12916;170588;34.04;294;03.47.46.605
12892;170591;34.04;295;03.47.46.605
12928;170593;34.04;296;03.47.46.605
12908;170597;34.04;297;03.47.46.605
12916;170588;34.04;298;03.47.46.616
12924;170586;34.04;299;03.47.46.616
12896;170592;34.08;300;03.47.46.704
12872;170595;34.08;301;03.47.46.704
12936;170593;34.08;302;03.47.46.704
12912;170585;34.08;303;03.47.46.704
12904;170586;34.08;304;03.47.46.704
12896;170581;34.08;305;03.47.46.704
12948;170586;34.08;306;03.47.46.704
12896;170584;34.08;307;03.47.46.704
12916;170591;34.08;308;03.47.46.715
12908;170584;34.08;309;03.47.46.715
12928;170581;34.08;310;03.47.46.715
12896;170578;34.08;311;03.47.46.715
12892;170578;34.08;312;03.47.46.715
12892;170571;34.08;313;03.47.46.715
12900;170587;34.08;314;03.47.46.715
12900;170576;34.08;315;03.47.46.715
12908;170577;34.08;316;03.47.46.715
12896;170582;34.08;317;03.47.46.736
12900;170579;34.08;318;03.47.46.736
12908;170568;34.08;319;03.47.46.736
12888;170573;34.08;320;03.47.46.736
12920;170573;34.08;321;03.47.46.736
12892;170576;34.08;322;03.47.46.736
12928;170576;34.08;323;03.47.46.736
12936;170579;34.08;324;03.47.46.736
12896;170580;34.08;325;03.47.46.824
12884;170572;34.08;326;03.47.46.824
12932;170577;34.08;327;03.47.46.824
12892;170592;34.08;328;03.47.46.824
12908;170587;34.08;329;03.47.46.824
12932;170576;34.08;330;03.47.46.824
12892;170579;34.08;331;03.47.46.835
12920;170582;34.08;332;03.47.46.835
12892;170576;34.08;333;03.47.46.835
12928;170577;34.08;334;03.47.46.835
12932;170589;34.08;335;03.47.46.835
12896;170595;34.08;336;03.47.46.835
12928;170583;34.08;337;03.47.46.835
12908;170585;34.08;338;03.47.46.835
12884;170592;34.08;339;03.47.46.835
12904;170593;34.08;340;03.47.46.835
12916;170587;34.08;341;03.47.46.835
12928;170592;34.08;342;03.47.46.835
12892;170589;34.08;343;03.47.46.835
12900;170602;34.08;344;03.47.46.846
12904;170606;34.08;345;03.47.46.846
12896;170600;34.08;346;03.47.46.846
12892;170602;34.08;347;03.47.46.846
12920;170604;34.08;348;03.47.46.846
12912;170618;34.08;349;03.47.46.846
12928;170611;34.04;350;03.47.46.956
12908;170615;34.04;351;03.47.46.956
12936;170620;34.04;352;03.47.46.967
12908;170621;34.04;353;03.47.46.967
12928;170621;34.04;354;03.47.46.967
12888;170622;34.04;355;03.47.46.967
12912;170623;34.04;356;03.47.46.967
12944;170620;34.04;357;03.47.46.967
12912;170625;34.04;358;03.47.46.967
12896;170626;34.04;359;03.47.46.967
12928;170628;34.04;360;03.47.46.967
12900;170624;34.04;361;03.47.46.967
12952;170620;34.04;362;03.47.46.967
12912;170631;34.04;363;03.47.46.967
12892;170629;34.04;364;03.47.46.967
12896;170631;34.04;365;03.47.46.978
12908;170636;34.04;366;03.47.46.978
12904;170641;34.04;367;03.47.46.978
12892;170645;34.04;368;03.47.46.978
12916;170640;34.04;369;03.47.46.978
12904;170634;34.04;370;03.47.46.978
12928;170644;34.04;371;03.47.46.978
12880;170640;34.04;372;03.47.46.978
12908;170645;34.04;373;03.47.46.978
12904;170644;34.04;374;03.47.46.978
12916;170646;34.04;375;03.47.47.098
12912;170642;34.04;376;03.47.47.098
12908;170648;34.04;377;03.47.47.098
12928;170645;34.04;378;03.47.47.098
12908;170646;34.04;379;03.47.47.098
12908;170649;34.04;380;03.47.47.098
12928;170657;34.04;381;03.47.47.098
12868;170652;34.04;382;03.47.47.098
12876;170643;34.04;383;03.47.47.098
12912;170650;34.04;384;03.47.47.098
12916;170648;34.04;385;03.47.47.109
12916;170652;34.04;386;03.47.47.109
12904;170645;34.04;387;03.47.47.109
12896;170654;34.04;388;03.47.47.109
12896;170652;34.04;389;03.47.47.109
12908;170655;34.04;390;03.47.47.109
12928;170660;34.04;391;03.47.47.109
12920;170658;34.04;392;03.47.47.109
12928;170664;34.04;393;03.47.47.109
12896;170673;34.04;394;03.47.47.109
12916;170659;34.04;395;03.47.47.109
12912;170674;34.04;396;03.47.47.109
12940;170671;34.04;397;03.47.47.109
12928;170669;34.04;398;03.47.47.120
12928;170670;34.04;399;03.47.47.120
12888;170665;34.04;400;03.47.47.207
12904;170671;34.04;401;03.47.47.207
12928;170671;34.04;402;03.47.47.207
12884;170674;34.04;403;03.47.47.207
12928;170682;34.04;404;03.47.47.207
12908;170676;34.04;405;03.47.47.207
12904;170678;34.04;406;03.47.47.207
12932;170679;34.04;407;03.47.47.207
12928;170681;34.04;408;03.47.47.218
12928;170678;34.04;409;03.47.47.218
12928;170675;34.04;410;03.47.47.218
12912;170678;34.04;411;03.47.47.218
12892;170666;34.04;412;03.47.47.218
12900;170666;34.04;413;03.47.47.218
12928;170664;34.04;414;03.47.47.218
12908;170659;34.04;415;03.47.47.229
12920;170653;34.04;416;03.47.47.229
12884;170655;34.04;417;03.47.47.240
12928;170639;34.04;418;03.47.47.240
12920;170644;34.04;419;03.47.47.240
12904;170635;34.04;420;03.47.47.240
12912;170634;34.04;421;03.47.47.240
12900;170628;34.04;422;03.47.47.240
12948;170624;34.04;423;03.47.47.240
12900;170621;34.04;424;03.47.47.240
12876;170616;34.04;425;03.47.47.328
12892;170605;34.04;426;03.47.47.328
12924;170606;34.04;427;03.47.47.328
12892;170597;34.04;428;03.47.47.328
12952;170597;34.04;429;03.47.47.339
12892;170593;34.04;430;03.47.47.339
12904;170583;34.04;431;03.47.47.339
12908;170586;34.04;432;03.47.47.339
12928;170579;34.04;433;03.47.47.339
12892;170576;34.04;434;03.47.47.339
12884;170574;34.04;435;03.47.47.339
12908;170569;34.04;436;03.47.47.339
12880;170574;34.04;437;03.47.47.339
12908;170562;34.04;438;03.47.47.339
12884;170574;34.04;439;03.47.47.339
12912;170570;34.04;440;03.47.47.339
12904;170551;34.04;441;03.47.47.339
12908;170564;34.04;442;03.47.47.361
12928;170562;34.04;443;03.47.47.361
12888;170560;34.04;444;03.47.47.361
12904;170561;34.04;445;03.47.47.361
12896;170565;34.04;446;03.47.47.372
12908;170561;34.04;447;03.47.47.372
12912;170557;34.04;448;03.47.47.372
12940;170561;34.04;449;03.47.47.372
12864;170558;34.04;450;03.47.47.460
12904;170557;34.04;451;03.47.47.460
12896;170551;34.04;452;03.47.47.460
12884;170546;34.04;453;03.47.47.460
12908;170554;34.04;454;03.47.47.460
12868;170560;34.04;455;03.47.47.460
12928;170549;34.04;456;03.47.47.460
12920;170559;34.04;457;03.47.47.460
12888;170562;34.04;458;03.47.47.460
12924;170559;34.04;459;03.47.47.460
12900;170559;34.04;460;03.47.47.460
12924;170563;34.04;461;03.47.47.460
12900;170557;34.04;462;03.47.47.471
12900;170560;34.04;463;03.47.47.471
12896;170560;34.04;464;03.47.47.471
12908;170560;34.04;465;03.47.47.471
12896;170565;34.04;466;03.47.47.471
12904;170573;34.04;467;03.47.47.471
12892;170563;34.04;468;03.47.47.471
12900;170561;34.04;469;03.47.47.471
12928;170567;34.04;470;03.47.47.471
12920;170566;34.04;471;03.47.47.471
12912;170567;34.04;472;03.47.47.471
12924;170568;34.04;473;03.47.47.471
12912;170563;34.04;474;03.47.47.471
12904;170572;34.04;475;03.47.47.591
12916;170566;34.04;476;03.47.47.591
12860;170566;34.04;477;03.47.47.591
12912;170571;34.04;478;03.47.47.591
12896;170577;34.04;479;03.47.47.591
12936;170567;34.04;480;03.47.47.591
12920;170579;34.04;481;03.47.47.591
12900;170568;34.04;482;03.47.47.591
12884;170567;34.04;483;03.47.47.602
12912;170560;34.04;484;03.47.47.602
12900;170565;34.04;485;03.47.47.602
12928;170556;34.04;486;03.47.47.602
12900;170561;34.04;487;03.47.47.602
12908;170557;34.04;488;03.47.47.602
12904;170565;34.04;489;03.47.47.602
12932;170566;34.04;490;03.47.47.602
12932;170561;34.04;491;03.47.47.602
12924;170568;34.04;492;03.47.47.602
12932;170568;34.04;493;03.47.47.602
12908;170563;34.04;494;03.47.47.602
12936;170568;34.04;495;03.47.47.602
12912;170574;34.04;496;03.47.47.602
12924;170559;34.04;497;03.47.47.613
12904;170565;34.04;498;03.47.47.613
12892;170568;34.04;499;03.47.47.613
12892;170562;34.04;500;03.47.47.701
12924;170562;34.04;501;03.47.47.701
12920;170556;34.04;502;03.47.47.701
12928;170565;34.04;503;03.47.47.701
12916;170568;34.04;504;03.47.47.701
12892;170568;34.04;505;03.47.47.701
12900;170569;34.04;506;03.47.47.712
12904;170571;34.04;507;03.47.47.712
12928;170577;34.04;508;03.47.47.712
12904;170577;34.04;509;03.47.47.712
12924;170576;34.04;510;03.47.47.712
12904;170577;34.04;511;03.47.47.712
12892;170582;34.04;512;03.47.47.712
12904;170578;34.04;513;03.47.47.723
12932;170582;34.04;514;03.47.47.723
12932;170590;34.04;515;03.47.47.723
12952;170586;34.04;516;03.47.47.723
12908;170584;34.04;517;03.47.47.723
12936;170577;34.04;518;03.47.47.723
12904;170587;34.04;519;03.47.47.723
12916;170587;34.04;520;03.47.47.723
12924;170594;34.04;521;03.47.47.723
12884;170595;34.04;522;03.47.47.723
12928;170590;34.04;523;03.47.47.723
12928;170590;34.04;524;03.47.47.723
12908;170599;34.04;525;03.47.47.821
12884;170606;34.04;526;03.47.47.821
12916;170594;34.04;527;03.47.47.832
12920;170597;34.04;528;03.47.47.832
12892;170603;34.04;529;03.47.47.832
12892;170600;34.04;530;03.47.47.832
12904;170604;34.04;531;03.47.47.832
12928;170603;34.04;532;03.47.47.832
12892;170600;34.04;533;03.47.47.832
12944;170601;34.04;534;03.47.47.832
12920;170602;34.04;535;03.47.47.832
12916;170599;34.04;536;03.47.47.832
12912;170606;34.04;537;03.47.47.832
12884;170612;34.04;538;03.47.47.832
12928;170607;34.04;539;03.47.47.832
12912;170607;34.04;540;03.47.47.843
12916;170610;34.04;541;03.47.47.843
12888;170609;34.04;542;03.47.47.843
12892;170611;34.04;543;03.47.47.843
12896;170602;34.04;544;03.47.47.843
12920;170606;34.04;545;03.47.47.843
12904;170603;34.04;546;03.47.47.843
12920;170598;34.04;547;03.47.47.843
12936;170599;34.04;548;03.47.47.843
12912;170595;34.04;549;03.47.47.843
12904;170602;34.00;550;03.47.47.952
12896;170598;34.00;551;03.47.47.952
12928;170598;34.00;552;03.47.47.952
12888;170600;34.00;553;03.47.47.952
12920;170593;34.00;554;03.47.47.952
12900;170604;34.00;555;03.47.47.952
12916;170600;34.00;556;03.47.47.952
12912;170603;34.00;557;03.47.47.952
12920;170603;34.00;558;03.47.47.952
12904;170599;34.00;559;03.47.47.952
12928;170593;34.00;560;03.47.47.952
12916;170605;34.00;561;03.47.47.963
12892;170601;34.00;562;03.47.47.963
12892;170599;34.00;563;03.47.47.963
12916;170602;34.00;564;03.47.47.963
12884;170607;34.00;565;03.47.47.963
12928;170609;34.00;566;03.47.47.963
12912;170607;34.00;567;03.47.47.963
12888;170600;34.00;568;03.47.47.963
12900;170601;34.00;569;03.47.47.963
12900;170617;34.00;570;03.47.47.963
12908;170614;34.00;571;03.47.47.963
12916;170610;34.00;572;03.47.47.963
12892;170607;34.00;573;03.47.47.974
12928;170609;34.00;574;03.47.47.974
12924;170617;34.00;575;03.47.48.084
12896;170615;34.00;576;03.47.48.084
12912;170611;34.00;577;03.47.48.084
12896;170605;34.00;578;03.47.48.084
12932;170613;34.00;579;03.47.48.084
12944;170607;34.00;580;03.47.48.084
12928;170604;34.00;581;03.47.48.084
12888;170600;34.00;582;03.47.48.095
12876;170590;34.00;583;03.47.48.095
12892;170591;34.00;584;03.47.48.095
12924;170593;34.00;585;03.47.48.095
12920;170593;34.00;586;03.47.48.095
12912;170584;34.00;587;03.47.48.095
12904;170580;34.00;588;03.47.48.095
12928;170585;34.00;589;03.47.48.095
12884;170579;34.00;590;03.47.48.095
12860;170577;34.00;591;03.47.48.095
12904;170567;34.00;592;03.47.48.095
12908;170575;34.00;593;03.47.48.095
12928;170564;34.00;594;03.47.48.106
12908;170556;34.00;595;03.47.48.106
12920;170549;34.00;596;03.47.48.106
12924;170550;34.00;597;03.47.48.106
12904;170551;34.00;598;03.47.48.106
12904;170551;34.00;599;03.47.48.106
12928;170543;34.00;600;03.47.48.216
12928;170538;34.00;601;03.47.48.227
12896;170532;34.00;602;03.47.48.227
12916;170531;34.00;603;03.47.48.227
12924;170535;34.00;604;03.47.48.227
12896;170526;34.00;605;03.47.48.227
12900;170526;34.00;606;03.47.48.227
12928;170531;34.00;607;03.47.48.227
12908;170525;34.00;608;03.47.48.227
12912;170524;34.00;609;03.47.48.227
12904;170522;34.00;610;03.47.48.227
12920;170511;34.00;611;03.47.48.227
12928;170521;34.00;612;03.47.48.227
12912;170517;34.00;613;03.47.48.227
12916;170524;34.00;614;03.47.48.227
12900;170520;34.00;615;03.47.48.227
12908;170508;34.00;616;03.47.48.238
12904;170508;34.00;617;03.47.48.238
12888;170514;34.00;618;03.47.48.238
12884;170515;34.00;619;03.47.48.238
12936;170524;34.00;620;03.47.48.238
12892;170519;34.00;621;03.47.48.238
12928;170515;34.00;622;03.47.48.238
12928;170518;34.00;623;03.47.48.238
12916;170518;34.00;624;03.47.48.238
12916;170524;34.00;625;03.47.48.358
12892;170529;34.00;626;03.47.48.358
12928;170529;34.00;627;03.47.48.358
12888;170525;34.00;628;03.47.48.358
12912;170525;34.00;629;03.47.48.358
12900;170529;34.00;630;03.47.48.358
12916;170527;34.00;631;03.47.48.358
12880;170533;34.00;632;03.47.48.358
12904;170532;34.00;633;03.47.48.358
12916;170527;34.00;634;03.47.48.358
12936;170527;34.00;635;03.47.48.358
12908;170536;34.00;636;03.47.48.358
12960;170532;34.00;637;03.47.48.369
12908;170543;34.00;638;03.47.48.369
12932;170536;34.00;639;03.47.48.369
12920;170530;34.00;640;03.47.48.369
12916;170530;34.00;641;03.47.48.369
12928;170529;34.00;642;03.47.48.369
12892;170533;34.00;643;03.47.48.369
12928;170533;34.00;644;03.47.48.369
12912;170529;34.00;645;03.47.48.369
12896;170542;34.00;646;03.47.48.369
12920;170534;34.00;647;03.47.48.369
12928;170534;34.00;648;03.47.48.369
12936;170531;34.00;649;03.47.48.369
12892;170533;34.04;650;03.47.48.458
12920;170522;34.04;651;03.47.48.458
12916;170519;34.04;652;03.47.48.458
12892;170523;34.04;653;03.47.48.458
12892;170515;34.04;654;03.47.48.458
12944;170522;34.04;655;03.47.48.458
12920;170524;34.04;656;03.47.48.458
12920;170523;34.04;657;03.47.48.458
12924;170521;34.04;658;03.47.48.458
12896;170513;34.04;659;03.47.48.458
12892;170520;34.04;660;03.47.48.458
12904;170515;34.04;661;03.47.48.469
12908;170509;34.04;662;03.47.48.469
12896;170515;34.04;663;03.47.48.469
12932;170521;34.04;664;03.47.48.469
12888;170520;34.04;665;03.47.48.469
12892;170529;34.04;666;03.47.48.469
12900;170517;34.04;667;03.47.48.469
12920;170516;34.04;668;03.47.48.469
12928;170515;34.04;669;03.47.48.469
12908;170518;34.04;670;03.47.48.469
12920;170525;34.04;671;03.47.48.469
12896;170520;34.04;672;03.47.48.469
12888;170527;34.04;673;03.47.48.480
12928;170523;34.04;674;03.47.48.480
12888;170519;34.04;675;03.47.48.579
12888;170518;34.04;676;03.47.48.579
12892;170525;34.04;677;03.47.48.579
12896;170514;34.04;678;03.47.48.579
12868;170515;34.04;679;03.47.48.579
12912;170520;34.04;680;03.47.48.579
12928;170518;34.04;681;03.47.48.590
12896;170525;34.04;682;03.47.48.590
12916;170522;34.04;683;03.47.48.590
12896;170520;34.04;684;03.47.48.590
12904;170524;34.04;685;03.47.48.590
12888;170530;34.04;686;03.47.48.590
12932;170523;34.04;687;03.47.48.590
12900;170524;34.04;688;03.47.48.590
12928;170527;34.04;689;03.47.48.590
12896;170530;34.04;690;03.47.48.590
12904;170531;34.04;691;03.47.48.590
12908;170529;34.04;692;03.47.48.590
12912;170536;34.04;693;03.47.48.590
12916;170527;34.04;694;03.47.48.590
12908;170537;34.04;695;03.47.48.601
12892;170544;34.04;696;03.47.48.601
12908;170543;34.04;697;03.47.48.601
12904;170542;34.04;698;03.47.48.601
12896;170538;34.04;699;03.47.48.601
12928;170548;34.04;700;03.47.48.710
12892;170551;34.04;701;03.47.48.710
12900;170551;34.04;702;03.47.48.721
12908;170555;34.04;703;03.47.48.721
12888;170557;34.04;704;03.47.48.721
12888;170559;34.04;705;03.47.48.721
12912;170555;34.04;706;03.47.48.721
12912;170560;34.04;707;03.47.48.721
12920;170556;34.04;708;03.47.48.721
12908;170560;34.04;709;03.47.48.721
12912;170558;34.04;710;03.47.48.721
12912;170566;34.04;711;03.47.48.721
12920;170570;34.04;712;03.47.48.721
12892;170564;34.04;713;03.47.48.721
12880;170569;34.04;714;03.47.48.721
12904;170568;34.04;715;03.47.48.732
12896;170567;34.04;716;03.47.48.732
12876;170568;34.04;717;03.47.48.732
12896;170573;34.04;718;03.47.48.732
12928;170566;34.04;719;03.47.48.732
12912;170572;34.04;720;03.47.48.732
12892;170574;34.04;721;03.47.48.732
12916;170570;34.04;722;03.47.48.732
12928;170580;34.04;723;03.47.48.732
12928;170578;34.04;724;03.47.48.732
12888;170575;34.04;725;03.47.48.831
12896;170578;34.04;726;03.47.48.831
12892;170579;34.04;727;03.47.48.831
12888;170567;34.04;728;03.47.48.831
12892;170580;34.04;729;03.47.48.831
12908;170569;34.04;730;03.47.48.831
12904;170576;34.04;731;03.47.48.831
12908;170577;34.04;732;03.47.48.831
12896;170577;34.04;733;03.47.48.853
12908;170585;34.04;734;03.47.48.853
12916;170588;34.04;735;03.47.48.853
12892;170584;34.04;736;03.47.48.853
12944;170593;34.04;737;03.47.48.853
12908;170596;34.04;738;03.47.48.853
12916;170596;34.04;739;03.47.48.853
12904;170599;34.04;740;03.47.48.853
12920;170599;34.04;741;03.47.48.853
12892;170602;34.04;742;03.47.48.853
12928;170601;34.04;743;03.47.48.853
12920;170603;34.04;744;03.47.48.853
12892;170602;34.04;745;03.47.48.864
12928;170605;34.04;746;03.47.48.864
12900;170599;34.04;747;03.47.48.864
12892;170591;34.04;748;03.47.48.864
12928;170602;34.04;749;03.47.48.864
12932;170589;34.04;750;03.47.48.952
12892;170595;34.04;751;03.47.48.952
12928;170595;34.04;752;03.47.48.952
12888;170598;34.04;753;03.47.48.952
12904;170589;34.04;754;03.47.48.952
12888;170587;34.04;755;03.47.48.952
12892;170580;34.04;756;03.47.48.952
12944;170587;34.04;757;03.47.48.952
12904;170573;34.04;758;03.47.48.952
12916;170575;34.04;759;03.47.48.964
12892;170562;34.04;760;03.47.48.964
12904;170560;34.04;761;03.47.48.964
12928;170550;34.04;762;03.47.48.964
12908;170542;34.04;763;03.47.48.964
12920;170537;34.04;764;03.47.48.964
12928;170532;34.04;765;03.47.48.964
12920;170525;34.04;766;03.47.48.964
12912;170527;34.04;767;03.47.48.964
12928;170525;34.04;768;03.47.48.964
12908;170520;34.04;769;03.47.48.964
12904;170520;34.04;770;03.47.48.964
12892;170513;34.04;771;03.47.48.964
12904;170505;34.04;772;03.47.48.975
12900;170504;34.04;773;03.47.48.975
12924;170504;34.04;774;03.47.48.975
12920;170493;34.04;775;03.47.49.073
12912;170505;34.04;776;03.47.49.073
12892;170500;34.04;777;03.47.49.073
12912;170502;34.04;778;03.47.49.073
12916;170499;34.04;779;03.47.49.073
12900;170496;34.04;780;03.47.49.073
12916;170486;34.04;781;03.47.49.084
12920;170500;34.04;782;03.47.49.084
12908;170500;34.04;783;03.47.49.084
12888;170485;34.04;784;03.47.49.084
12908;170483;34.04;785;03.47.49.084
12928;170491;34.04;786;03.47.49.084
12900;170484;34.04;787;03.47.49.084
12900;170488;34.04;788;03.47.49.084
12900;170487;34.04;789;03.47.49.084
12892;170481;34.04;790;03.47.49.084
12908;170489;34.04;791;03.47.49.084
12928;170487;34.04;792;03.47.49.084
12912;170484;34.04;793;03.47.49.084
12908;170479;34.04;794;03.47.49.095
12900;170486;34.04;795;03.47.49.095
12916;170482;34.04;796;03.47.49.095
12916;170483;34.04;797;03.47.49.095
12916;170488;34.04;798;03.47.49.095
12904;170495;34.04;799;03.47.49.095
12892;170490;34.04;800;03.47.49.205
12900;170492;34.04;801;03.47.49.205
12936;170491;34.04;802;03.47.49.216
12908;170494;34.04;803;03.47.49.216
12896;170494;34.04;804;03.47.49.216
12908;170491;34.04;805;03.47.49.216
12916;170490;34.04;806;03.47.49.216
12900;170484;34.04;807;03.47.49.216
12884;170491;34.04;808;03.47.49.216
12924;170487;34.04;809;03.47.49.216
12944;170495;34.04;810;03.47.49.216
12912;170496;34.04;811;03.47.49.216
12944;170491;34.04;812;03.47.49.216
12904;170498;34.04;813;03.47.49.216
12880;170500;34.04;814;03.47.49.216
12888;170511;34.04;815;03.47.49.227
12892;170505;34.04;816;03.47.49.227
12884;170513;34.04;817;03.47.49.227
12892;170512;34.04;818;03.47.49.227
12936;170514;34.04;819;03.47.49.227
12908;170510;34.04;820;03.47.49.227
12928;170514;34.04;821;03.47.49.227
12896;170512;34.04;822;03.47.49.227
12892;170512;34.04;823;03.47.49.227
12928;170515;34.04;824;03.47.49.227
12884;170511;34.04;825;03.47.49.348
12904;170508;34.04;826;03.47.49.348
12908;170514;34.04;827;03.47.49.348
12888;170521;34.04;828;03.47.49.348
12908;170511;34.04;829;03.47.49.348
12928;170509;34.04;830;03.47.49.348
12888;170508;34.04;831;03.47.49.348
12924;170510;34.04;832;03.47.49.348
12884;170507;34.04;833;03.47.49.348
12916;170523;34.04;834;03.47.49.348
12896;170515;34.04;835;03.47.49.348
12892;170523;34.04;836;03.47.49.359
12928;170524;34.04;837;03.47.49.359
12912;170519;34.04;838;03.47.49.359
12904;170516;34.04;839;03.47.49.359
12944;170525;34.04;840;03.47.49.359
12928;170520;34.04;841;03.47.49.359
12904;170518;34.04;842;03.47.49.359
12912;170516;34.04;843;03.47.49.359
12908;170529;34.04;844;03.47.49.359
12892;170526;34.04;845;03.47.49.359
12896;170529;34.04;846;03.47.49.359
12892;170533;34.04;847;03.47.49.359
12892;170538;34.04;848;03.47.49.359
12928;170528;34.04;849;03.47.49.369
12944;170529;34.04;850;03.47.49.458
12900;170535;34.04;851;03.47.49.458
12892;170538;34.04;852;03.47.49.458
12912;170539;34.04;853;03.47.49.458
12908;170540;34.04;854;03.47.49.458
12912;170541;34.04;855;03.47.49.458
12916;170544;34.04;856;03.47.49.458
12892;170545;34.04;857;03.47.49.458
12884;170533;34.04;858;03.47.49.468
12936;170545;34.04;859;03.47.49.468
12932;170549;34.04;860;03.47.49.468
12908;170546;34.04;861;03.47.49.468
12928;170544;34.04;862;03.47.49.468
12888;170553;34.04;863;03.47.49.468
12888;170548;34.04;864;03.47.49.468
12912;170559;34.04;865;03.47.49.479
12928;170553;34.04;866;03.47.49.479
12912;170555;34.04;867;03.47.49.479
12916;170559;34.04;868;03.47.49.479
12928;170559;34.04;869;03.47.49.479
12896;170564;34.04;870;03.47.49.479
12912;170568;34.04;871;03.47.49.479
12900;170563;34.04;872;03.47.49.479
12904;170565;34.04;873;03.47.49.479
12892;170562;34.04;874;03.47.49.479
12932;170566;34.04;875;03.47.49.578
12928;170564;34.04;876;03.47.49.578
12908;170565;34.04;877;03.47.49.578
12900;170567;34.04;878;03.47.49.578
12908;170562;34.04;879;03.47.49.589
12900;170560;34.04;880;03.47.49.589
12892;170566;34.04;881;03.47.49.589
12916;170565;34.04;882;03.47.49.589
12876;170559;34.04;883;03.47.49.589
12920;170565;34.04;884;03.47.49.589
12880;170566;34.04;885;03.47.49.589
12884;170565;34.04;886;03.47.49.589
12884;170583;34.04;887;03.47.49.589
12876;170570;34.04;888;03.47.49.589
12912;170571;34.04;889;03.47.49.589
12904;170571;34.04;890;03.47.49.589
12904;170564;34.04;891;03.47.49.589
12904;170580;34.04;892;03.47.49.600
12892;170571;34.04;893;03.47.49.600
12904;170578;34.04;894;03.47.49.600
12900;170573;34.04;895;03.47.49.600
12912;170576;34.04;896;03.47.49.600
12884;170567;34.04;897;03.47.49.600
12920;170577;34.04;898;03.47.49.600
12908;170579;34.04;899;03.47.49.600
12884;170575;34.04;900;03.47.49.720
12892;170578;34.04;901;03.47.49.720
12904;170573;34.04;902;03.47.49.720
12908;170581;34.04;903;03.47.49.720
12900;170582;34.04;904;03.47.49.720
12912;170584;34.04;905;03.47.49.720
12892;170585;34.04;906;03.47.49.720
12868;170582;34.04;907;03.47.49.720
12916;170585;34.04;908;03.47.49.720
12916;170588;34.04;909;03.47.49.720
12900;170585;34.04;910;03.47.49.720
12912;170592;34.04;911;03.47.49.720
12856;170598;34.04;912;03.47.49.731
12936;170593;34.04;913;03.47.49.731
12900;170604;34.04;914;03.47.49.731
12912;170601;34.04;915;03.47.49.731
12920;170603;34.04;916;03.47.49.731
12904;170603;34.04;917;03.47.49.731
12912;170601;34.04;918;03.47.49.731
12908;170604;34.04;919;03.47.49.731
12896;170612;34.04;920;03.47.49.731
12880;170604;34.04;921;03.47.49.731
12920;170616;34.04;922;03.47.49.731
12912;170614;34.04;923;03.47.49.731
12936;170609;34.04;924;03.47.49.731
12896;170608;34.04;925;03.47.49.841
12928;170606;34.04;926;03.47.49.841
12916;170601;34.04;927;03.47.49.841
12916;170605;34.04;928;03.47.49.841
12924;170599;34.04;929;03.47.49.841
12904;170594;34.04;930;03.47.49.841
12896;170585;34.04;931;03.47.49.841
12920;170585;34.04;932;03.47.49.841
12900;170588;34.04;933;03.47.49.852
12900;170579;34.04;934;03.47.49.852
12912;170570;34.04;935;03.47.49.852
12892;170571;34.04;936;03.47.49.852
12912;170571;34.04;937;03.47.49.852
12904;170569;34.04;938;03.47.49.852
12896;170567;34.04;939;03.47.49.852
12884;170559;34.04;940;03.47.49.852
12904;170551;34.04;941;03.47.49.852
12892;170547;34.04;942;03.47.49.852
12888;170556;34.04;943;03.47.49.863
12912;170544;34.04;944;03.47.49.863
12928;170547;34.04;945;03.47.49.863
12900;170537;34.04;946;03.47.49.863
12888;170535;34.04;947;03.47.49.863
12892;170541;34.04;948;03.47.49.863
12908;170544;34.04;949;03.47.49.863
12928;170537;34.04;950;03.47.49.973
12928;170532;34.04;951;03.47.49.973
12928;170532;34.04;952;03.47.49.973
12896;170538;34.04;953;03.47.49.973
12884;170536;34.04;954;03.47.49.973
12888;170540;34.04;955;03.47.49.973
12936;170538;34.04;956;03.47.49.984
12892;170535;34.04;957;03.47.49.984
12896;170538;34.04;958;03.47.49.984
12908;170535;34.04;959;03.47.49.984
12900;170537;34.04;960;03.47.49.984
12928;170532;34.04;961;03.47.49.984
12892;170536;34.04;962;03.47.49.984
12904;170538;34.04;963;03.47.49.984
12904;170534;34.04;964;03.47.49.984
12936;170535;34.04;965;03.47.49.984
12892;170534;34.04;966;03.47.49.984
12928;170534;34.04;967;03.47.49.984
12912;170536;34.04;968;03.47.49.984
12904;170538;34.04;969;03.47.49.994
12904;170536;34.04;970;03.47.49.994
12908;170540;34.04;971;03.47.49.994
12928;170543;34.04;972;03.47.49.994
12912;170534;34.04;973;03.47.49.994
12928;170535;34.04;974;03.47.49.994
12904;170538;34.04;975;03.47.50.071
12912;170538;34.04;976;03.47.50.071
12880;170538;34.04;977;03.47.50.082
12892;170539;34.04;978;03.47.50.082
12924;170548;34.04;979;03.47.50.082
12900;170540;34.04;980;03.47.50.082
12928;170534;34.04;981;03.47.50.082
12916;170542;34.04;982;03.47.50.082
12908;170538;34.04;983;03.47.50.082
12932;170546;34.04;984;03.47.50.082
12900;170535;34.04;985;03.47.50.082
12912;170535;34.04;986;03.47.50.082
12892;170538;34.04;987;03.47.50.082
12876;170537;34.04;988;03.47.50.082
12888;170532;34.04;989;03.47.50.082
12896;170534;34.04;990;03.47.50.093
12916;170530;34.04;991;03.47.50.093
12920;170535;34.04;992;03.47.50.093
12896;170539;34.04;993;03.47.50.093
12868;170527;34.04;994;03.47.50.093
12908;170530;34.04;995;03.47.50.093
12908;170536;34.04;996;03.47.50.093
12928;170530;34.04;997;03.47.50.093
12900;170526;34.04;998;03.47.50.093
12936;170526;34.04;999;03.47.50.093
12900;170534;34.00;000;03.47.50.214
12920;170528;34.00;001;03.47.50.214
12892;170518;34.00;002;03.47.50.214
12936;170521;34.00;003;03.47.50.214
12924;170515;34.00;004;03.47.50.214
12872;170515;34.00;005;03.47.50.214
12920;170521;34.00;006;03.47.50.214
12892;170521;34.00;007;03.47.50.214
12892;170524;34.00;008;03.47.50.225
12876;170521;34.00;009;03.47.50.225
12908;170517;34.00;010;03.47.50.225
12908;170532;34.00;011;03.47.50.225
12916;170515;34.00;012;03.47.50.225
12884;170519;34.00;013;03.47.50.225
12892;170514;34.00;014;03.47.50.225
12932;170529;34.00;015;03.47.50.225
12908;170511;34.00;016;03.47.50.225
12900;170516;34.00;017;03.47.50.236
12908;170521;34.00;018;03.47.50.236
12904;170524;34.00;019;03.47.50.236
12892;170523;34.00;020;03.47.50.236
12892;170521;34.00;021;03.47.50.236
12900;170523;34.00;022;03.47.50.236
12900;170526;34.00;023;03.47.50.236
12936;170531;34.00;024;03.47.50.236
12916;170525;34.00;025;03.47.50.335
12924;170526;34.00;026;03.47.50.335
12916;170527;34.00;027;03.47.50.335
12908;170529;34.00;028;03.47.50.335
12908;170533;34.00;029;03.47.50.335
12916;170535;34.00;030;03.47.50.335
12900;170532;34.00;031;03.47.50.335
12900;170539;34.00;032;03.47.50.335
12896;170534;34.00;033;03.47.50.346
12920;170542;34.00;034;03.47.50.346
12936;170542;34.00;035;03.47.50.346
12892;170541;34.00;036;03.47.50.346
12924;170539;34.00;037;03.47.50.346
12888;170549;34.00;038;03.47.50.346
12928;170545;34.00;039;03.47.50.346
12908;170549;34.00;040;03.47.50.346
12892;170535;34.00;041;03.47.50.346
12892;170547;34.00;042;03.47.50.346
12928;170551;34.00;043;03.47.50.346
12904;170549;34.00;044;03.47.50.346
12896;170541;34.00;045;03.47.50.357
12892;170559;34.00;046;03.47.50.357
12892;170561;34.00;047;03.47.50.357
12900;170564;34.00;048;03.47.50.357
12960;170550;34.00;049;03.47.50.357
12896;170559;34.04;050;03.47.50.477
12884;170559;34.04;051;03.47.50.477
12916;170555;34.04;052;03.47.50.477
12888;170546;34.04;053;03.47.50.478
12916;170556;34.04;054;03.47.50.489
12900;170557;34.04;055;03.47.50.489
12924;170558;34.04;056;03.47.50.489
12912;170555;34.04;057;03.47.50.489
12928;170557;34.04;058;03.47.50.489
12884;170565;34.04;059;03.47.50.489
12892;170557;34.04;060;03.47.50.489
12892;170556;34.04;061;03.47.50.489
12908;170567;34.04;062;03.47.50.489
12900;170560;34.04;063;03.47.50.489
12912;170562;34.04;064;03.47.50.489
12904;170568;34.04;065;03.47.50.489
12896;170568;34.04;066;03.47.50.489
12888;170569;34.04;067;03.47.50.500
12900;170562;34.04;068;03.47.50.500
12900;170572;34.04;069;03.47.50.500
12928;170571;34.04;070;03.47.50.500
12928;170572;34.04;071;03.47.50.500
12912;170565;34.04;072;03.47.50.500
12892;170574;34.04;073;03.47.50.500
12904;170579;34.04;074;03.47.50.500
12908;170573;34.04;075;03.47.50.587
12892;170579;34.04;076;03.47.50.587
12900;170583;34.04;077;03.47.50.587
12880;170582;34.04;078;03.47.50.587
12908;170585;34.04;079;03.47.50.587
12880;170586;34.04;080;03.47.50.587
12912;170574;34.04;081;03.47.50.587
12928;170582;34.04;082;03.47.50.587
12896;170581;34.04;083;03.47.50.587
12928;170574;34.04;084;03.47.50.587
12904;170573;34.04;085;03.47.50.598
12888;170572;34.04;086;03.47.50.598
12904;170564;34.04;087;03.47.50.598
12892;170565;34.04;088;03.47.50.598
12912;170563;34.04;089;03.47.50.598
12928;170565;34.04;090;03.47.50.598
12904;170555;34.04;091;03.47.50.598
12904;170555;34.04;092;03.47.50.631
12904;170552;34.04;093;03.47.50.631
12908;170548;34.04;094;03.47.50.631
12904;170538;34.04;095;03.47.50.631
12884;170539;34.04;096;03.47.50.631
12916;170529;34.04;097;03.47.50.631
12860;170527;34.04;098;03.47.50.631
12884;170520;34.04;099;03.47.50.631
12892;170513;34.04;100;03.47.50.708
12888;170519;34.04;101;03.47.50.708
12908;170515;34.04;102;03.47.50.708
12896;170510;34.04;103;03.47.50.708
12912;170517;34.04;104;03.47.50.708
12896;170503;34.04;105;03.47.50.708
12900;170502;34.04;106;03.47.50.708
12892;170511;34.04;107;03.47.50.708
12920;170505;34.04;108;03.47.50.708
12912;170505;34.04;109;03.47.50.708
12892;170497;34.04;110;03.47.50.719
12896;170495;34.04;111;03.47.50.719
12892;170496;34.04;112;03.47.50.719
12904;170498;34.04;113;03.47.50.719
12876;170499;34.04;114;03.47.50.719
12900;170496;34.04;115;03.47.50.719
12916;170478;34.04;116;03.47.50.719
12896;170490;34.04;117;03.47.50.719
12920;170483;34.04;118;03.47.50.719
12896;170496;34.04;119;03.47.50.719
12904;170487;34.04;120;03.47.50.719
12908;170482;34.04;121;03.47.50.719
12904;170495;34.04;122;03.47.50.730
12900;170485;34.04;123;03.47.50.730
12944;170488;34.04;124;03.47.50.730
12916;170491;34.04;125;03.47.50.839
12928;170491;34.04;126;03.47.50.839
12896;170479;34.04;127;03.47.50.839
12900;170478;34.04;128;03.47.50.839
12892;170488;34.04;129;03.47.50.850
12912;170486;34.04;130;03.47.50.850
12904;170492;34.04;131;03.47.50.850
12888;170491;34.04;132;03.47.50.850
12876;170494;34.04;133;03.47.50.850
12896;170488;34.04;134;03.47.50.850
12912;170487;34.04;135;03.47.50.850
12916;170487;34.04;136;03.47.50.850
12904;170489;34.04;137;03.47.50.850
12928;170491;34.04;138;03.47.50.850
12904;170491;34.04;139;03.47.50.850
12912;170491;34.04;140;03.47.50.850
12920;170497;34.04;141;03.47.50.850
12892;170487;34.04;142;03.47.50.850
12892;170485;34.04;143;03.47.50.861
12884;170495;34.04;144;03.47.50.861
12924;170489;34.04;145;03.47.50.861
12932;170493;34.04;146;03.47.50.861
12888;170492;34.04;147;03.47.50.861
12908;170490;34.04;148;03.47.50.861
12892;170490;34.04;149;03.47.50.861
12900;170493;34.04;150;03.47.50.960
12924;170501;34.04;151;03.47.50.960
12904;170496;34.04;152;03.47.50.960
12908;170496;34.04;153;03.47.50.971
12912;170498;34.04;154;03.47.50.971
12936;170497;34.04;155;03.47.50.971
12892;170501;34.04;156;03.47.50.971
12916;170500;34.04;157;03.47.50.971
12896;170498;34.04;158;03.47.50.971
12904;170504;34.04;159;03.47.50.971
12900;170503;34.04;160;03.47.50.971
12888;170506;34.04;161;03.47.50.971
12896;170499;34.04;162;03.47.50.971
12904;170513;34.04;163;03.47.50.971
12892;170502;34.04;164;03.47.50.971
12932;170507;34.04;165;03.47.50.971
12892;170507;34.04;166;03.47.50.973
12904;170509;34.04;167;03.47.50.973
12916;170509;34.04;168;03.47.50.973
12904;170519;34.04;169;03.47.50.984
12920;170517;34.04;170;03.47.50.984
12920;170515;34.04;171;03.47.50.984
12944;170512;34.04;172;03.47.50.984
12928;170518;34.04;173;03.47.50.984
12912;170510;34.04;174;03.47.50.984
12896;170518;34.04;175;03.47.51.072
12900;170519;34.04;176;03.47.51.083
12900;170510;34.04;177;03.47.51.083
12920;170519;34.04;178;03.47.51.083
12900;170522;34.04;179;03.47.51.083
12944;170524;34.04;180;03.47.51.083
12912;170519;34.04;181;03.47.51.083
12892;170523;34.04;182;03.47.51.083
12908;170522;34.04;183;03.47.51.083
12932;170526;34.04;184;03.47.51.083
12896;170525;34.04;185;03.47.51.094
12916;170528;34.04;186;03.47.51.094
12936;170525;34.04;187;03.47.51.094
12900;170542;34.04;188;03.47.51.094
12936;170532;34.04;189;03.47.51.094
12912;170540;34.04;190;03.47.51.094
12904;170531;34.04;191;03.47.51.094
12916;170540;34.04;192;03.47.51.116
12892;170536;34.04;193;03.47.51.116
12900;170536;34.04;194;03.47.51.116
12920;170534;34.04;195;03.47.51.116
12892;170535;34.04;196;03.47.51.116
12916;170544;34.04;197;03.47.51.116
12928;170548;34.04;198;03.47.51.116
12944;170547;34.04;199;03.47.51.116
12912;170554;34.04;200;03.47.51.203
12952;170557;34.04;201;03.47.51.203
12928;170556;34.04;202;03.47.51.203
12912;170557;34.04;203;03.47.51.203
12928;170551;34.04;204;03.47.51.203
12880;170557;34.04;205;03.47.51.203
12912;170561;34.04;206;03.47.51.203
12900;170564;34.04;207;03.47.51.203
12904;170561;34.04;208;03.47.51.203
12900;170566;34.04;209;03.47.51.203
12928;170561;34.04;210;03.47.51.203
12920;170568;34.04;211;03.47.51.214
12920;170572;34.04;212;03.47.51.214
12928;170576;34.04;213;03.47.51.214
12932;170563;34.04;214;03.47.51.214
12908;170575;34.04;215;03.47.51.214
12900;170573;34.04;216;03.47.51.214
12916;170576;34.04;217;03.47.51.214
12928;170584;34.04;218;03.47.51.214
12928;170572;34.04;219;03.47.51.214
12924;170578;34.04;220;03.47.51.214
12932;170581;34.04;221;03.47.51.214
12928;170578;34.04;222;03.47.51.214
12924;170584;34.04;223;03.47.51.214
12924;170578;34.04;224;03.47.51.225
12896;170580;34.04;225;03.47.51.335
12928;170581;34.04;226;03.47.51.335
12920;170583;34.04;227;03.47.51.335
12892;170582;34.04;228;03.47.51.335
12916;170581;34.04;229;03.47.51.335
12892;170582;34.04;230;03.47.51.335
12904;170575;34.04;231;03.47.51.335
12944;170569;34.04;232;03.47.51.346
12932;170576;34.04;233;03.47.51.346
12908;170581;34.04;234;03.47.51.346
12924;170586;34.04;235;03.47.51.346
12924;170580;34.04;236;03.47.51.346
12936;170590;34.04;237;03.47.51.346
12900;170588;34.04;238;03.47.51.346
12896;170579;34.04;239;03.47.51.346
12924;170585;34.04;240;03.47.51.346
12908;170578;34.04;241;03.47.51.346
12896;170582;34.04;242;03.47.51.346
12920;170568;34.04;243;03.47.51.346
12928;170567;34.04;244;03.47.51.357
12924;170570;34.04;245;03.47.51.357
12908;170569;34.04;246;03.47.51.357
12896;170566;34.04;247;03.47.51.357
12928;170563;34.04;248;03.47.51.357
12908;170546;34.04;249;03.47.51.357
12892;170546;34.04;250;03.47.51.466
12896;170544;34.04;251;03.47.51.466
12916;170539;34.04;252;03.47.51.477
12888;170532;34.04;253;03.47.51.477
12888;170524;34.04;254;03.47.51.477
12900;170531;34.04;255;03.47.51.477
12900;170517;34.04;256;03.47.51.477
12912;170518;34.04;257;03.47.51.477
12900;170509;34.04;258;03.47.51.477
12932;170503;34.04;259;03.47.51.477
12916;170504;34.04;260;03.47.51.477
12892;170505;34.04;261;03.47.51.477
12928;170503;34.04;262;03.47.51.477
12920;170495;34.04;263;03.47.51.477
12916;170497;34.04;264;03.47.51.477
12916;170495;34.04;265;03.47.51.488
12896;170492;34.04;266;03.47.51.488
12928;170500;34.04;267;03.47.51.488
12928;170489;34.04;268;03.47.51.488
12912;170500;34.04;269;03.47.51.488
12916;170491;34.04;270;03.47.51.488
12908;170489;34.04;271;03.47.51.488
12892;170499;34.04;272;03.47.51.488
12884;170492;34.04;273;03.47.51.488
12904;170494;34.04;274;03.47.51.488
12892;170488;34.04;275;03.47.51.587
12928;170490;34.04;276;03.47.51.587
12908;170498;34.04;277;03.47.51.587
12888;170487;34.04;278;03.47.51.587
12924;170489;34.04;279;03.47.51.587
12928;170493;34.04;280;03.47.51.587
12892;170486;34.04;281;03.47.51.587
12884;170478;34.04;282;03.47.51.587
12900;170482;34.04;283;03.47.51.620
12892;170480;34.04;284;03.47.51.620
12892;170485;34.04;285;03.47.51.620
12904;170488;34.04;286;03.47.51.620
12892;170480;34.04;287;03.47.51.620
12888;170478;34.04;288;03.47.51.620
12904;170478;34.04;289;03.47.51.620
12900;170484;34.04;290;03.47.51.620
12928;170482;34.04;291;03.47.51.620
12924;170490;34.04;292;03.47.51.620
12920;170472;34.04;293;03.47.51.620
12916;170487;34.04;294;03.47.51.631
12944;170484;34.04;295;03.47.51.631
12928;170487;34.04;296;03.47.51.631
12896;170485;34.04;297;03.47.51.631
12884;170485;34.04;298;03.47.51.631
12960;170494;34.04;299;03.47.51.631
12904;170482;34.00;300;03.47.51.708
12916;170494;34.00;301;03.47.51.708
12908;170484;34.00;302;03.47.51.708
12892;170487;34.00;303;03.47.51.708
12908;170482;34.00;304;03.47.51.708
12960;170487;34.00;305;03.47.51.708
12900;170484;34.00;306;03.47.51.708
12888;170486;34.00;307;03.47.51.708
12904;170493;34.00;308;03.47.51.719
12892;170493;34.00;309;03.47.51.719
12892;170486;34.00;310;03.47.51.719
12932;170498;34.00;311;03.47.51.719
12912;170493;34.00;312;03.47.51.719
12884;170497;34.00;313;03.47.51.719
12904;170499;34.00;314;03.47.51.719
12892;170497;34.00;315;03.47.51.719
12928;170494;34.00;316;03.47.51.719
12912;170492;34.00;317;03.47.51.741
12904;170498;34.00;318;03.47.51.741
12912;170496;34.00;319;03.47.51.741
12924;170494;34.00;320;03.47.51.741
12916;170498;34.00;321;03.47.51.741
12944;170499;34.00;322;03.47.51.741
12876;170501;34.00;323;03.47.51.741
12920;170503;34.00;324;03.47.51.741
12884;170506;34.00;325;03.47.51.829
12916;170501;34.00;326;03.47.51.829
12876;170503;34.00;327;03.47.51.829
12900;170510;34.00;328;03.47.51.829
12908;170511;34.00;329;03.47.51.829
12896;170507;34.00;330;03.47.51.840
12924;170502;34.00;331;03.47.51.840
12936;170505;34.00;332;03.47.51.840
12904;170505;34.00;333;03.47.51.840
12912;170508;34.00;334;03.47.51.840
12896;170512;34.00;335;03.47.51.840
12888;170514;34.00;336;03.47.51.840
12876;170518;34.00;337;03.47.51.840
12904;170509;34.00;338;03.47.51.840
12908;170509;34.00;339;03.47.51.840
12892;170506;34.00;340;03.47.51.840
12908;170511;34.00;341;03.47.51.840
12948;170517;34.00;342;03.47.51.840
12896;170505;34.00;343;03.47.51.851
12916;170520;34.00;344;03.47.51.851
12928;170515;34.00;345;03.47.51.851
12928;170517;34.00;346;03.47.51.851
12928;170516;34.00;347;03.47.51.851
12908;170520;34.00;348;03.47.51.851
12944;170519;34.00;349;03.47.51.851
12920;170514;34.00;350;03.47.51.971
12912;170521;34.00;351;03.47.51.971
12944;170517;34.00;352;03.47.51.971
12932;170517;34.00;353;03.47.51.971
12904;170517;34.00;354;03.47.51.971
12908;170519;34.00;355;03.47.51.971
12912;170515;34.00;356;03.47.51.971
12908;170522;34.00;357;03.47.51.971
12896;170531;34.00;358;03.47.51.971
12920;170519;34.00;359;03.47.51.971
12912;170522;34.00;360;03.47.51.971
12892;170526;34.00;361;03.47.51.971
12932;170525;34.00;362;03.47.51.971
12872;170525;34.00;363;03.47.51.982
12904;170528;34.00;364;03.47.51.982
12944;170527;34.00;365;03.47.51.982
12928;170530;34.00;366;03.47.51.982
12904;170532;34.00;367;03.47.51.982
12912;170532;34.00;368;03.47.51.993
12916;170531;34.00;369;03.47.51.993
12908;170534;34.00;370;03.47.51.993
12884;170539;34.00;371;03.47.51.993
12880;170538;34.00;372;03.47.51.993
12916;170537;34.00;373;03.47.51.993
12932;170542;34.00;374;03.47.51.993
12892;170535;34.00;375;03.47.52.081
12908;170537;34.00;376;03.47.52.081
12900;170539;34.00;377;03.47.52.081
12928;170551;34.00;378;03.47.52.081
12876;170545;34.00;379;03.47.52.081
12912;170539;34.00;380;03.47.52.081
12904;170546;34.00;381;03.47.52.081
12860;170545;34.00;382;03.47.52.081
12888;170545;34.00;383;03.47.52.103
12872;170553;34.00;384;03.47.52.103
12912;170553;34.00;385;03.47.52.103
12904;170553;34.00;386;03.47.52.103
12928;170553;34.00;387;03.47.52.103
12928;170559;34.00;388;03.47.52.103
12908;170561;34.00;389;03.47.52.103
12904;170567;34.00;390;03.47.52.103
12912;170564;34.00;391;03.47.52.103
12912;170563;34.00;392;03.47.52.114
12928;170564;34.00;393;03.47.52.114
12888;170567;34.00;394;03.47.52.114
12900;170565;34.00;395;03.47.52.114
12900;170562;34.00;396;03.47.52.114
12888;170555;34.00;397;03.47.52.114
12896;170563;34.00;398;03.47.52.114
12924;170573;34.00;399;03.47.52.114
12920;170575;34.00;400;03.47.52.201
12892;170578;34.00;401;03.47.52.201
12908;170576;34.00;402;03.47.52.201
12928;170577;34.00;403;03.47.52.201
12928;170577;34.00;404;03.47.52.201
12904;170580;34.00;405;03.47.52.201
12900;170572;34.00;406;03.47.52.201
12924;170574;34.00;407;03.47.52.212
12904;170577;34.00;408;03.47.52.212
12908;170568;34.00;409;03.47.52.212
12920;170561;34.00;410;03.47.52.212
12876;170566;34.00;411;03.47.52.212
12928;170551;34.00;412;03.47.52.212
12888;170562;34.00;413;03.47.52.212
12892;170552;34.00;414;03.47.52.212
12908;170549;34.00;415;03.47.52.223
12920;170553;34.00;416;03.47.52.223
12904;170548;34.00;417;03.47.52.223
12908;170542;34.00;418;03.47.52.223
12916;170534;34.00;419;03.47.52.223
12928;170527;34.00;420;03.47.52.223
12904;170531;34.00;421;03.47.52.223
12880;170519;34.00;422;03.47.52.223
12924;170534;34.00;423;03.47.52.223
12908;170521;34.00;424;03.47.52.223
12900;170521;34.00;425;03.47.52.322
12900;170514;34.00;426;03.47.52.322
12908;170507;34.00;427;03.47.52.322
12908;170516;34.00;428;03.47.52.333
12920;170506;34.00;429;03.47.52.333
12908;170509;34.00;430;03.47.52.333
12912;170502;34.00;431;03.47.52.333
12920;170499;34.00;432;03.47.52.333
12892;170507;34.00;433;03.47.52.333
12928;170495;34.00;434;03.47.52.333
12908;170501;34.00;435;03.47.52.333
12936;170496;34.00;436;03.47.52.333
12916;170494;34.00;437;03.47.52.333
12916;170490;34.00;438;03.47.52.333
12936;170493;34.00;439;03.47.52.333
12912;170495;34.00;440;03.47.52.333
12892;170490;34.00;441;03.47.52.344
12896;170493;34.00;442;03.47.52.344
12896;170486;34.00;443;03.47.52.344
12876;170487;34.00;444;03.47.52.344
12912;170489;34.00;445;03.47.52.344
12908;170486;34.00;446;03.47.52.344
12912;170484;34.00;447;03.47.52.344
12920;170478;34.00;448;03.47.52.344
12924;170484;34.00;449;03.47.52.344
12904;170479;34.04;450;03.47.52.464
12912;170475;34.04;451;03.47.52.464
12924;170476;34.04;452;03.47.52.464
12912;170480;34.04;453;03.47.52.464
12892;170473;34.04;454;03.47.52.464
12920;170470;34.04;455;03.47.52.464
12884;170466;34.04;456;03.47.52.464
12920;170472;34.04;457;03.47.52.464
12888;170472;34.04;458;03.47.52.464
12912;170468;34.04;459;03.47.52.464
12904;170461;34.04;460;03.47.52.464
12896;170477;34.04;461;03.47.52.475
12924;170478;34.04;462;03.47.52.475
12944;170473;34.04;463;03.47.52.475
12936;170470;34.04;464;03.47.52.475
12892;170468;34.04;465;03.47.52.475
12912;170471;34.04;466;03.47.52.475
12876;170474;34.04;467;03.47.52.475
12960;170467;34.04;468;03.47.52.475
12916;170473;34.04;469;03.47.52.475
12884;170471;34.04;470;03.47.52.475
12924;170471;34.04;471;03.47.52.475
12888;170478;34.04;472;03.47.52.475
12944;170470;34.04;473;03.47.52.475
12924;170469;34.04;474;03.47.52.486
12928;170467;34.04;475;03.47.52.607
12872;170467;34.04;476;03.47.52.607
12904;170470;34.04;477;03.47.52.607
12920;170469;34.04;478;03.47.52.607
12876;170458;34.04;479;03.47.52.607
12916;170472;34.04;480;03.47.52.607
12888;170466;34.04;481;03.47.52.607
12888;170464;34.04;482;03.47.52.618
12888;170470;34.04;483;03.47.52.618
12928;170463;34.04;484;03.47.52.618
12900;170468;34.04;485;03.47.52.618
12912;170475;34.04;486;03.47.52.618
12884;170471;34.04;487;03.47.52.618
12896;170478;34.04;488;03.47.52.618
12904;170470;34.04;489;03.47.52.618
12908;170479;34.04;490;03.47.52.618
12884;170482;34.04;491;03.47.52.618
12904;170482;34.04;492;03.47.52.618
12932;170483;34.04;493;03.47.52.618
12900;170480;34.04;494;03.47.52.618
12928;170484;34.04;495;03.47.52.618
12932;170485;34.04;496;03.47.52.630
12928;170490;34.04;497;03.47.52.630
12908;170493;34.04;498;03.47.52.630
12936;170499;34.04;499;03.47.52.630
12928;170495;34.04;500;03.47.52.706
12904;170504;34.04;501;03.47.52.706
12904;170502;34.04;502;03.47.52.706
12916;170498;34.04;503;03.47.52.706
12912;170508;34.04;504;03.47.52.706
12884;170507;34.04;505;03.47.52.706
12904;170503;34.04;506;03.47.52.717
12908;170505;34.04;507;03.47.52.717
12888;170503;34.04;508;03.47.52.717
12904;170507;34.04;509;03.47.52.717
12908;170507;34.04;510;03.47.52.717
12912;170509;34.04;511;03.47.52.717
12892;170513;34.04;512;03.47.52.717
12896;170504;34.04;513;03.47.52.728
12920;170513;34.04;514;03.47.52.728
12916;170510;34.04;515;03.47.52.728
12904;170513;34.04;516;03.47.52.728
12904;170515;34.04;517;03.47.52.728
12924;170510;34.04;518;03.47.52.728
12900;170518;34.04;519;03.47.52.728
12916;170522;34.04;520;03.47.52.728
12892;170512;34.04;521;03.47.52.728
12888;170519;34.04;522;03.47.52.728
12936;170518;34.04;523;03.47.52.728
12944;170519;34.04;524;03.47.52.728
12904;170524;34.04;525;03.47.52.829
12904;170522;34.04;526;03.47.52.829
12900;170531;34.04;527;03.47.52.829
12912;170523;34.04;528;03.47.52.829
12924;170529;34.04;529;03.47.52.840
12920;170531;34.04;530;03.47.52.840
12888;170535;34.04;531;03.47.52.840
12948;170535;34.04;532;03.47.52.840
12896;170538;34.04;533;03.47.52.840
12896;170540;34.04;534;03.47.52.840
12920;170539;34.04;535;03.47.52.840
12892;170542;34.04;536;03.47.52.840
12900;170543;34.04;537;03.47.52.840
12912;170550;34.04;538;03.47.52.840
12900;170549;34.04;539;03.47.52.840
12892;170544;34.04;540;03.47.52.852
12892;170551;34.04;541;03.47.52.852
12892;170563;34.04;542;03.47.52.863
12896;170554;34.04;543;03.47.52.863
12912;170555;34.04;544;03.47.52.863
12904;170563;34.04;545;03.47.52.863
12892;170555;34.04;546;03.47.52.863
12928;170559;34.04;547;03.47.52.874
12928;170571;34.04;548;03.47.52.874
12960;170578;34.04;549;03.47.52.874
12892;170573;34.00;550;03.47.52.951
12888;170563;34.00;551;03.47.52.962
12916;170578;34.00;552;03.47.52.962
12888;170570;34.00;553;03.47.52.962
12892;170575;34.00;554;03.47.52.962
12908;170573;34.00;555;03.47.52.962
12916;170571;34.00;556;03.47.52.962
12920;170572;34.00;557;03.47.52.962
12912;170585;34.00;558;03.47.52.962
12916;170583;34.00;559;03.47.52.962
12884;170581;34.00;560;03.47.52.962
12928;170577;34.00;561;03.47.52.962
12932;170573;34.00;562;03.47.52.962
12896;170578;34.00;563;03.47.52.962
12928;170584;34.00;564;03.47.52.973
12876;170586;34.00;565;03.47.52.973
12908;170578;34.00;566;03.47.52.973
12888;170578;34.00;567;03.47.52.973
12908;170589;34.00;568;03.47.52.973
12900;170574;34.00;569;03.47.52.973
12932;170580;34.00;570;03.47.52.973
12900;170584;34.00;571;03.47.52.973
12900;170593;34.00;572;03.47.52.973
12912;170591;34.00;573;03.47.52.973
12900;170586;34.00;574;03.47.52.973
12888;170589;34.00;575;03.47.53.093
12896;170586;34.00;576;03.47.53.093
12884;170583;34.00;577;03.47.53.093
12912;170573;34.00;578;03.47.53.093
12876;170581;34.00;579;03.47.53.093
12900;170581;34.00;580;03.47.53.093
12860;170581;34.00;581;03.47.53.093
12892;170569;34.00;582;03.47.53.093
12896;170575;34.00;583;03.47.53.093
12928;170571;34.00;584;03.47.53.093
12912;170577;34.00;585;03.47.53.093
12908;170562;34.00;586;03.47.53.103
12912;170568;34.00;587;03.47.53.103
12888;170554;34.00;588;03.47.53.103
12900;170552;34.00;589;03.47.53.103
12900;170557;34.00;590;03.47.53.103
12892;170550;34.00;591;03.47.53.103
12904;170539;34.00;592;03.47.53.103
12928;170544;34.00;593;03.47.53.103
12932;170536;34.00;594;03.47.53.103
12928;170538;34.00;595;03.47.53.103
12916;170529;34.00;596;03.47.53.103
12928;170535;34.00;597;03.47.53.103
12912;170527;34.00;598;03.47.53.114
12940;170529;34.00;599;03.47.53.114
12904;170508;34.04;600;03.47.53.202
12860;170517;34.04;601;03.47.53.202
12904;170506;34.04;602;03.47.53.202
12936;170519;34.04;603;03.47.53.202
12908;170513;34.04;604;03.47.53.202
12928;170509;34.04;605;03.47.53.202
12896;170512;34.04;606;03.47.53.213
12884;170511;34.04;607;03.47.53.213
12928;170509;34.04;608;03.47.53.224
12888;170507;34.04;609;03.47.53.224
12916;170510;34.04;610;03.47.53.224
12900;170514;34.04;611;03.47.53.224
12912;170510;34.04;612;03.47.53.224
12916;170511;34.04;613;03.47.53.224
12928;170512;34.04;614;03.47.53.235
12884;170516;34.04;615;03.47.53.235
12908;170503;34.04;616;03.47.53.235
12888;170508;34.04;617;03.47.53.235
12912;170510;34.04;618;03.47.53.235
12892;170510;34.04;619;03.47.53.235
12908;170506;34.04;620;03.47.53.235
12892;170499;34.04;621;03.47.53.235
12884;170503;34.04;622;03.47.53.235
12908;170500;34.04;623;03.47.53.235
12924;170504;34.04;624;03.47.53.246
12928;170502;34.04;625;03.47.53.323
12896;170504;34.04;626;03.47.53.323
12892;170501;34.04;627;03.47.53.323
12932;170499;34.04;628;03.47.53.334
12916;170492;34.04;629;03.47.53.334
12884;170503;34.04;630;03.47.53.334
12904;170513;34.04;631;03.47.53.334
12892;170508;34.04;632;03.47.53.334
12904;170505;34.04;633;03.47.53.334
12900;170509;34.04;634;03.47.53.334
12900;170504;34.04;635;03.47.53.334
12892;170502;34.04;636;03.47.53.334
12904;170504;34.04;637;03.47.53.334
12916;170501;34.04;638;03.47.53.334
12900;170497;34.04;639;03.47.53.334
12892;170508;34.04;640;03.47.53.345
12892;170504;34.04;641;03.47.53.345
12944;170508;34.04;642;03.47.53.345
12928;170497;34.04;643;03.47.53.345
12928;170497;34.04;644;03.47.53.345
12916;170493;34.04;645;03.47.53.345
12888;170494;34.04;646;03.47.53.345
12920;170505;34.04;647;03.47.53.345
12944;170505;34.04;648;03.47.53.345
12928;170509;34.04;649;03.47.53.345
12880;170500;34.00;650;03.47.53.454
12908;170502;34.00;651;03.47.53.454
12916;170511;34.00;652;03.47.53.454
12904;170506;34.00;653;03.47.53.454
12920;170496;34.00;654;03.47.53.454
12928;170502;34.00;655;03.47.53.454
12928;170502;34.00;656;03.47.53.454
12892;170510;34.00;657;03.47.53.454
12928;170508;34.00;658;03.47.53.454
12896;170503;34.00;659;03.47.53.454
12928;170509;34.00;660;03.47.53.454
12920;170509;34.00;661;03.47.53.465
12884;170510;34.00;662;03.47.53.465
12944;170512;34.00;663;03.47.53.465
12892;170515;34.00;664;03.47.53.465
12912;170514;34.00;665;03.47.53.465
12876;170511;34.00;666;03.47.53.465
12880;170521;34.00;667;03.47.53.465
12932;170521;34.00;668;03.47.53.465
12892;170520;34.00;669;03.47.53.465
12900;170528;34.00;670;03.47.53.465
12928;170529;34.00;671;03.47.53.465
12908;170525;34.00;672;03.47.53.465
12896;170522;34.00;673;03.47.53.465
12928;170522;34.00;674;03.47.53.465
12896;170520;34.00;675;03.47.53.586
12892;170527;34.00;676;03.47.53.586
12900;170529;34.00;677;03.47.53.586
12928;170526;34.00;678;03.47.53.586
12944;170523;34.00;679;03.47.53.586
12900;170522;34.00;680;03.47.53.586
12912;170522;34.00;681;03.47.53.586
12900;170528;34.00;682;03.47.53.597
12928;170519;34.00;683;03.47.53.597
12928;170532;34.00;684;03.47.53.597
12892;170527;34.00;685;03.47.53.597
12900;170530;34.00;686;03.47.53.597
12916;170522;34.00;687;03.47.53.597
12888;170530;34.00;688;03.47.53.597
12892;170533;34.00;689;03.47.53.597
12900;170531;34.00;690;03.47.53.597
12900;170523;34.00;691;03.47.53.597
12868;170526;34.00;692;03.47.53.597
12904;170526;34.00;693;03.47.53.597
12916;170522;34.00;694;03.47.53.597
12892;170532;34.00;695;03.47.53.597
12912;170526;34.00;696;03.47.53.608
12900;170523;34.00;697;03.47.53.608
12884;170533;34.00;698;03.47.53.608
12928;170533;34.00;699;03.47.53.608
12916;170537;34.04;700;03.47.53.717
12912;170530;34.04;701;03.47.53.717
12900;170534;34.04;702;03.47.53.717
12904;170530;34.04;703;03.47.53.728
12920;170528;34.04;704;03.47.53.728
12908;170541;34.04;705;03.47.53.728
12916;170536;34.04;706;03.47.53.728
12944;170541;34.04;707;03.47.53.728
12884;170545;34.04;708;03.47.53.728
12876;170543;34.04;709;03.47.53.728
12912;170542;34.04;710;03.47.53.728
12928;170545;34.04;711;03.47.53.728
12916;170547;34.04;712;03.47.53.728
12904;170544;34.04;713;03.47.53.728
12908;170549;34.04;714;03.47.53.728
12928;170550;34.04;715;03.47.53.728
12880;170551;34.04;716;03.47.53.739
12900;170546;34.04;717;03.47.53.739
12916;170549;34.04;718;03.47.53.739
12908;170547;34.04;719;03.47.53.739
12888;170555;34.04;720;03.47.53.739
12932;170561;34.04;721;03.47.53.739
12892;170561;34.04;722;03.47.53.739
12936;170558;34.04;723;03.47.53.739
12920;170563;34.04;724;03.47.53.739
12904;170565;34.04;725;03.47.53.860
12936;170564;34.04;726;03.47.53.860
12944;170559;34.04;727;03.47.53.860
12932;170572;34.04;728;03.47.53.860
12896;170578;34.04;729;03.47.53.860
12936;170576;34.04;730;03.47.53.860
12944;170568;34.04;731;03.47.53.860
12928;170571;34.04;732;03.47.53.860
12912;170575;34.04;733;03.47.53.860
12904;170582;34.04;734;03.47.53.860
12932;170574;34.04;735;03.47.53.860
12892;170572;34.04;736;03.47.53.860
12900;170581;34.04;737;03.47.53.871
12936;170581;34.04;738;03.47.53.871
12928;170586;34.04;739;03.47.53.871
12892;170588;34.04;740;03.47.53.871
12896;170590;34.04;741;03.47.53.871
12912;170593;34.04;742;03.47.53.871
12916;170597;34.04;743;03.47.53.871
12928;170590;34.04;744;03.47.53.871
12924;170597;34.04;745;03.47.53.871
12896;170591;34.04;746;03.47.53.871
12900;170585;34.04;747;03.47.53.871
12912;170588;34.04;748;03.47.53.871
12928;170589;34.04;749;03.47.53.881
12900;170584;34.00;750;03.47.53.958
12900;170586;34.00;751;03.47.53.958
12920;170583;34.00;752;03.47.53.958
12928;170587;34.00;753;03.47.53.958
12900;170578;34.00;754;03.47.53.958
12888;170573;34.00;755;03.47.53.958
12908;170577;34.00;756;03.47.53.958
12908;170569;34.00;757;03.47.53.958
12892;170565;34.00;758;03.47.53.958
12900;170571;34.00;759;03.47.53.969
12916;170559;34.00;760;03.47.53.969
12896;170555;34.00;761;03.47.53.969
12912;170556;34.00;762;03.47.53.969
12900;170558;34.00;763;03.47.53.969
12908;170551;34.00;764;03.47.53.969
12896;170545;34.00;765;03.47.53.969
12884;170543;34.00;766;03.47.53.969
12876;170536;34.00;767;03.47.53.969
12876;170535;34.00;768;03.47.53.969
12908;170524;34.00;769;03.47.53.969
12900;170533;34.00;770;03.47.53.969
12900;170528;34.00;771;03.47.53.980
12928;170524;34.00;772;03.47.53.980
12928;170520;34.00;773;03.47.53.980
12924;170529;34.00;774;03.47.53.980
12904;170524;34.00;775;03.47.54.079
12932;170518;34.00;776;03.47.54.079
12916;170517;34.00;777;03.47.54.079
12912;170520;34.00;778;03.47.54.079
12908;170520;34.00;779;03.47.54.090
12904;170514;34.00;780;03.47.54.090
12924;170513;34.00;781;03.47.54.090
12892;170522;34.00;782;03.47.54.090
12920;170511;34.00;783;03.47.54.090
12928;170513;34.00;784;03.47.54.090
12904;170516;34.00;785;03.47.54.090
12896;170517;34.00;786;03.47.54.090
12896;170512;34.00;787;03.47.54.090
12936;170506;34.00;788;03.47.54.090
12884;170506;34.00;789;03.47.54.090
12916;170496;34.00;790;03.47.54.090
12912;170516;34.00;791;03.47.54.090
12928;170509;34.00;792;03.47.54.101
12888;170509;34.00;793;03.47.54.101
12904;170510;34.00;794;03.47.54.101
12908;170500;34.00;795;03.47.54.101
12912;170503;34.00;796;03.47.54.101
12904;170500;34.00;797;03.47.54.101
12936;170498;34.00;798;03.47.54.101
12936;170498;34.00;799;03.47.54.101
12896;170498;34.00;800;03.47.54.232
12916;170494;34.00;801;03.47.54.232
12932;170499;34.00;802;03.47.54.232
12924;170492;34.00;803;03.47.54.232
12928;170494;34.00;804;03.47.54.232
12920;170497;34.00;805;03.47.54.232
12912;170497;34.00;806;03.47.54.232
12896;170497;34.00;807;03.47.54.232
12912;170491;34.00;808;03.47.54.232
12896;170482;34.00;809;03.47.54.232
12928;170497;34.00;810;03.47.54.232
12876;170495;34.00;811;03.47.54.232
12904;170497;34.00;812;03.47.54.232
12904;170492;34.00;813;03.47.54.232
12896;170497;34.00;814;03.47.54.243
12920;170492;34.00;815;03.47.54.243
12884;170485;34.00;816;03.47.54.243
12892;170485;34.00;817;03.47.54.243
12892;170487;34.00;818;03.47.54.243
12952;170497;34.00;819;03.47.54.243
12908;170495;34.00;820;03.47.54.243
12912;170487;34.00;821;03.47.54.243
12916;170496;34.00;822;03.47.54.243
12908;170495;34.00;823;03.47.54.243
12924;170495;34.00;824;03.47.54.243
12900;170494;34.00;825;03.47.54.331
12928;170500;34.00;826;03.47.54.331
12876;170499;34.00;827;03.47.54.331
12908;170502;34.00;828;03.47.54.331
12904;170499;34.00;829;03.47.54.331
12908;170502;34.00;830;03.47.54.331
12908;170501;34.00;831;03.47.54.331
12936;170495;34.00;832;03.47.54.331
12904;170506;34.00;833;03.47.54.364
12940;170494;34.00;834;03.47.54.364
12904;170505;34.00;835;03.47.54.364
12928;170503;34.00;836;03.47.54.364
12908;170507;34.00;837;03.47.54.364
12928;170507;34.00;838;03.47.54.364
12928;170508;34.00;839;03.47.54.364
12924;170518;34.00;840;03.47.54.364
12904;170508;34.00;841;03.47.54.364
12900;170516;34.00;842;03.47.54.374
12920;170522;34.00;843;03.47.54.374
12904;170521;34.00;844;03.47.54.374
12904;170528;34.00;845;03.47.54.374
12908;170528;34.00;846;03.47.54.374
12916;170533;34.00;847;03.47.54.374
12908;170534;34.00;848;03.47.54.374
12920;170543;34.00;849;03.47.54.374
12920;170535;34.00;850;03.47.54.451
12916;170534;34.00;851;03.47.54.451
12936;170535;34.00;852;03.47.54.451
12892;170531;34.00;853;03.47.54.451
12916;170531;34.00;854;03.47.54.451
12892;170536;34.00;855;03.47.54.451
12924;170535;34.00;856;03.47.54.451
12912;170532;34.00;857;03.47.54.462
12908;170544;34.00;858;03.47.54.462
12888;170549;34.00;859;03.47.54.462
12920;170554;34.00;860;03.47.54.462
12892;170539;34.00;861;03.47.54.462
12928;170545;34.00;862;03.47.54.462
12904;170544;34.00;863;03.47.54.462
12940;170540;34.00;864;03.47.54.462
12876;170548;34.00;865;03.47.54.462
12908;170553;34.00;866;03.47.54.462
12908;170547;34.00;867;03.47.54.462
12888;170552;34.00;868;03.47.54.462
12928;170554;34.00;869;03.47.54.473
12900;170557;34.00;870;03.47.54.473
12928;170561;34.00;871;03.47.54.473
12900;170556;34.00;872;03.47.54.473
12912;170560;34.00;873;03.47.54.473
12888;170559;34.00;874;03.47.54.473
12916;170571;34.00;875;03.47.54.583
12892;170568;34.00;876;03.47.54.583
12904;170573;34.00;877;03.47.54.594
12876;170577;34.00;878;03.47.54.594
12920;170571;34.00;879;03.47.54.594
12888;170574;34.00;880;03.47.54.594
12896;170571;34.00;881;03.47.54.594
12904;170574;34.00;882;03.47.54.594
12884;170573;34.00;883;03.47.54.594
12904;170576;34.00;884;03.47.54.594
12900;170573;34.00;885;03.47.54.594
12892;170573;34.00;886;03.47.54.594
12916;170583;34.00;887;03.47.54.594
12920;170573;34.00;888;03.47.54.594
12912;170580;34.00;889;03.47.54.594
12896;170583;34.00;890;03.47.54.605
12916;170581;34.00;891;03.47.54.605
12924;170581;34.00;892;03.47.54.605
12896;170586;34.00;893;03.47.54.605
12912;170579;34.00;894;03.47.54.605
12912;170585;34.00;895;03.47.54.605
12892;170597;34.00;896;03.47.54.605
12892;170579;34.00;897;03.47.54.605
12908;170589;34.00;898;03.47.54.605
12912;170584;34.00;899;03.47.54.605
12892;170590;34.00;900;03.47.54.715
12896;170589;34.00;901;03.47.54.715
12884;170584;34.00;902;03.47.54.715
12936;170583;34.00;903;03.47.54.715
12892;170593;34.00;904;03.47.54.715
12904;170581;34.00;905;03.47.54.715
12916;170585;34.00;906;03.47.54.715
12944;170592;34.00;907;03.47.54.715
12960;170590;34.00;908;03.47.54.715
12912;170590;34.00;909;03.47.54.715
12904;170589;34.00;910;03.47.54.715
12908;170596;34.00;911;03.47.54.715
12928;170595;34.00;912;03.47.54.726
12904;170592;34.00;913;03.47.54.726
12920;170588;34.00;914;03.47.54.726
12912;170586;34.00;915;03.47.54.726
12908;170598;34.00;916;03.47.54.726
12904;170591;34.00;917;03.47.54.726
12908;170605;34.00;918;03.47.54.726
12928;170600;34.00;919;03.47.54.726
12896;170599;34.00;920;03.47.54.726
12932;170606;34.00;921;03.47.54.726
12924;170599;34.00;922;03.47.54.726
12884;170600;34.00;923;03.47.54.726
12884;170600;34.00;924;03.47.54.726
12928;170595;34.00;925;03.47.54.857
12892;170603;34.00;926;03.47.54.857
12888;170609;34.00;927;03.47.54.857
12916;170615;34.00;928;03.47.54.857
12912;170610;34.00;929;03.47.54.857
12912;170611;34.00;930;03.47.54.857
12884;170613;34.00;931;03.47.54.857
12920;170609;34.00;932;03.47.54.857
12912;170610;34.00;933;03.47.54.857
12904;170608;34.00;934;03.47.54.868
12936;170603;34.00;935;03.47.54.868
12932;170599;34.00;936;03.47.54.868
12904;170608;34.00;937;03.47.54.868
12908;170595;34.00;938;03.47.54.868
12948;170596;34.00;939;03.47.54.868
12904;170590;34.00;940;03.47.54.868
12920;170592;34.00;941;03.47.54.868
12884;170591;34.00;942;03.47.54.868
12896;170592;34.00;943;03.47.54.868
12920;170587;34.00;944;03.47.54.868
12884;170582;34.00;945;03.47.54.868
12880;170569;34.00;946;03.47.54.868
12912;170575;34.00;947;03.47.54.879
12884;170569;34.00;948;03.47.54.879
12892;170564;34.00;949;03.47.54.879
12904;170559;34.04;950;03.47.54.956
12912;170561;34.04;951;03.47.54.956
12928;170559;34.04;952;03.47.54.956
12928;170552;34.04;953;03.47.54.956
12888;170551;34.04;954;03.47.54.967
12892;170543;34.04;955;03.47.54.967
12920;170552;34.04;956;03.47.54.967
12900;170545;34.04;957;03.47.54.967
12880;170547;34.04;958;03.47.54.967
12892;170547;34.04;959;03.47.54.967
12896;170544;34.04;960;03.47.54.967
12884;170542;34.04;961;03.47.54.967
12908;170548;34.04;962;03.47.54.967
12916;170540;34.04;963;03.47.54.978
12940;170547;34.04;964;03.47.54.978
12908;170542;34.04;965;03.47.54.978
12928;170543;34.04;966;03.47.54.978
12892;170536;34.04;967;03.47.54.989
12908;170528;34.04;968;03.47.54.989
12892;170532;34.04;969;03.47.54.989
12888;170529;34.04;970;03.47.54.989
12904;170532;34.04;971;03.47.55.000
12928;170532;34.04;972;03.47.55.000
12904;170528;34.04;973;03.47.55.000
12928;170526;34.04;974;03.47.55.000
12928;170528;34.04;975;03.47.55.077
12892;170531;34.04;976;03.47.55.088
12924;170533;34.04;977;03.47.55.088
12872;170537;34.04;978;03.47.55.088
12912;170532;34.04;979;03.47.55.088
12928;170532;34.04;980;03.47.55.088
12892;170542;34.04;981;03.47.55.088
12920;170534;34.04;982;03.47.55.088
12896;170538;34.04;983;03.47.55.088
12900;170532;34.04;984;03.47.55.088
12904;170539;34.04;985;03.47.55.088
12892;170531;34.04;986;03.47.55.088
12936;170532;34.04;987;03.47.55.088
12892;170535;34.04;988;03.47.55.099
12912;170539;34.04;989;03.47.55.099
12892;170537;34.04;990;03.47.55.099
12892;170543;34.04;991;03.47.55.099
12904;170540;34.04;992;03.47.55.099
12884;170539;34.04;993;03.47.55.099
12888;170548;34.04;994;03.47.55.099
12904;170544;34.04;995;03.47.55.099
12904;170545;34.04;996;03.47.55.099
12896;170544;34.04;997;03.47.55.099
12892;170553;34.04;998;03.47.55.099
12928;170555;34.04;999;03.47.55.099
12928;170553;34.00;000;03.47.55.230
12916;170551;34.00;001;03.47.55.230
12892;170559;34.00;002;03.47.55.230
12928;170560;34.00;003;03.47.55.230
12900;170549;34.00;004;03.47.55.230
12892;170555;34.00;005;03.47.55.230
12904;170556;34.00;006;03.47.55.230
12892;170551;34.00;007;03.47.55.230
12912;170561;34.00;008;03.47.55.230
12908;170559;34.00;009;03.47.55.240
12900;170557;34.00;010;03.47.55.240
12860;170560;34.00;011;03.47.55.240
12904;170552;34.00;012;03.47.55.240
12884;170566;34.00;013;03.47.55.240
12920;170551;34.00;014;03.47.55.240
12928;170558;34.00;015;03.47.55.240
12908;170550;34.00;016;03.47.55.240
12904;170552;34.00;017;03.47.55.261
12896;170558;34.00;018;03.47.55.261
12920;170559;34.00;019;03.47.55.261
12900;170558;34.00;020;03.47.55.261
12916;170556;34.00;021;03.47.55.261
12908;170552;34.00;022;03.47.55.261
12904;170557;34.00;023;03.47.55.261
12912;170559;34.00;024;03.47.55.261
12876;170557;34.00;025;03.47.55.327
12912;170565;34.00;026;03.47.55.327
12912;170560;34.00;027;03.47.55.327
12928;170564;34.00;028;03.47.55.327
12892;170565;34.00;029;03.47.55.327
12888;170563;34.00;030;03.47.55.338
12912;170570;34.00;031;03.47.55.338
12892;170565;34.00;032;03.47.55.338
12892;170563;34.00;033;03.47.55.349
12904;170566;34.00;034;03.47.55.349
12912;170573;34.00;035;03.47.55.349
12876;170571;34.00;036;03.47.55.349
12912;170570;34.00;037;03.47.55.360
12912;170576;34.00;038;03.47.55.360
12916;170577;34.00;039;03.47.55.360
12920;170575;34.00;040;03.47.55.360
12896;170579;34.00;041;03.47.55.360
12928;170577;34.00;042;03.47.55.360
12916;170580;34.00;043;03.47.55.360
12904;170584;34.00;044;03.47.55.360
12916;170586;34.00;045;03.47.55.360
12904;170589;34.00;046;03.47.55.360
12908;170582;34.00;047;03.47.55.360
12912;170585;34.00;048;03.47.55.360
12900;170583;34.00;049;03.47.55.360
12904;170586;34.00;050;03.47.55.469
12904;170588;34.00;051;03.47.55.469
12896;170593;34.00;052;03.47.55.469
12928;170583;34.00;053;03.47.55.469
12892;170591;34.00;054;03.47.55.469
12880;170598;34.00;055;03.47.55.469
12896;170589;34.00;056;03.47.55.469
12928;170605;34.00;057;03.47.55.469
12904;170608;34.00;058;03.47.55.491
12876;170601;34.00;059;03.47.55.491
12884;170601;34.00;060;03.47.55.491
12904;170605;34.00;061;03.47.55.491
12936;170605;34.00;062;03.47.55.491
12896;170608;34.00;063;03.47.55.491
12912;170614;34.00;064;03.47.55.491
12888;170606;34.00;065;03.47.55.491
12896;170606;34.00;066;03.47.55.491
12900;170612;34.00;067;03.47.55.491
12904;170608;34.00;068;03.47.55.491
12896;170614;34.00;069;03.47.55.491
12904;170609;34.00;070;03.47.55.491
12912;170624;34.00;071;03.47.55.502
12876;170618;34.00;072;03.47.55.502
12904;170619;34.00;073;03.47.55.502
12884;170622;34.00;074;03.47.55.502
12880;170621;34.00;075;03.47.55.579
12916;170619;34.00;076;03.47.55.579
12892;170627;34.00;077;03.47.55.579
12904;170626;34.00;078;03.47.55.579
12912;170622;34.00;079;03.47.55.579
12920;170627;34.00;080;03.47.55.579
12908;170631;34.00;081;03.47.55.579
12916;170631;34.00;082;03.47.55.579
12892;170633;34.00;083;03.47.55.579
12928;170636;34.00;084;03.47.55.579
12920;170634;34.00;085;03.47.55.590
12912;170631;34.00;086;03.47.55.590
12884;170638;34.00;087;03.47.55.590
12928;170637;34.00;088;03.47.55.590
12900;170637;34.00;089;03.47.55.590
12900;170639;34.00;090;03.47.55.590
12908;170633;34.00;091;03.47.55.590
12924;170639;34.00;092;03.47.55.590
12916;170644;34.00;093;03.47.55.590
12904;170649;34.00;094;03.47.55.590
12908;170654;34.00;095;03.47.55.590
12928;170648;34.00;096;03.47.55.590
12912;170658;34.00;097;03.47.55.590
12928;170656;34.00;098;03.47.55.601
12916;170654;34.00;099;03.47.55.601
12920;170653;34.00;100;03.47.55.711
12900;170655;34.00;101;03.47.55.711
12924;170652;34.00;102;03.47.55.711
12880;170669;34.00;103;03.47.55.711
12912;170658;34.00;104;03.47.55.711
12888;170662;34.00;105;03.47.55.722
12944;170663;34.00;106;03.47.55.722
12896;170657;34.00;107;03.47.55.722
12932;170667;34.00;108;03.47.55.722
12908;170669;34.00;109;03.47.55.722
12916;170674;34.00;110;03.47.55.722
12912;170666;34.00;111;03.47.55.722
12928;170674;34.00;112;03.47.55.722
12940;170679;34.00;113;03.47.55.722
12908;170675;34.00;114;03.47.55.722
12892;170671;34.00;115;03.47.55.722
12916;170670;34.00;116;03.47.55.722
12896;170674;34.00;117;03.47.55.722
12916;170677;34.00;118;03.47.55.733
12888;170673;34.00;119;03.47.55.733
12928;170664;34.00;120;03.47.55.733
12900;170665;34.00;121;03.47.55.733
12892;170674;34.00;122;03.47.55.733
12920;170664;34.00;123;03.47.55.733
12944;170661;34.00;124;03.47.55.733
12884;170660;34.00;125;03.47.55.841
12896;170652;34.00;126;03.47.55.852
12936;170645;34.00;127;03.47.55.852
12908;170650;34.00;128;03.47.55.852
12896;170644;34.00;129;03.47.55.852
12908;170649;34.00;130;03.47.55.852
12892;170640;34.00;131;03.47.55.852
12916;170650;34.00;132;03.47.55.852
12892;170633;34.00;133;03.47.55.852
12888;170641;34.00;134;03.47.55.852
12916;170633;34.00;135;03.47.55.863
12924;170619;34.00;136;03.47.55.863
12912;170616;34.00;137;03.47.55.863
12904;170618;34.00;138;03.47.55.863
12908;170607;34.00;139;03.47.55.863
12892;170616;34.00;140;03.47.55.863
12896;170611;34.00;141;03.47.55.863
12912;170607;34.00;142;03.47.55.863
12908;170605;34.00;143;03.47.55.863
12884;170611;34.00;144;03.47.55.863
12908;170607;34.00;145;03.47.55.863
12928;170615;34.00;146;03.47.55.863
12932;170607;34.00;147;03.47.55.874
12924;170609;34.00;148;03.47.55.874
12908;170610;34.00;149;03.47.55.874
12884;170607;34.00;150;03.47.55.962
12900;170607;34.00;151;03.47.55.962
12892;170604;34.00;152;03.47.55.962
12904;170608;34.00;153;03.47.55.962
12908;170605;34.00;154;03.47.55.962
12884;170606;34.00;155;03.47.55.962
12912;170603;34.00;156;03.47.55.962
12896;170604;34.00;157;03.47.55.962
12908;170603;34.00;158;03.47.55.984
12892;170606;34.00;159;03.47.55.984
12888;170602;34.00;160;03.47.55.984
12904;170605;34.00;161;03.47.55.984
12904;170597;34.00;162;03.47.55.984
12908;170603;34.00;163;03.47.55.984
12928;170596;34.00;164;03.47.55.984
12900;170591;34.00;165;03.47.55.984
12868;170594;34.00;166;03.47.55.984
12900;170589;34.00;167;03.47.55.995
12908;170600;34.00;168;03.47.55.995
12892;170595;34.00;169;03.47.55.995
12892;170598;34.00;170;03.47.55.995
12924;170595;34.00;171;03.47.55.995
12892;170594;34.00;172;03.47.55.995
12892;170594;34.00;173;03.47.55.995
12924;170592;34.00;174;03.47.55.995
12892;170595;34.00;175;03.47.56.093
12892;170595;34.00;176;03.47.56.093
12888;170597;34.00;177;03.47.56.093
12908;170590;34.00;178;03.47.56.093
12960;170604;34.00;179;03.47.56.093
12900;170594;34.00;180;03.47.56.104
12892;170598;34.00;181;03.47.56.104
12896;170601;34.00;182;03.47.56.104
12892;170606;34.00;183;03.47.56.115
12900;170599;34.00;184;03.47.56.115
12892;170596;34.00;185;03.47.56.115
12928;170590;34.00;186;03.47.56.115
12912;170590;34.00;187;03.47.56.115
12904;170594;34.00;188;03.47.56.115
12896;170595;34.00;189;03.47.56.126
12892;170591;34.00;190;03.47.56.126
12920;170582;34.00;191;03.47.56.126
12952;170585;34.00;192;03.47.56.137
12900;170577;34.00;193;03.47.56.137
12932;170585;34.00;194;03.47.56.137
12884;170587;34.00;195;03.47.56.137
12912;170590;34.00;196;03.47.56.137
12888;170584;34.00;197;03.47.56.148
12928;170594;34.00;198;03.47.56.148
12908;170588;34.00;199;03.47.56.148
12892;170594;34.00;200;03.47.56.202
12908;170589;34.00;201;03.47.56.202
12904;170591;34.00;202;03.47.56.213
12920;170590;34.00;203;03.47.56.213
12900;170592;34.00;204;03.47.56.213
12912;170595;34.00;205;03.47.56.213
12908;170601;34.00;206;03.47.56.213
12904;170598;34.00;207;03.47.56.213
12904;170606;34.00;208;03.47.56.213
12892;170596;34.00;209;03.47.56.213
12896;170595;34.00;210;03.47.56.213
12912;170598;34.00;211;03.47.56.213
12896;170602;34.00;212;03.47.56.213
12900;170604;34.00;213;03.47.56.213
12904;170603;34.00;214;03.47.56.213
12916;170605;34.00;215;03.47.56.224
12888;170612;34.00;216;03.47.56.224
12904;170607;34.00;217;03.47.56.224
12920;170607;34.00;218;03.47.56.224
12904;170602;34.00;219;03.47.56.224
12900;170606;34.00;220;03.47.56.224
12912;170616;34.00;221;03.47.56.224
12904;170622;34.00;222;03.47.56.224
12896;170615;34.00;223;03.47.56.224
12920;170620;34.00;224;03.47.56.224
12892;170622;34.00;225;03.47.56.345
12872;170620;34.00;226;03.47.56.345
12896;170626;34.00;227;03.47.56.345
12888;170626;34.00;228;03.47.56.345
12896;170619;34.00;229;03.47.56.345
12900;170625;34.00;230;03.47.56.345
12892;170634;34.00;231;03.47.56.345
12892;170625;34.00;232;03.47.56.345
12888;170611;34.00;233;03.47.56.345
12860;170617;34.00;234;03.47.56.345
12904;170627;34.00;235;03.47.56.345
12888;170629;34.00;236;03.47.56.356
12884;170625;34.00;237;03.47.56.356
12900;170626;34.00;238;03.47.56.356
12892;170621;34.00;239;03.47.56.356
12912;170617;34.00;240;03.47.56.356
12892;170624;34.00;241;03.47.56.356
12860;170629;34.00;242;03.47.56.356
12888;170626;34.00;243;03.47.56.356
12904;170635;34.00;244;03.47.56.356
12924;170626;34.00;245;03.47.56.356
12892;170625;34.00;246;03.47.56.356
12904;170622;34.00;247;03.47.56.356
12888;170634;34.00;248;03.47.56.356
12920;170623;34.00;249;03.47.56.367
12884;170629;34.00;250;03.47.56.456
12900;170620;34.00;251;03.47.56.456
12908;170629;34.00;252;03.47.56.456
12904;170631;34.00;253;03.47.56.456
12888;170629;34.00;254;03.47.56.456
12892;170627;34.00;255;03.47.56.456
12884;170621;34.00;256;03.47.56.456
12912;170623;34.00;257;03.47.56.456
12900;170628;34.00;258;03.47.56.467
12908;170629;34.00;259;03.47.56.467
12904;170633;34.00;260;03.47.56.467
12904;170629;34.00;261;03.47.56.467
12884;170634;34.00;262;03.47.56.467
12928;170631;34.00;263;03.47.56.467
12912;170632;34.00;264;03.47.56.467
12884;170622;34.00;265;03.47.56.467
12868;170635;34.00;266;03.47.56.467
12916;170625;34.00;267;03.47.56.478
12912;170630;34.00;268;03.47.56.478
12876;170629;34.00;269;03.47.56.478
12884;170629;34.00;270;03.47.56.478
12912;170635;34.00;271;03.47.56.478
12888;170631;34.00;272;03.47.56.478
12876;170639;34.00;273;03.47.56.478
12928;170638;34.00;274;03.47.56.478
12920;170641;34.00;275;03.47.56.576
12896;170642;34.00;276;03.47.56.576
12892;170637;34.00;277;03.47.56.576
12892;170634;34.00;278;03.47.56.576
12884;170634;34.00;279;03.47.56.576
12932;170642;34.00;280;03.47.56.576
12912;170649;34.00;281;03.47.56.587
12880;170641;34.00;282;03.47.56.587
12892;170642;34.00;283;03.47.56.587
12896;170642;34.00;284;03.47.56.587
12928;170645;34.00;285;03.47.56.587
12876;170641;34.00;286;03.47.56.587
12912;170639;34.00;287;03.47.56.587
12884;170646;34.00;288;03.47.56.587
12884;170644;34.00;289;03.47.56.587
12888;170642;34.00;290;03.47.56.587
12900;170636;34.00;291;03.47.56.587
12900;170633;34.00;292;03.47.56.587
12888;170629;34.00;293;03.47.56.598
12928;170627;34.00;294;03.47.56.598
12896;170623;34.00;295;03.47.56.598
12928;170624;34.00;296;03.47.56.598
12896;170619;34.00;297;03.47.56.598
12896;170615;34.00;298;03.47.56.598
12912;170605;34.00;299;03.47.56.598
12908;170600;34.00;300;03.47.56.697
12924;170604;34.00;301;03.47.56.697
12916;170603;34.00;302;03.47.56.708
12912;170606;34.00;303;03.47.56.708
12892;170599;34.00;304;03.47.56.708
12896;170587;34.00;305;03.47.56.708
12928;170588;34.00;306;03.47.56.708
12896;170592;34.00;307;03.47.56.708
12896;170586;34.00;308;03.47.56.708
12900;170573;34.00;309;03.47.56.708
12908;170578;34.00;310;03.47.56.708
12932;170577;34.00;311;03.47.56.708
12888;170569;34.00;312;03.47.56.708
12884;170570;34.00;313;03.47.56.708
12900;170576;34.00;314;03.47.56.719
12856;170564;34.00;315;03.47.56.719
12900;170561;34.00;316;03.47.56.719
12912;170571;34.00;317;03.47.56.719
12900;170566;34.00;318;03.47.56.719
12904;170562;34.00;319;03.47.56.719
12900;170558;34.00;320;03.47.56.719
12912;170553;34.00;321;03.47.56.719
12908;170560;34.00;322;03.47.56.719
12924;170555;34.00;323;03.47.56.719
12916;170557;34.00;324;03.47.56.719
12904;170558;34.00;325;03.47.56.840
12896;170552;34.00;326;03.47.56.840
12916;170555;34.00;327;03.47.56.840
12908;170554;34.00;328;03.47.56.840
12892;170539;34.00;329;03.47.56.840
12900;170554;34.00;330;03.47.56.840
12896;170561;34.00;331;03.47.56.840
12912;170557;34.00;332;03.47.56.840
12912;170557;34.00;333;03.47.56.840
12912;170553;34.00;334;03.47.56.851
12908;170558;34.00;335;03.47.56.851
12908;170555;34.00;336;03.47.56.851
12908;170550;34.00;337;03.47.56.851
12900;170559;34.00;338;03.47.56.851
12888;170546;34.00;339;03.47.56.851
12896;170547;34.00;340;03.47.56.851
12876;170552;34.00;341;03.47.56.851
12896;170555;34.00;342;03.47.56.862
12904;170541;34.00;343;03.47.56.862
12900;170551;34.00;344;03.47.56.862
12884;170545;34.00;345;03.47.56.862
12916;170551;34.00;346;03.47.56.862
12916;170537;34.00;347;03.47.56.862
12908;170541;34.00;348;03.47.56.862
12916;170547;34.00;349;03.47.56.862
12908;170549;34.00;350;03.47.56.971
12928;170546;34.00;351;03.47.56.971
12928;170547;34.00;352;03.47.56.971
12868;170540;34.00;353;03.47.56.971
12896;170540;34.00;354;03.47.56.971
12896;170541;34.00;355;03.47.56.971
12900;170544;34.00;356;03.47.56.982
12928;170545;34.00;357;03.47.56.982
12920;170537;34.00;358;03.47.56.982
12928;170549;34.00;359;03.47.56.982
12916;170540;34.00;360;03.47.56.982
12912;170539;34.00;361;03.47.56.982
12916;170539;34.00;362;03.47.56.982
12908;170535;34.00;363;03.47.56.982
12908;170537;34.00;364;03.47.56.982
12916;170533;34.00;365;03.47.56.982
12876;170541;34.00;366;03.47.56.982
12916;170534;34.00;367;03.47.56.982
12896;170535;34.00;368;03.47.56.982
12904;170531;34.00;369;03.47.56.993
12892;170534;34.00;370;03.47.56.993
12912;170526;34.00;371;03.47.56.993
12892;170532;34.00;372;03.47.56.993
12900;170534;34.00;373;03.47.56.993
12912;170529;34.00;374;03.47.56.993
12916;170530;34.00;375;03.47.57.080
12888;170533;34.00;376;03.47.57.080
12900;170533;34.00;377;03.47.57.091
12900;170537;34.00;378;03.47.57.091
12944;170542;34.00;379;03.47.57.091
12932;170542;34.00;380;03.47.57.091
12904;170544;34.00;381;03.47.57.091
