gsr; bvp; skt; skt2; Cont; time
12904;172843;34.52;225;03.24.18.449
12928;172836;34.52;226;03.24.18.449
12912;172849;34.52;227;03.24.18.449
12940;172842;34.52;228;03.24.18.449
12912;172844;34.52;229;03.24.18.449
12904;172845;34.52;230;03.24.18.449
12904;172846;34.52;231;03.24.18.449
12900;172845;34.52;232;03.24.18.449
12904;172841;34.52;233;03.24.18.449
12920;172839;34.52;234;03.24.18.449
12912;172838;34.52;235;03.24.18.449
12896;172834;34.52;236;03.24.18.476
12936;172847;34.52;237;03.24.18.476
12928;172847;34.52;238;03.24.18.476
12924;172844;34.52;239;03.24.18.476
12932;172840;34.52;240;03.24.18.476
12904;172841;34.52;241;03.24.18.476
12916;172843;34.52;242;03.24.18.476
12928;172847;34.52;243;03.24.18.476
12912;172846;34.52;244;03.24.18.476
12928;172847;34.52;245;03.24.18.476
12892;172840;34.52;246;03.24.18.476
12928;172845;34.52;247;03.24.18.476
12928;172844;34.52;248;03.24.18.476
12924;172848;34.52;249;03.24.18.476
12920;172849;34.52;250;03.24.18.570
12904;172837;34.52;251;03.24.18.570
12924;172836;34.52;252;03.24.18.570
12884;172835;34.52;253;03.24.18.570
12928;172833;34.52;254;03.24.18.570
12952;172841;34.52;255;03.24.18.570
12908;172837;34.52;256;03.24.18.570
12932;172838;34.52;257;03.24.18.570
12896;172835;34.52;258;03.24.18.581
12892;172827;34.52;259;03.24.18.581
12908;172832;34.52;260;03.24.18.581
12936;172833;34.52;261;03.24.18.581
12936;172827;34.52;262;03.24.18.581
12908;172836;34.52;263;03.24.18.581
12912;172835;34.52;264;03.24.18.581
12904;172836;34.52;265;03.24.18.581
12908;172831;34.52;266;03.24.18.581
12924;172834;34.52;267;03.24.18.581
12904;172834;34.52;268;03.24.18.581
12928;172827;34.52;269;03.24.18.581
12900;172829;34.52;270;03.24.18.592
12928;172836;34.52;271;03.24.18.592
12932;172836;34.52;272;03.24.18.592
12916;172839;34.52;273;03.24.18.592
12936;172829;34.52;274;03.24.18.592
12916;172837;34.52;275;03.24.18.701
12928;172838;34.52;276;03.24.18.701
12908;172838;34.52;277;03.24.18.701
12936;172837;34.52;278;03.24.18.701
12908;172836;34.52;279;03.24.18.712
12904;172844;34.52;280;03.24.18.712
12928;172836;34.52;281;03.24.18.712
12892;172843;34.52;282;03.24.18.712
12912;172836;34.52;283;03.24.18.712
12924;172842;34.52;284;03.24.18.712
12928;172839;34.52;285;03.24.18.712
12908;172845;34.52;286;03.24.18.712
12904;172842;34.52;287;03.24.18.712
12944;172840;34.52;288;03.24.18.712
12904;172845;34.52;289;03.24.18.712
12904;172853;34.52;290;03.24.18.712
12960;172851;34.52;291;03.24.18.712
12908;172851;34.52;292;03.24.18.712
12932;172844;34.52;293;03.24.18.724
12896;172855;34.52;294;03.24.18.724
12912;172852;34.52;295;03.24.18.724
12924;172853;34.52;296;03.24.18.724
12932;172851;34.52;297;03.24.18.724
12900;172853;34.52;298;03.24.18.724
12952;172848;34.52;299;03.24.18.724
12900;172857;34.52;300;03.24.18.834
12908;172862;34.52;301;03.24.18.845
12936;172858;34.52;302;03.24.18.845
12932;172862;34.52;303;03.24.18.845
12920;172858;34.52;304;03.24.18.845
12928;172859;34.52;305;03.24.18.845
12892;172858;34.52;306;03.24.18.845
12904;172866;34.52;307;03.24.18.845
12904;172872;34.52;308;03.24.18.845
12936;172873;34.52;309;03.24.18.845
12916;172874;34.52;310;03.24.18.845
12912;172869;34.52;311;03.24.18.845
12908;172866;34.52;312;03.24.18.845
12928;172875;34.52;313;03.24.18.856
12928;172871;34.52;314;03.24.18.856
12944;172878;34.52;315;03.24.18.856
12936;172870;34.52;316;03.24.18.856
12908;172867;34.52;317;03.24.18.856
12960;172877;34.52;318;03.24.18.856
12908;172871;34.52;319;03.24.18.856
12912;172883;34.52;320;03.24.18.856
12928;172871;34.52;321;03.24.18.856
12908;172884;34.52;322;03.24.18.856
12904;172881;34.52;323;03.24.18.856
12916;172884;34.52;324;03.24.18.856
12928;172889;34.52;325;03.24.18.955
12924;172887;34.52;326;03.24.18.955
12960;172891;34.52;327;03.24.18.955
12928;172885;34.52;328;03.24.18.955
12924;172898;34.52;329;03.24.18.955
12892;172890;34.52;330;03.24.18.955
12920;172892;34.52;331;03.24.18.955
12944;172892;34.52;332;03.24.18.955
12916;172895;34.52;333;03.24.18.966
12932;172890;34.52;334;03.24.18.966
12932;172906;34.52;335;03.24.18.966
12900;172895;34.52;336;03.24.18.966
12928;172897;34.52;337;03.24.18.966
12888;172899;34.52;338;03.24.18.966
12912;172898;34.52;339;03.24.18.966
12924;172900;34.52;340;03.24.18.966
12920;172907;34.52;341;03.24.18.966
12916;172905;34.52;342;03.24.18.978
12936;172904;34.52;343;03.24.18.978
12936;172909;34.52;344;03.24.18.978
12928;172910;34.52;345;03.24.18.978
12936;172912;34.52;346;03.24.18.978
12904;172912;34.52;347;03.24.18.978
12916;172909;34.52;348;03.24.18.978
12924;172911;34.52;349;03.24.18.978
12948;172905;34.52;350;03.24.19.076
12900;172903;34.52;351;03.24.19.076
12916;172901;34.52;352;03.24.19.076
12944;172905;34.52;353;03.24.19.076
12912;172891;34.52;354;03.24.19.076
12936;172895;34.52;355;03.24.19.076
12944;172885;34.52;356;03.24.19.076
12920;172888;34.52;357;03.24.19.087
12916;172883;34.52;358;03.24.19.087
12884;172884;34.52;359;03.24.19.087
12928;172868;34.52;360;03.24.19.087
12904;172872;34.52;361;03.24.19.087
12944;172863;34.52;362;03.24.19.087
12916;172866;34.52;363;03.24.19.087
12928;172858;34.52;364;03.24.19.087
12948;172853;34.52;365;03.24.19.087
12908;172856;34.52;366;03.24.19.087
12932;172857;34.52;367;03.24.19.109
12944;172849;34.52;368;03.24.19.109
12940;172841;34.52;369;03.24.19.109
12904;172847;34.52;370;03.24.19.109
12920;172852;34.52;371;03.24.19.109
12924;172838;34.52;372;03.24.19.109
12928;172824;34.52;373;03.24.19.109
12936;172831;34.52;374;03.24.19.120
12892;172826;34.52;375;03.24.19.197
12900;172829;34.52;376;03.24.19.197
12908;172826;34.52;377;03.24.19.197
12912;172828;34.52;378;03.24.19.197
12892;172824;34.52;379;03.24.19.207
12936;172821;34.52;380;03.24.19.207
12928;172826;34.52;381;03.24.19.207
12924;172824;34.52;382;03.24.19.207
12944;172826;34.52;383;03.24.19.207
12944;172832;34.52;384;03.24.19.207
12936;172825;34.52;385;03.24.19.207
12896;172825;34.52;386;03.24.19.207
12916;172816;34.52;387;03.24.19.207
12908;172824;34.52;388;03.24.19.207
12920;172814;34.52;389;03.24.19.207
12892;172820;34.52;390;03.24.19.207
12896;172818;34.52;391;03.24.19.218
12916;172816;34.52;392;03.24.19.218
12924;172812;34.52;393;03.24.19.218
12900;172804;34.52;394;03.24.19.218
12916;172816;34.52;395;03.24.19.218
12920;172810;34.52;396;03.24.19.218
12932;172816;34.52;397;03.24.19.218
12920;172814;34.52;398;03.24.19.218
12936;172823;34.52;399;03.24.19.218
12908;172818;34.52;400;03.24.19.339
12948;172816;34.52;401;03.24.19.339
12940;172818;34.52;402;03.24.19.339
12916;172816;34.52;403;03.24.19.339
12912;172817;34.52;404;03.24.19.339
12916;172819;34.52;405;03.24.19.339
12920;172819;34.52;406;03.24.19.339
12908;172821;34.52;407;03.24.19.339
12924;172817;34.52;408;03.24.19.339
12936;172821;34.52;409;03.24.19.339
12916;172817;34.52;410;03.24.19.339
12916;172817;34.52;411;03.24.19.339
12924;172815;34.52;412;03.24.19.350
12936;172809;34.52;413;03.24.19.350
12876;172817;34.52;414;03.24.19.350
12916;172820;34.52;415;03.24.19.350
12928;172814;34.52;416;03.24.19.350
12924;172813;34.52;417;03.24.19.350
12952;172817;34.52;418;03.24.19.350
12928;172824;34.52;419;03.24.19.350
12908;172818;34.52;420;03.24.19.350
12924;172812;34.52;421;03.24.19.350
12936;172824;34.52;422;03.24.19.350
12920;172811;34.52;423;03.24.19.350
12936;172814;34.52;424;03.24.19.350
12908;172811;34.52;425;03.24.19.449
12924;172817;34.52;426;03.24.19.449
12884;172815;34.52;427;03.24.19.449
12928;172817;34.52;428;03.24.19.449
12928;172817;34.52;429;03.24.19.449
12940;172802;34.52;430;03.24.19.449
12904;172818;34.52;431;03.24.19.449
12936;172811;34.52;432;03.24.19.449
12928;172812;34.52;433;03.24.19.460
12908;172814;34.52;434;03.24.19.460
12904;172807;34.52;435;03.24.19.460
12924;172819;34.52;436;03.24.19.460
12928;172816;34.52;437;03.24.19.460
12892;172809;34.52;438;03.24.19.460
12912;172809;34.52;439;03.24.19.460
12908;172811;34.52;440;03.24.19.460
12912;172808;34.52;441;03.24.19.460
12920;172807;34.52;442;03.24.19.471
12920;172816;34.52;443;03.24.19.471
12924;172812;34.52;444;03.24.19.471
12900;172815;34.52;445;03.24.19.471
12928;172819;34.52;446;03.24.19.471
12960;172812;34.52;447;03.24.19.471
12944;172821;34.52;448;03.24.19.471
12924;172826;34.52;449;03.24.19.471
12924;172824;34.52;450;03.24.19.591
12896;172821;34.52;451;03.24.19.591
12912;172824;34.52;452;03.24.19.591
12900;172826;34.52;453;03.24.19.591
12912;172835;34.52;454;03.24.19.591
12908;172841;34.52;455;03.24.19.591
12920;172838;34.52;456;03.24.19.602
12928;172843;34.52;457;03.24.19.602
12932;172834;34.52;458;03.24.19.613
12916;172840;34.52;459;03.24.19.613
12900;172844;34.52;460;03.24.19.613
12916;172840;34.52;461;03.24.19.613
12920;172847;34.52;462;03.24.19.613
12936;172851;34.52;463;03.24.19.624
12936;172850;34.52;464;03.24.19.624
12924;172851;34.52;465;03.24.19.624
12920;172854;34.52;466;03.24.19.624
12928;172846;34.52;467;03.24.19.624
12912;172846;34.52;468;03.24.19.624
12908;172849;34.52;469;03.24.19.624
12928;172858;34.52;470;03.24.19.624
12908;172852;34.52;471;03.24.19.624
12912;172854;34.52;472;03.24.19.624
12932;172848;34.52;473;03.24.19.624
12976;172853;34.52;474;03.24.19.624
12892;172857;34.52;475;03.24.19.690
12908;172859;34.52;476;03.24.19.701
12944;172861;34.52;477;03.24.19.701
12908;172850;34.52;478;03.24.19.701
12928;172864;34.52;479;03.24.19.701
12892;172860;34.52;480;03.24.19.701
12904;172863;34.52;481;03.24.19.701
12912;172872;34.52;482;03.24.19.701
12936;172870;34.52;483;03.24.19.701
12948;172863;34.52;484;03.24.19.701
12932;172866;34.52;485;03.24.19.701
12908;172871;34.52;486;03.24.19.701
12928;172871;34.52;487;03.24.19.701
12916;172874;34.52;488;03.24.19.701
12928;172876;34.52;489;03.24.19.701
12944;172877;34.52;490;03.24.19.712
12936;172876;34.52;491;03.24.19.712
12944;172866;34.52;492;03.24.19.712
12940;172871;34.52;493;03.24.19.712
12916;172882;34.52;494;03.24.19.712
12912;172886;34.52;495;03.24.19.712
12944;172877;34.52;496;03.24.19.712
12908;172883;34.52;497;03.24.19.712
12892;172882;34.52;498;03.24.19.712
12920;172884;34.52;499;03.24.19.712
12936;172888;34.52;500;03.24.19.844
12932;172895;34.52;501;03.24.19.844
12936;172885;34.52;502;03.24.19.844
12908;172895;34.52;503;03.24.19.844
12936;172899;34.52;504;03.24.19.844
12936;172897;34.52;505;03.24.19.844
12944;172893;34.52;506;03.24.19.844
12892;172889;34.52;507;03.24.19.844
12916;172899;34.52;508;03.24.19.844
12900;172904;34.52;509;03.24.19.844
12908;172902;34.52;510;03.24.19.844
12928;172902;34.52;511;03.24.19.855
12916;172914;34.52;512;03.24.19.855
12944;172911;34.52;513;03.24.19.855
12940;172911;34.52;514;03.24.19.855
12928;172908;34.52;515;03.24.19.855
12920;172904;34.52;516;03.24.19.855
12900;172917;34.52;517;03.24.19.855
12944;172919;34.52;518;03.24.19.855
12928;172917;34.52;519;03.24.19.855
12940;172921;34.52;520;03.24.19.855
12924;172914;34.52;521;03.24.19.855
12924;172914;34.52;522;03.24.19.866
12936;172916;34.52;523;03.24.19.866
12936;172911;34.52;524;03.24.19.866
12900;172905;34.52;525;03.24.19.975
12916;172899;34.52;526;03.24.19.975
12892;172900;34.52;527;03.24.19.975
12928;172891;34.52;528;03.24.19.975
12936;172895;34.52;529;03.24.19.975
12896;172888;34.52;530;03.24.19.975
12908;172883;34.52;531;03.24.19.975
12908;172888;34.52;532;03.24.19.986
12924;172878;34.52;533;03.24.19.986
12912;172871;34.52;534;03.24.19.986
12908;172869;34.52;535;03.24.19.986
12924;172864;34.52;536;03.24.19.986
12920;172866;34.52;537;03.24.19.986
12928;172863;34.52;538;03.24.19.986
12916;172857;34.52;539;03.24.19.986
12904;172851;34.52;540;03.24.19.986
12920;172846;34.52;541;03.24.19.986
12932;172854;34.52;542;03.24.19.986
12888;172851;34.52;543;03.24.19.986
12924;172846;34.52;544;03.24.19.986
12948;172839;34.52;545;03.24.19.997
12928;172836;34.52;546;03.24.19.997
12888;172836;34.52;547;03.24.19.997
12888;172843;34.52;548;03.24.19.997
12944;172844;34.52;549;03.24.19.997
12920;172840;34.48;550;03.24.20.074
12936;172840;34.48;551;03.24.20.074
12908;172830;34.48;552;03.24.20.074
12956;172832;34.48;553;03.24.20.074
12932;172845;34.48;554;03.24.20.085
12916;172831;34.48;555;03.24.20.085
12908;172824;34.48;556;03.24.20.085
12916;172837;34.48;557;03.24.20.085
12892;172831;34.48;558;03.24.20.085
12892;172831;34.48;559;03.24.20.085
12936;172829;34.48;560;03.24.20.085
12904;172831;34.48;561;03.24.20.085
12908;172830;34.48;562;03.24.20.085
12928;172827;34.48;563;03.24.20.096
12952;172823;34.48;564;03.24.20.096
12932;172828;34.48;565;03.24.20.096
12932;172835;34.48;566;03.24.20.096
12936;172837;34.48;567;03.24.20.107
12912;172836;34.48;568;03.24.20.107
12888;172827;34.48;569;03.24.20.107
12908;172832;34.48;570;03.24.20.107
12924;172833;34.48;571;03.24.20.118
12912;172836;34.48;572;03.24.20.118
12928;172834;34.48;573;03.24.20.118
12948;172827;34.48;574;03.24.20.118
12912;172843;34.48;575;03.24.20.206
12892;172844;34.48;576;03.24.20.206
12940;172845;34.48;577;03.24.20.206
12900;172845;34.48;578;03.24.20.206
12892;172840;34.48;579;03.24.20.206
12892;172833;34.48;580;03.24.20.206
12920;172841;34.48;581;03.24.20.206
12912;172838;34.48;582;03.24.20.206
12912;172835;34.48;583;03.24.20.206
12892;172840;34.48;584;03.24.20.206
12892;172839;34.48;585;03.24.20.206
12936;172837;34.48;586;03.24.20.206
12924;172841;34.48;587;03.24.20.217
12904;172844;34.48;588;03.24.20.217
12940;172847;34.48;589;03.24.20.217
12912;172846;34.48;590;03.24.20.217
12932;172843;34.48;591;03.24.20.217
12928;172844;34.48;592;03.24.20.217
12912;172849;34.48;593;03.24.20.217
12916;172848;34.48;594;03.24.20.217
12936;172844;34.48;595;03.24.20.217
12892;172845;34.48;596;03.24.20.217
12920;172849;34.48;597;03.24.20.217
12916;172847;34.48;598;03.24.20.217
12944;172845;34.48;599;03.24.20.217
12912;172846;34.52;600;03.24.20.337
12936;172835;34.52;601;03.24.20.337
12888;172844;34.52;602;03.24.20.337
12928;172847;34.52;603;03.24.20.337
12892;172845;34.52;604;03.24.20.337
12920;172842;34.52;605;03.24.20.337
12924;172841;34.52;606;03.24.20.337
12936;172847;34.52;607;03.24.20.337
12928;172852;34.52;608;03.24.20.337
12940;172850;34.52;609;03.24.20.348
12928;172858;34.52;610;03.24.20.348
12920;172854;34.52;611;03.24.20.348
12900;172855;34.52;612;03.24.20.348
12936;172863;34.52;613;03.24.20.348
12928;172859;34.52;614;03.24.20.348
12912;172854;34.52;615;03.24.20.348
12908;172867;34.52;616;03.24.20.348
12916;172865;34.52;617;03.24.20.348
12924;172871;34.52;618;03.24.20.348
12912;172875;34.52;619;03.24.20.348
12928;172869;34.52;620;03.24.20.348
12908;172874;34.52;621;03.24.20.348
12908;172874;34.52;622;03.24.20.359
12920;172878;34.52;623;03.24.20.359
12924;172879;34.52;624;03.24.20.359
12936;172879;34.52;625;03.24.20.470
12896;172879;34.52;626;03.24.20.470
12928;172886;34.52;627;03.24.20.470
12920;172883;34.52;628;03.24.20.470
12924;172881;34.52;629;03.24.20.470
12892;172881;34.52;630;03.24.20.470
12912;172879;34.52;631;03.24.20.470
12912;172891;34.52;632;03.24.20.481
12928;172891;34.52;633;03.24.20.481
12920;172886;34.52;634;03.24.20.481
12940;172889;34.52;635;03.24.20.481
12912;172897;34.52;636;03.24.20.481
12928;172892;34.52;637;03.24.20.481
12908;172885;34.52;638;03.24.20.481
12904;172889;34.52;639;03.24.20.481
12912;172892;34.52;640;03.24.20.481
12916;172900;34.52;641;03.24.20.481
12928;172900;34.52;642;03.24.20.481
12924;172895;34.52;643;03.24.20.481
12924;172905;34.52;644;03.24.20.481
12928;172906;34.52;645;03.24.20.492
12916;172902;34.52;646;03.24.20.492
12912;172897;34.52;647;03.24.20.492
12908;172907;34.52;648;03.24.20.492
12960;172902;34.52;649;03.24.20.492
12932;172913;34.52;650;03.24.20.602
12932;172914;34.52;651;03.24.20.602
12944;172909;34.52;652;03.24.20.602
12912;172914;34.52;653;03.24.20.602
12916;172918;34.52;654;03.24.20.613
12904;172913;34.52;655;03.24.20.613
12904;172931;34.52;656;03.24.20.613
12936;172921;34.52;657;03.24.20.613
12948;172927;34.52;658;03.24.20.613
12908;172918;34.52;659;03.24.20.613
12928;172928;34.52;660;03.24.20.613
12904;172923;34.52;661;03.24.20.613
12920;172925;34.52;662;03.24.20.613
12900;172930;34.52;663;03.24.20.613
12936;172929;34.52;664;03.24.20.613
12904;172933;34.52;665;03.24.20.613
12920;172940;34.52;666;03.24.20.624
12908;172936;34.52;667;03.24.20.624
12944;172938;34.52;668;03.24.20.624
12952;172946;34.52;669;03.24.20.624
12940;172953;34.52;670;03.24.20.624
12892;172943;34.52;671;03.24.20.624
12892;172949;34.52;672;03.24.20.624
12936;172945;34.52;673;03.24.20.624
12924;172956;34.52;674;03.24.20.624
12908;172951;34.52;675;03.24.20.701
12900;172949;34.52;676;03.24.20.701
12920;172951;34.52;677;03.24.20.701
12944;172953;34.52;678;03.24.20.701
12940;172960;34.52;679;03.24.20.701
12936;172959;34.52;680;03.24.20.701
12932;172971;34.52;681;03.24.20.701
12892;172965;34.52;682;03.24.20.701
12896;172967;34.52;683;03.24.20.701
12908;172976;34.52;684;03.24.20.701
12884;172974;34.52;685;03.24.20.701
12928;172968;34.52;686;03.24.20.701
12928;172971;34.52;687;03.24.20.701
12916;172975;34.52;688;03.24.20.712
12920;172985;34.52;689;03.24.20.712
12892;172971;34.52;690;03.24.20.712
12904;172984;34.52;691;03.24.20.712
12928;172971;34.52;692;03.24.20.722
12900;172978;34.52;693;03.24.20.722
12924;172969;34.52;694;03.24.20.722
12900;172967;34.52;695;03.24.20.722
12904;172969;34.52;696;03.24.20.722
12928;172958;34.52;697;03.24.20.722
12928;172962;34.52;698;03.24.20.722
12928;172954;34.52;699;03.24.20.722
12932;172950;34.52;700;03.24.20.832
12912;172935;34.52;701;03.24.20.832
12928;172942;34.52;702;03.24.20.832
12916;172945;34.52;703;03.24.20.832
12936;172933;34.52;704;03.24.20.832
12932;172936;34.52;705;03.24.20.832
12928;172932;34.52;706;03.24.20.832
12944;172934;34.52;707;03.24.20.832
12892;172922;34.52;708;03.24.20.832
12920;172922;34.52;709;03.24.20.843
12896;172928;34.52;710;03.24.20.843
12900;172919;34.52;711;03.24.20.843
12920;172924;34.52;712;03.24.20.843
12892;172922;34.52;713;03.24.20.843
12920;172913;34.52;714;03.24.20.843
12900;172914;34.52;715;03.24.20.843
12892;172916;34.52;716;03.24.20.843
12920;172918;34.52;717;03.24.20.843
12944;172920;34.52;718;03.24.20.843
12916;172931;34.52;719;03.24.20.843
12936;172907;34.52;720;03.24.20.843
12936;172917;34.52;721;03.24.20.843
12928;172915;34.52;722;03.24.20.854
12928;172918;34.52;723;03.24.20.854
12928;172913;34.52;724;03.24.20.854
12924;172919;34.52;725;03.24.20.963
12928;172909;34.52;726;03.24.20.963
12908;172916;34.52;727;03.24.20.963
12920;172920;34.52;728;03.24.20.963
12936;172922;34.52;729;03.24.20.974
12936;172916;34.52;730;03.24.20.974
12916;172920;34.52;731;03.24.20.974
12916;172909;34.52;732;03.24.20.974
12892;172917;34.52;733;03.24.20.974
12920;172921;34.52;734;03.24.20.974
12912;172912;34.52;735;03.24.20.974
12924;172928;34.52;736;03.24.20.974
12908;172920;34.52;737;03.24.20.974
12920;172925;34.52;738;03.24.20.974
12928;172921;34.52;739;03.24.20.974
12944;172919;34.52;740;03.24.20.974
12920;172922;34.52;741;03.24.20.985
12912;172926;34.52;742;03.24.20.985
12884;172918;34.52;743;03.24.20.985
12952;172926;34.52;744;03.24.20.985
12928;172928;34.52;745;03.24.20.985
12952;172928;34.52;746;03.24.20.985
12944;172926;34.52;747;03.24.20.985
12920;172931;34.52;748;03.24.20.985
12960;172928;34.52;749;03.24.20.985
12920;172931;34.52;750;03.24.21.073
12916;172934;34.52;751;03.24.21.084
12892;172933;34.52;752;03.24.21.084
12924;172934;34.52;753;03.24.21.084
12928;172933;34.52;754;03.24.21.084
12916;172934;34.52;755;03.24.21.084
12912;172928;34.52;756;03.24.21.084
12916;172922;34.52;757;03.24.21.084
12932;172926;34.52;758;03.24.21.106
12936;172935;34.52;759;03.24.21.106
12936;172922;34.52;760;03.24.21.106
12920;172932;34.52;761;03.24.21.106
12936;172936;34.52;762;03.24.21.106
12932;172937;34.52;763;03.24.21.106
12924;172921;34.52;764;03.24.21.106
12920;172935;34.52;765;03.24.21.106
12904;172930;34.52;766;03.24.21.106
12916;172928;34.52;767;03.24.21.106
12920;172936;34.52;768;03.24.21.106
12908;172932;34.52;769;03.24.21.106
12920;172941;34.52;770;03.24.21.106
12892;172937;34.52;771;03.24.21.117
12948;172944;34.52;772;03.24.21.117
12912;172945;34.52;773;03.24.21.117
12920;172943;34.52;774;03.24.21.117
12908;172948;34.52;775;03.24.21.205
12944;172940;34.52;776;03.24.21.205
12940;172942;34.52;777;03.24.21.205
12920;172955;34.52;778;03.24.21.205
12908;172947;34.52;779;03.24.21.205
12924;172949;34.52;780;03.24.21.205
12936;172950;34.52;781;03.24.21.205
12900;172954;34.52;782;03.24.21.205
12928;172955;34.52;783;03.24.21.216
12920;172955;34.52;784;03.24.21.216
12916;172959;34.52;785;03.24.21.216
12876;172956;34.52;786;03.24.21.216
12928;172953;34.52;787;03.24.21.216
12936;172955;34.52;788;03.24.21.216
12908;172962;34.52;789;03.24.21.216
12948;172958;34.52;790;03.24.21.216
12920;172958;34.52;791;03.24.21.216
12928;172961;34.52;792;03.24.21.238
12908;172959;34.52;793;03.24.21.238
12916;172969;34.52;794;03.24.21.238
12928;172973;34.52;795;03.24.21.238
12924;172970;34.52;796;03.24.21.238
12944;172976;34.52;797;03.24.21.238
12920;172965;34.52;798;03.24.21.238
12944;172977;34.52;799;03.24.21.238
12912;172979;34.52;800;03.24.21.325
12916;172974;34.52;801;03.24.21.325
12904;172977;34.52;802;03.24.21.325
12908;172970;34.52;803;03.24.21.325
12892;172979;34.52;804;03.24.21.325
12928;172980;34.52;805;03.24.21.325
12944;172982;34.52;806;03.24.21.336
12912;172990;34.52;807;03.24.21.336
12916;172992;34.52;808;03.24.21.336
12916;172997;34.52;809;03.24.21.336
12924;172987;34.52;810;03.24.21.336
12920;172993;34.52;811;03.24.21.336
12904;172996;34.52;812;03.24.21.336
12940;172995;34.52;813;03.24.21.336
12932;172989;34.52;814;03.24.21.336
12916;173000;34.52;815;03.24.21.336
12944;173000;34.52;816;03.24.21.336
12928;172995;34.52;817;03.24.21.336
12928;172998;34.52;818;03.24.21.336
12932;173001;34.52;819;03.24.21.347
12916;173006;34.52;820;03.24.21.347
12908;173000;34.52;821;03.24.21.347
12900;173011;34.52;822;03.24.21.347
12920;173012;34.52;823;03.24.21.347
12936;173018;34.52;824;03.24.21.347
12928;173015;34.52;825;03.24.21.468
12924;173014;34.52;826;03.24.21.479
12928;173016;34.52;827;03.24.21.479
12944;173007;34.52;828;03.24.21.479
12928;173016;34.52;829;03.24.21.479
12912;173017;34.52;830;03.24.21.479
12928;173007;34.52;831;03.24.21.479
12932;173009;34.52;832;03.24.21.479
12936;173004;34.52;833;03.24.21.479
12936;173024;34.52;834;03.24.21.479
12924;173029;34.52;835;03.24.21.479
12916;173026;34.52;836;03.24.21.490
12908;173030;34.52;837;03.24.21.490
12928;173036;34.52;838;03.24.21.490
12948;173031;34.52;839;03.24.21.490
12928;173027;34.52;840;03.24.21.490
12936;173024;34.52;841;03.24.21.490
12928;173031;34.52;842;03.24.21.501
12932;173038;34.52;843;03.24.21.501
12932;173036;34.52;844;03.24.21.512
12928;173029;34.52;845;03.24.21.512
12908;173030;34.52;846;03.24.21.512
12908;173033;34.52;847;03.24.21.512
12944;173037;34.52;848;03.24.21.512
12944;173034;34.52;849;03.24.21.512
12912;173040;34.56;850;03.24.21.600
12904;173040;34.56;851;03.24.21.600
12924;173034;34.56;852;03.24.21.600
12932;173041;34.56;853;03.24.21.600
12908;173036;34.56;854;03.24.21.600
12944;173040;34.56;855;03.24.21.600
12936;173035;34.56;856;03.24.21.600
12912;173037;34.56;857;03.24.21.600
12932;173034;34.56;858;03.24.21.600
12928;173023;34.56;859;03.24.21.600
12932;173024;34.56;860;03.24.21.600
12904;173022;34.56;861;03.24.21.600
12932;173016;34.56;862;03.24.21.600
12928;173012;34.56;863;03.24.21.611
12908;173010;34.56;864;03.24.21.611
12928;173009;34.56;865;03.24.21.611
12944;173003;34.56;866;03.24.21.611
12900;172999;34.56;867;03.24.21.611
12900;173000;34.56;868;03.24.21.611
12916;173000;34.56;869;03.24.21.611
12916;172992;34.56;870;03.24.21.611
12936;172993;34.56;871;03.24.21.611
12912;173000;34.56;872;03.24.21.611
12932;172985;34.56;873;03.24.21.611
12904;172981;34.56;874;03.24.21.611
12928;172979;34.56;875;03.24.21.698
12936;172982;34.56;876;03.24.21.698
12960;172980;34.56;877;03.24.21.698
12904;172985;34.56;878;03.24.21.698
12928;172980;34.56;879;03.24.21.698
12920;172983;34.56;880;03.24.21.698
12896;172978;34.56;881;03.24.21.698
12892;172973;34.56;882;03.24.21.698
12912;172975;34.56;883;03.24.21.709
12916;172974;34.56;884;03.24.21.709
12904;172984;34.56;885;03.24.21.709
12936;172979;34.56;886;03.24.21.709
12924;172977;34.56;887;03.24.21.709
12940;172978;34.56;888;03.24.21.709
12936;172984;34.56;889;03.24.21.709
12908;172988;34.56;890;03.24.21.709
12928;172984;34.56;891;03.24.21.709
12920;172982;34.56;892;03.24.21.731
12924;172982;34.56;893;03.24.21.731
12944;172979;34.56;894;03.24.21.731
12916;172993;34.56;895;03.24.21.731
12928;172983;34.56;896;03.24.21.731
12920;172989;34.56;897;03.24.21.731
12924;172988;34.56;898;03.24.21.731
12936;172987;34.56;899;03.24.21.731
12928;172986;34.52;900;03.24.21.819
12892;172978;34.52;901;03.24.21.819
12888;172984;34.52;902;03.24.21.819
12900;172992;34.52;903;03.24.21.819
12928;172993;34.52;904;03.24.21.819
12884;172983;34.52;905;03.24.21.830
12928;172992;34.52;906;03.24.21.830
12908;172988;34.52;907;03.24.21.830
12916;173002;34.52;908;03.24.21.830
12912;172992;34.52;909;03.24.21.830
12904;173001;34.52;910;03.24.21.830
12932;172991;34.52;911;03.24.21.830
12924;172993;34.52;912;03.24.21.830
12884;172993;34.52;913;03.24.21.830
12904;172995;34.52;914;03.24.21.830
12920;172999;34.52;915;03.24.21.830
12916;172994;34.52;916;03.24.21.830
12892;172997;34.52;917;03.24.21.830
12896;172990;34.52;918;03.24.21.841
12908;172997;34.52;919;03.24.21.841
12920;172995;34.52;920;03.24.21.841
12932;172993;34.52;921;03.24.21.841
12904;173001;34.52;922;03.24.21.841
12940;172997;34.52;923;03.24.21.841
12928;172992;34.52;924;03.24.21.841
12912;172992;34.52;925;03.24.21.962
12916;173000;34.52;926;03.24.21.962
12920;172991;34.52;927;03.24.21.962
12908;172994;34.52;928;03.24.21.962
12924;172994;34.52;929;03.24.21.962
12936;172996;34.52;930;03.24.21.962
12904;172990;34.52;931;03.24.21.962
12936;172994;34.52;932;03.24.21.962
12916;172994;34.52;933;03.24.21.962
12928;172993;34.52;934;03.24.21.962
12928;172999;34.52;935;03.24.21.962
12928;172992;34.52;936;03.24.21.962
12920;172996;34.52;937;03.24.21.962
12912;173002;34.52;938;03.24.21.962
12892;173000;34.52;939;03.24.21.973
12928;172999;34.52;940;03.24.21.973
12904;173000;34.52;941;03.24.21.973
12892;173007;34.52;942;03.24.21.973
12904;172996;34.52;943;03.24.21.973
12912;173003;34.52;944;03.24.21.973
12928;173009;34.52;945;03.24.21.973
12900;173001;34.52;946;03.24.21.973
12904;173005;34.52;947;03.24.21.973
12920;173010;34.52;948;03.24.21.973
12924;173008;34.52;949;03.24.21.973
12896;173003;34.52;950;03.24.22.091
12888;173007;34.52;951;03.24.22.091
12928;173019;34.52;952;03.24.22.091
12924;173019;34.52;953;03.24.22.091
12912;173015;34.52;954;03.24.22.091
12928;173017;34.52;955;03.24.22.091
12916;173014;34.52;956;03.24.22.091
12920;173008;34.52;957;03.24.22.091
12928;173004;34.52;958;03.24.22.102
12908;173010;34.52;959;03.24.22.102
12928;173013;34.52;960;03.24.22.102
12904;173020;34.52;961;03.24.22.102
12916;173014;34.52;962;03.24.22.102
12944;173017;34.52;963;03.24.22.102
12924;173021;34.52;964;03.24.22.102
12900;173015;34.52;965;03.24.22.102
12944;173021;34.52;966;03.24.22.102
12900;173028;34.52;967;03.24.22.102
12928;173022;34.52;968;03.24.22.102
12904;173019;34.52;969;03.24.22.102
12920;173021;34.52;970;03.24.22.102
12944;173034;34.52;971;03.24.22.103
12924;173027;34.52;972;03.24.22.103
12892;173032;34.52;973;03.24.22.104
12932;173026;34.52;974;03.24.22.123
12908;173034;34.52;975;03.24.22.200
12900;173041;34.52;976;03.24.22.200
12932;173031;34.52;977;03.24.22.200
12908;173030;34.52;978;03.24.22.200
12900;173032;34.52;979;03.24.22.211
12932;173034;34.52;980;03.24.22.211
12908;173040;34.52;981;03.24.22.211
12920;173036;34.52;982;03.24.22.211
12928;173034;34.52;983;03.24.22.211
12928;173043;34.52;984;03.24.22.211
12892;173035;34.52;985;03.24.22.211
12892;173048;34.52;986;03.24.22.211
12904;173034;34.52;987;03.24.22.211
12932;173041;34.52;988;03.24.22.211
12948;173039;34.52;989;03.24.22.211
12936;173046;34.52;990;03.24.22.211
12920;173042;34.52;991;03.24.22.211
12916;173044;34.52;992;03.24.22.233
12876;173048;34.52;993;03.24.22.233
12928;173043;34.52;994;03.24.22.233
12912;173046;34.52;995;03.24.22.244
12928;173037;34.52;996;03.24.22.244
12900;173041;34.52;997;03.24.22.244
12924;173035;34.52;998;03.24.22.244
12932;173044;34.52;999;03.24.22.244
12920;173048;34.52;000;03.24.22.331
12960;173044;34.52;001;03.24.22.331
12924;173056;34.52;002;03.24.22.331
12924;173043;34.52;003;03.24.22.331
12956;173045;34.52;004;03.24.22.331
12916;173051;34.52;005;03.24.22.331
12924;173047;34.52;006;03.24.22.331
12920;173044;34.52;007;03.24.22.331
12888;173049;34.52;008;03.24.22.331
12892;173054;34.52;009;03.24.22.331
12892;173044;34.52;010;03.24.22.331
12928;173046;34.52;011;03.24.22.331
12928;173041;34.52;012;03.24.22.342
12908;173042;34.52;013;03.24.22.342
12892;173036;34.52;014;03.24.22.342
12892;173027;34.52;015;03.24.22.342
12928;173025;34.52;016;03.24.22.342
12916;173019;34.52;017;03.24.22.342
12916;173013;34.52;018;03.24.22.342
12912;173020;34.52;019;03.24.22.342
12904;173007;34.52;020;03.24.22.342
12952;173005;34.52;021;03.24.22.342
12900;172998;34.52;022;03.24.22.342
12904;172996;34.52;023;03.24.22.342
12912;172989;34.52;024;03.24.22.342
12920;172984;34.52;025;03.24.22.452
12928;172992;34.52;026;03.24.22.452
12912;172987;34.52;027;03.24.22.452
12964;172985;34.52;028;03.24.22.452
12912;172982;34.52;029;03.24.22.452
12908;172982;34.52;030;03.24.22.452
12908;172968;34.52;031;03.24.22.452
12896;172964;34.52;032;03.24.22.452
12908;172970;34.52;033;03.24.22.463
12912;172969;34.52;034;03.24.22.463
12892;172968;34.52;035;03.24.22.463
12924;172967;34.52;036;03.24.22.463
12928;172963;34.52;037;03.24.22.463
12928;172968;34.52;038;03.24.22.463
12928;172965;34.52;039;03.24.22.463
12900;172963;34.52;040;03.24.22.463
12912;172957;34.52;041;03.24.22.463
12924;172968;34.52;042;03.24.22.463
12944;172963;34.52;043;03.24.22.463
12928;172964;34.52;044;03.24.22.463
12924;172960;34.52;045;03.24.22.474
12936;172967;34.52;046;03.24.22.474
12912;172965;34.52;047;03.24.22.474
12924;172961;34.52;048;03.24.22.474
12892;172963;34.52;049;03.24.22.474
12920;172965;34.52;050;03.24.22.594
12920;172949;34.52;051;03.24.22.594
12912;172962;34.52;052;03.24.22.594
12920;172965;34.52;053;03.24.22.594
12952;172960;34.52;054;03.24.22.605
12932;172950;34.52;055;03.24.22.605
12916;172951;34.52;056;03.24.22.605
12940;172956;34.52;057;03.24.22.605
12884;172953;34.52;058;03.24.22.605
12908;172954;34.52;059;03.24.22.605
12928;172952;34.52;060;03.24.22.605
12900;172949;34.52;061;03.24.22.605
12908;172961;34.52;062;03.24.22.605
12912;172962;34.52;063;03.24.22.605
12888;172952;34.52;064;03.24.22.605
12928;172951;34.52;065;03.24.22.605
12892;172951;34.52;066;03.24.22.616
12908;172954;34.52;067;03.24.22.616
12904;172955;34.52;068;03.24.22.616
12928;172962;34.52;069;03.24.22.616
12928;172955;34.52;070;03.24.22.616
12916;172959;34.52;071;03.24.22.616
12928;172957;34.52;072;03.24.22.616
12900;172954;34.52;073;03.24.22.616
12952;172953;34.52;074;03.24.22.616
12916;172951;34.52;075;03.24.22.715
12928;172950;34.52;076;03.24.22.715
12916;172953;34.52;077;03.24.22.715
12928;172953;34.52;078;03.24.22.715
12920;172949;34.52;079;03.24.22.715
12916;172953;34.52;080;03.24.22.715
12916;172952;34.52;081;03.24.22.715
12900;172958;34.52;082;03.24.22.715
12936;172948;34.52;083;03.24.22.715
12904;172946;34.52;084;03.24.22.715
12892;172949;34.52;085;03.24.22.715
12932;172943;34.52;086;03.24.22.715
12928;172945;34.52;087;03.24.22.715
12928;172955;34.52;088;03.24.22.726
12932;172953;34.52;089;03.24.22.726
12912;172948;34.52;090;03.24.22.726
12924;172944;34.52;091;03.24.22.726
12932;172946;34.52;092;03.24.22.737
12912;172949;34.52;093;03.24.22.737
12932;172952;34.52;094;03.24.22.737
12920;172954;34.52;095;03.24.22.737
12892;172958;34.52;096;03.24.22.737
12928;172952;34.52;097;03.24.22.737
12920;172953;34.52;098;03.24.22.737
12924;172950;34.52;099;03.24.22.737
12908;172950;34.52;100;03.24.22.824
12904;172956;34.52;101;03.24.22.824
12960;172955;34.52;102;03.24.22.824
12904;172955;34.52;103;03.24.22.824
12944;172958;34.52;104;03.24.22.824
12924;172950;34.52;105;03.24.22.824
12900;172950;34.52;106;03.24.22.824
12924;172961;34.52;107;03.24.22.824
12932;172955;34.52;108;03.24.22.824
12928;172960;34.52;109;03.24.22.835
12920;172960;34.52;110;03.24.22.835
12936;172962;34.52;111;03.24.22.835
12904;172962;34.52;112;03.24.22.835
12932;172960;34.52;113;03.24.22.835
12908;172959;34.52;114;03.24.22.835
12916;172964;34.52;115;03.24.22.835
12908;172963;34.52;116;03.24.22.835
12920;172965;34.52;117;03.24.22.835
12936;172962;34.52;118;03.24.22.835
12908;172954;34.52;119;03.24.22.835
12908;172967;34.52;120;03.24.22.835
12900;172968;34.52;121;03.24.22.835
12964;172965;34.52;122;03.24.22.835
12908;172970;34.52;123;03.24.22.846
12936;172968;34.52;124;03.24.22.846
12948;172975;34.52;125;03.24.22.944
12904;172966;34.52;126;03.24.22.944
12928;172959;34.52;127;03.24.22.944
12932;172963;34.52;128;03.24.22.944
12920;172963;34.52;129;03.24.22.944
12892;172970;34.52;130;03.24.22.955
12932;172976;34.52;131;03.24.22.955
12928;172970;34.52;132;03.24.22.955
12928;172971;34.52;133;03.24.22.955
12896;172979;34.52;134;03.24.22.955
12920;172985;34.52;135;03.24.22.955
12892;172982;34.52;136;03.24.22.955
12920;172979;34.52;137;03.24.22.955
12920;172979;34.52;138;03.24.22.955
12908;172982;34.52;139;03.24.22.955
12892;172976;34.52;140;03.24.22.955
12924;172988;34.52;141;03.24.22.955
12892;172983;34.52;142;03.24.22.955
12916;172991;34.52;143;03.24.22.966
12892;172983;34.52;144;03.24.22.966
12904;172985;34.52;145;03.24.22.966
12924;172986;34.52;146;03.24.22.966
12944;172986;34.52;147;03.24.22.966
12928;172985;34.52;148;03.24.22.966
12948;172982;34.52;149;03.24.22.966
12916;172988;34.52;150;03.24.23.086
12896;172990;34.52;151;03.24.23.086
12924;172992;34.52;152;03.24.23.086
12920;172986;34.52;153;03.24.23.086
12920;172994;34.52;154;03.24.23.086
12928;172993;34.52;155;03.24.23.086
12928;172994;34.52;156;03.24.23.086
12892;172997;34.52;157;03.24.23.086
12908;172997;34.52;158;03.24.23.086
12912;173001;34.52;159;03.24.23.086
12928;172992;34.52;160;03.24.23.086
12916;173002;34.52;161;03.24.23.086
12908;172998;34.52;162;03.24.23.086
12892;172999;34.52;163;03.24.23.097
12904;173001;34.52;164;03.24.23.097
12916;172993;34.52;165;03.24.23.097
12908;173000;34.52;166;03.24.23.097
12908;172988;34.52;167;03.24.23.097
12920;172991;34.52;168;03.24.23.097
12928;172973;34.52;169;03.24.23.097
12912;172980;34.52;170;03.24.23.097
12932;172965;34.52;171;03.24.23.097
12960;172968;34.52;172;03.24.23.097
12944;172967;34.52;173;03.24.23.097
12908;172956;34.52;174;03.24.23.097
12912;172956;34.52;175;03.24.23.217
12952;172955;34.52;176;03.24.23.217
12932;172946;34.52;177;03.24.23.217
12928;172937;34.52;178;03.24.23.217
12920;172943;34.52;179;03.24.23.217
12920;172936;34.52;180;03.24.23.217
12928;172929;34.52;181;03.24.23.217
12916;172926;34.52;182;03.24.23.217
12920;172916;34.52;183;03.24.23.217
12900;172918;34.52;184;03.24.23.228
12900;172921;34.52;185;03.24.23.228
12908;172918;34.52;186;03.24.23.228
12892;172909;34.52;187;03.24.23.228
12928;172908;34.52;188;03.24.23.228
12900;172905;34.52;189;03.24.23.228
12920;172900;34.52;190;03.24.23.228
12912;172897;34.52;191;03.24.23.228
12912;172888;34.52;192;03.24.23.228
12900;172896;34.52;193;03.24.23.228
12916;172903;34.52;194;03.24.23.228
12900;172903;34.52;195;03.24.23.228
12900;172897;34.52;196;03.24.23.228
12876;172899;34.52;197;03.24.23.239
12916;172894;34.52;198;03.24.23.239
12940;172900;34.52;199;03.24.23.239
12928;172899;34.52;200;03.24.23.327
12916;172888;34.52;201;03.24.23.327
12884;172883;34.52;202;03.24.23.327
12900;172894;34.52;203;03.24.23.327
12952;172895;34.52;204;03.24.23.327
12920;172890;34.52;205;03.24.23.327
12920;172900;34.52;206;03.24.23.338
12916;172891;34.52;207;03.24.23.338
12912;172889;34.52;208;03.24.23.338
12904;172881;34.52;209;03.24.23.338
12912;172882;34.52;210;03.24.23.338
12944;172888;34.52;211;03.24.23.338
12892;172882;34.52;212;03.24.23.338
12908;172893;34.52;213;03.24.23.349
12908;172885;34.52;214;03.24.23.349
12908;172881;34.52;215;03.24.23.349
12928;172879;34.52;216;03.24.23.349
12908;172883;34.52;217;03.24.23.349
12912;172881;34.52;218;03.24.23.349
12940;172891;34.52;219;03.24.23.349
12920;172880;34.52;220;03.24.23.349
12920;172876;34.52;221;03.24.23.349
12924;172878;34.52;222;03.24.23.349
12912;172871;34.52;223;03.24.23.349
12952;172881;34.52;224;03.24.23.349
12892;172884;34.52;225;03.24.23.458
12928;172872;34.52;226;03.24.23.458
12908;172878;34.52;227;03.24.23.469
12960;172886;34.52;228;03.24.23.469
12936;172882;34.52;229;03.24.23.469
12924;172878;34.52;230;03.24.23.469
12916;172875;34.52;231;03.24.23.469
12892;172876;34.52;232;03.24.23.469
12932;172873;34.52;233;03.24.23.480
12900;172868;34.52;234;03.24.23.480
12892;172870;34.52;235;03.24.23.480
12936;172867;34.52;236;03.24.23.480
12908;172861;34.52;237;03.24.23.480
12928;172865;34.52;238;03.24.23.480
12904;172868;34.52;239;03.24.23.480
12924;172870;34.52;240;03.24.23.480
12912;172865;34.52;241;03.24.23.480
12944;172870;34.52;242;03.24.23.480
12920;172863;34.52;243;03.24.23.480
12936;172878;34.52;244;03.24.23.480
12928;172870;34.52;245;03.24.23.480
12916;172860;34.52;246;03.24.23.491
12924;172871;34.52;247;03.24.23.491
12916;172868;34.52;248;03.24.23.491
12916;172875;34.52;249;03.24.23.491
12944;172874;34.56;250;03.24.23.579
12900;172875;34.56;251;03.24.23.579
12924;172873;34.56;252;03.24.23.579
12928;172880;34.56;253;03.24.23.579
12936;172881;34.56;254;03.24.23.579
12924;172886;34.56;255;03.24.23.579
12944;172879;34.56;256;03.24.23.579
12916;172885;34.56;257;03.24.23.579
12908;172887;34.56;258;03.24.23.579
12920;172883;34.56;259;03.24.23.579
12936;172890;34.56;260;03.24.23.579
12932;172896;34.56;261;03.24.23.590
12924;172902;34.56;262;03.24.23.590
12900;172892;34.56;263;03.24.23.590
12920;172897;34.56;264;03.24.23.590
12908;172893;34.56;265;03.24.23.590
12916;172891;34.56;266;03.24.23.590
12936;172902;34.56;267;03.24.23.590
12932;172900;34.56;268;03.24.23.590
12936;172904;34.56;269;03.24.23.590
12944;172911;34.56;270;03.24.23.590
12928;172907;34.56;271;03.24.23.590
12944;172906;34.56;272;03.24.23.590
12896;172913;34.56;273;03.24.23.590
12924;172914;34.56;274;03.24.23.601
12936;172916;34.56;275;03.24.23.711
12904;172920;34.56;276;03.24.23.711
12944;172912;34.56;277;03.24.23.711
12924;172916;34.56;278;03.24.23.711
12928;172914;34.56;279;03.24.23.711
12928;172914;34.56;280;03.24.23.711
12908;172917;34.56;281;03.24.23.711
12920;172912;34.56;282;03.24.23.711
12900;172914;34.56;283;03.24.23.722
12920;172911;34.56;284;03.24.23.722
12932;172915;34.56;285;03.24.23.722
12904;172905;34.56;286;03.24.23.722
12908;172915;34.56;287;03.24.23.722
12920;172914;34.56;288;03.24.23.722
12916;172911;34.56;289;03.24.23.722
12896;172910;34.56;290;03.24.23.722
12920;172909;34.56;291;03.24.23.722
12908;172911;34.56;292;03.24.23.722
12908;172916;34.56;293;03.24.23.722
12920;172909;34.56;294;03.24.23.722
12892;172911;34.56;295;03.24.23.722
12948;172914;34.56;296;03.24.23.733
12912;172909;34.56;297;03.24.23.733
12916;172907;34.56;298;03.24.23.733
12928;172901;34.56;299;03.24.23.733
12908;172916;34.52;300;03.24.23.820
12928;172913;34.52;301;03.24.23.820
12928;172907;34.52;302;03.24.23.820
12916;172909;34.52;303;03.24.23.820
12908;172904;34.52;304;03.24.23.831
12916;172909;34.52;305;03.24.23.831
12916;172908;34.52;306;03.24.23.831
12880;172913;34.52;307;03.24.23.831
12900;172910;34.52;308;03.24.23.831
12936;172915;34.52;309;03.24.23.831
12908;172914;34.52;310;03.24.23.831
12960;172916;34.52;311;03.24.23.842
12924;172914;34.52;312;03.24.23.842
12932;172912;34.52;313;03.24.23.842
12928;172916;34.52;314;03.24.23.842
12932;172917;34.52;315;03.24.23.842
12908;172920;34.52;316;03.24.23.842
12908;172922;34.52;317;03.24.23.842
12916;172916;34.52;318;03.24.23.842
12908;172924;34.52;319;03.24.23.842
12912;172929;34.52;320;03.24.23.842
12900;172933;34.52;321;03.24.23.853
12888;172935;34.52;322;03.24.23.853
12904;172936;34.52;323;03.24.23.853
12908;172934;34.52;324;03.24.23.853
12920;172937;34.52;325;03.24.23.952
12928;172940;34.52;326;03.24.23.952
12904;172943;34.52;327;03.24.23.952
12892;172941;34.52;328;03.24.23.952
12892;172945;34.52;329;03.24.23.952
12892;172954;34.52;330;03.24.23.952
12900;172949;34.52;331;03.24.23.952
12920;172945;34.52;332;03.24.23.952
12924;172940;34.52;333;03.24.23.952
12936;172941;34.52;334;03.24.23.952
12924;172939;34.52;335;03.24.23.952
12912;172939;34.52;336;03.24.23.952
12888;172936;34.52;337;03.24.23.952
12908;172934;34.52;338;03.24.23.952
12928;172927;34.52;339;03.24.23.953
12916;172923;34.52;340;03.24.23.955
12900;172915;34.52;341;03.24.23.955
12888;172914;34.52;342;03.24.23.966
12912;172912;34.52;343;03.24.23.966
12904;172897;34.52;344;03.24.23.966
12928;172897;34.52;345;03.24.23.966
12892;172903;34.52;346;03.24.23.966
12900;172889;34.52;347;03.24.23.966
12928;172883;34.52;348;03.24.23.966
12944;172879;34.52;349;03.24.23.966
12936;172878;34.56;350;03.24.24.081
12916;172863;34.56;351;03.24.24.081
12944;172864;34.56;352;03.24.24.081
12928;172857;34.56;353;03.24.24.081
12908;172844;34.56;354;03.24.24.081
12904;172842;34.56;355;03.24.24.081
12916;172837;34.56;356;03.24.24.092
12920;172842;34.56;357;03.24.24.092
12904;172835;34.56;358;03.24.24.092
12932;172837;34.56;359;03.24.24.092
12896;172833;34.56;360;03.24.24.092
12924;172837;34.56;361;03.24.24.092
12924;172829;34.56;362;03.24.24.092
12928;172830;34.56;363;03.24.24.092
12908;172837;34.56;364;03.24.24.092
12916;172834;34.56;365;03.24.24.092
12928;172830;34.56;366;03.24.24.092
12924;172823;34.56;367;03.24.24.114
12932;172831;34.56;368;03.24.24.114
12920;172831;34.56;369;03.24.24.114
12928;172827;34.56;370;03.24.24.114
12960;172833;34.56;371;03.24.24.114
12920;172837;34.56;372;03.24.24.114
12888;172833;34.56;373;03.24.24.125
12948;172831;34.56;374;03.24.24.125
12932;172833;34.56;375;03.24.24.201
12932;172833;34.56;376;03.24.24.201
12892;172830;34.56;377;03.24.24.213
12936;172822;34.56;378;03.24.24.213
12928;172827;34.56;379;03.24.24.213
12892;172830;34.56;380;03.24.24.213
12892;172831;34.56;381;03.24.24.213
12948;172827;34.56;382;03.24.24.213
12912;172828;34.56;383;03.24.24.213
12892;172826;34.56;384;03.24.24.213
12932;172833;34.56;385;03.24.24.213
12908;172825;34.56;386;03.24.24.213
12928;172830;34.56;387;03.24.24.213
12928;172823;34.56;388;03.24.24.213
12928;172823;34.56;389;03.24.24.213
12928;172829;34.56;390;03.24.24.213
12952;172830;34.56;391;03.24.24.226
12916;172831;34.56;392;03.24.24.226
12904;172829;34.56;393;03.24.24.226
12928;172831;34.56;394;03.24.24.226
12908;172826;34.56;395;03.24.24.226
12936;172832;34.56;396;03.24.24.226
12924;172832;34.56;397;03.24.24.226
12892;172833;34.56;398;03.24.24.226
12928;172834;34.56;399;03.24.24.226
12912;172832;34.52;400;03.24.24.339
12896;172836;34.52;401;03.24.24.339
12916;172832;34.52;402;03.24.24.339
12908;172827;34.52;403;03.24.24.339
12928;172825;34.52;404;03.24.24.339
12924;172829;34.52;405;03.24.24.339
12900;172819;34.52;406;03.24.24.350
12912;172810;34.52;407;03.24.24.350
12904;172816;34.52;408;03.24.24.350
12912;172820;34.52;409;03.24.24.350
12916;172815;34.52;410;03.24.24.350
12916;172824;34.52;411;03.24.24.350
12928;172820;34.52;412;03.24.24.350
12924;172807;34.52;413;03.24.24.350
12924;172815;34.52;414;03.24.24.350
12928;172822;34.52;415;03.24.24.350
12920;172821;34.52;416;03.24.24.350
12944;172813;34.52;417;03.24.24.361
12908;172816;34.52;418;03.24.24.361
12884;172811;34.52;419;03.24.24.361
12920;172812;34.52;420;03.24.24.361
12900;172813;34.52;421;03.24.24.361
12920;172808;34.52;422;03.24.24.361
12932;172805;34.52;423;03.24.24.361
12932;172803;34.52;424;03.24.24.361
12908;172813;34.52;425;03.24.24.482
12944;172800;34.52;426;03.24.24.493
12920;172812;34.52;427;03.24.24.493
12932;172802;34.52;428;03.24.24.493
12952;172807;34.52;429;03.24.24.493
12904;172806;34.52;430;03.24.24.493
12920;172802;34.52;431;03.24.24.493
12928;172797;34.52;432;03.24.24.493
12908;172800;34.52;433;03.24.24.493
12912;172803;34.52;434;03.24.24.493
12912;172803;34.52;435;03.24.24.493
12888;172808;34.52;436;03.24.24.493
12928;172807;34.52;437;03.24.24.493
12932;172803;34.52;438;03.24.24.493
12928;172807;34.52;439;03.24.24.504
12916;172800;34.52;440;03.24.24.504
12920;172798;34.52;441;03.24.24.504
12912;172802;34.52;442;03.24.24.504
12904;172802;34.52;443;03.24.24.504
12932;172806;34.52;444;03.24.24.504
12908;172814;34.52;445;03.24.24.504
12912;172801;34.52;446;03.24.24.504
12916;172809;34.52;447;03.24.24.504
12892;172807;34.52;448;03.24.24.504
12940;172799;34.52;449;03.24.24.504
12928;172817;34.52;450;03.24.24.592
12936;172808;34.52;451;03.24.24.592
12928;172804;34.52;452;03.24.24.592
12916;172812;34.52;453;03.24.24.592
12920;172817;34.52;454;03.24.24.592
12928;172811;34.52;455;03.24.24.592
12912;172803;34.52;456;03.24.24.592
12916;172804;34.52;457;03.24.24.592
12908;172803;34.52;458;03.24.24.624
12936;172805;34.52;459;03.24.24.624
12908;172802;34.52;460;03.24.24.624
12904;172808;34.52;461;03.24.24.624
12892;172808;34.52;462;03.24.24.624
12908;172816;34.52;463;03.24.24.624
12908;172818;34.52;464;03.24.24.624
12932;172817;34.52;465;03.24.24.636
12920;172810;34.52;466;03.24.24.636
12920;172816;34.52;467;03.24.24.636
12924;172821;34.52;468;03.24.24.636
12936;172819;34.52;469;03.24.24.636
12924;172826;34.52;470;03.24.24.636
12936;172817;34.52;471;03.24.24.636
12944;172819;34.52;472;03.24.24.636
12928;172814;34.52;473;03.24.24.636
12928;172812;34.52;474;03.24.24.636
12896;172818;34.52;475;03.24.24.713
12908;172807;34.52;476;03.24.24.713
12904;172814;34.52;477;03.24.24.713
12876;172810;34.52;478;03.24.24.713
12900;172794;34.52;479;03.24.24.713
12928;172808;34.52;480;03.24.24.713
12916;172794;34.52;481;03.24.24.713
12912;172800;34.52;482;03.24.24.713
12892;172792;34.52;483;03.24.24.724
12892;172787;34.52;484;03.24.24.724
12888;172785;34.52;485;03.24.24.724
12920;172786;34.52;486;03.24.24.724
12892;172782;34.52;487;03.24.24.724
12908;172777;34.52;488;03.24.24.724
12928;172778;34.52;489;03.24.24.724
12928;172780;34.52;490;03.24.24.724
12920;172777;34.52;491;03.24.24.724
12908;172782;34.52;492;03.24.24.724
12904;172776;34.52;493;03.24.24.724
12912;172775;34.52;494;03.24.24.724
12908;172776;34.52;495;03.24.24.724
12912;172783;34.52;496;03.24.24.735
12908;172767;34.52;497;03.24.24.735
12904;172777;34.52;498;03.24.24.735
12964;172772;34.52;499;03.24.24.735
12888;172774;34.56;500;03.24.24.822
12892;172769;34.56;501;03.24.24.822
12908;172770;34.56;502;03.24.24.822
12936;172782;34.56;503;03.24.24.822
12924;172773;34.56;504;03.24.24.822
12892;172779;34.56;505;03.24.24.833
12920;172785;34.56;506;03.24.24.833
12920;172790;34.56;507;03.24.24.833
12904;172787;34.56;508;03.24.24.844
12908;172780;34.56;509;03.24.24.844
12928;172787;34.56;510;03.24.24.844
12928;172784;34.56;511;03.24.24.844
12920;172786;34.56;512;03.24.24.855
12908;172794;34.56;513;03.24.24.855
12928;172790;34.56;514;03.24.24.855
12908;172785;34.56;515;03.24.24.855
12912;172781;34.56;516;03.24.24.855
12924;172768;34.56;517;03.24.24.855
12920;172766;34.56;518;03.24.24.855
12916;172767;34.56;519;03.24.24.855
12928;172755;34.56;520;03.24.24.855
12924;172752;34.56;521;03.24.24.855
12920;172739;34.56;522;03.24.24.855
12920;172741;34.56;523;03.24.24.855
12904;172739;34.56;524;03.24.24.855
12916;172729;34.56;525;03.24.24.953
12924;172720;34.56;526;03.24.24.953
12928;172711;34.56;527;03.24.24.953
12904;172709;34.56;528;03.24.24.953
12912;172704;34.56;529;03.24.24.953
12928;172696;34.56;530;03.24.24.953
12908;172698;34.56;531;03.24.24.953
12936;172696;34.56;532;03.24.24.953
12904;172689;34.56;533;03.24.24.953
12928;172683;34.56;534;03.24.24.953
12912;172688;34.56;535;03.24.24.953
12928;172679;34.56;536;03.24.24.953
12940;172679;34.56;537;03.24.24.953
12916;172671;34.56;538;03.24.24.964
12928;172663;34.56;539;03.24.24.964
12916;172659;34.56;540;03.24.24.964
12900;172656;34.56;541;03.24.24.964
12908;172656;34.56;542;03.24.24.986
12904;172646;34.56;543;03.24.24.986
12928;172650;34.56;544;03.24.24.986
12936;172650;34.56;545;03.24.24.986
12920;172651;34.56;546;03.24.24.986
12932;172656;34.56;547;03.24.24.986
12944;172640;34.56;548;03.24.24.986
12912;172651;34.56;549;03.24.24.986
12908;172636;34.52;550;03.24.25.085
12904;172641;34.52;551;03.24.25.085
12932;172631;34.52;552;03.24.25.085
12908;172637;34.52;553;03.24.25.085
12916;172639;34.52;554;03.24.25.085
12892;172637;34.52;555;03.24.25.085
12928;172634;34.52;556;03.24.25.085
12916;172640;34.52;557;03.24.25.085
12912;172634;34.52;558;03.24.25.096
12944;172625;34.52;559;03.24.25.096
12916;172629;34.52;560;03.24.25.096
12892;172625;34.52;561;03.24.25.096
12928;172625;34.52;562;03.24.25.096
12924;172623;34.52;563;03.24.25.096
12908;172620;34.52;564;03.24.25.096
12900;172625;34.52;565;03.24.25.096
12908;172625;34.52;566;03.24.25.096
12912;172622;34.52;567;03.24.25.118
12908;172611;34.52;568;03.24.25.118
12920;172616;34.52;569;03.24.25.118
12900;172613;34.52;570;03.24.25.118
12924;172604;34.52;571;03.24.25.118
12900;172619;34.52;572;03.24.25.118
12912;172613;34.52;573;03.24.25.118
12944;172614;34.52;574;03.24.25.118
12940;172614;34.52;575;03.24.25.230
12924;172621;34.52;576;03.24.25.230
12920;172620;34.52;577;03.24.25.230
12920;172618;34.52;578;03.24.25.230
12920;172627;34.52;579;03.24.25.230
12900;172625;34.52;580;03.24.25.230
12916;172623;34.52;581;03.24.25.230
12932;172625;34.52;582;03.24.25.241
12944;172625;34.52;583;03.24.25.241
12928;172622;34.52;584;03.24.25.241
12904;172621;34.52;585;03.24.25.241
12928;172625;34.52;586;03.24.25.241
12924;172624;34.52;587;03.24.25.241
12920;172624;34.52;588;03.24.25.241
12960;172626;34.52;589;03.24.25.241
12916;172621;34.52;590;03.24.25.241
12928;172628;34.52;591;03.24.25.241
12892;172622;34.52;592;03.24.25.252
12924;172615;34.52;593;03.24.25.252
12932;172621;34.52;594;03.24.25.252
12900;172621;34.52;595;03.24.25.252
12924;172614;34.52;596;03.24.25.252
12916;172623;34.52;597;03.24.25.252
12876;172626;34.52;598;03.24.25.252
12916;172619;34.52;599;03.24.25.252
12908;172626;34.52;600;03.24.25.340
12908;172627;34.52;601;03.24.25.340
12908;172627;34.52;602;03.24.25.340
12908;172627;34.52;603;03.24.25.340
12928;172625;34.52;604;03.24.25.340
12912;172620;34.52;605;03.24.25.351
12944;172626;34.52;606;03.24.25.351
12912;172625;34.52;607;03.24.25.351
12912;172625;34.52;608;03.24.25.351
12904;172624;34.52;609;03.24.25.351
12896;172635;34.52;610;03.24.25.351
12928;172632;34.52;611;03.24.25.351
12904;172639;34.52;612;03.24.25.351
12908;172634;34.52;613;03.24.25.351
12936;172632;34.52;614;03.24.25.362
12892;172636;34.52;615;03.24.25.362
12936;172636;34.52;616;03.24.25.362
12888;172639;34.52;617;03.24.25.362
12904;172639;34.52;618;03.24.25.362
12912;172627;34.52;619;03.24.25.362
12912;172646;34.52;620;03.24.25.362
12908;172648;34.52;621;03.24.25.362
12924;172650;34.52;622;03.24.25.373
12928;172654;34.52;623;03.24.25.373
12944;172655;34.52;624;03.24.25.373
12920;172648;34.52;625;03.24.25.472
12892;172655;34.52;626;03.24.25.472
12936;172651;34.52;627;03.24.25.473
12912;172657;34.52;628;03.24.25.484
12916;172659;34.52;629;03.24.25.484
12924;172652;34.52;630;03.24.25.484
12904;172654;34.52;631;03.24.25.484
12940;172657;34.52;632;03.24.25.484
12928;172663;34.52;633;03.24.25.484
12920;172659;34.52;634;03.24.25.484
12908;172663;34.52;635;03.24.25.484
12924;172657;34.52;636;03.24.25.484
12912;172659;34.52;637;03.24.25.484
12916;172665;34.52;638;03.24.25.484
12916;172668;34.52;639;03.24.25.484
12924;172671;34.52;640;03.24.25.484
12944;172671;34.52;641;03.24.25.495
12908;172667;34.52;642;03.24.25.495
12924;172674;34.52;643;03.24.25.495
12928;172674;34.52;644;03.24.25.507
12928;172676;34.52;645;03.24.25.507
12916;172680;34.52;646;03.24.25.507
12916;172672;34.52;647;03.24.25.507
12904;172676;34.52;648;03.24.25.507
12892;172676;34.52;649;03.24.25.507
12904;172676;34.52;650;03.24.25.574
12916;172674;34.52;651;03.24.25.574
12924;172674;34.52;652;03.24.25.585
12928;172682;34.52;653;03.24.25.585
12908;172682;34.52;654;03.24.25.585
12916;172676;34.52;655;03.24.25.585
12892;172680;34.52;656;03.24.25.585
12916;172679;34.52;657;03.24.25.585
12932;172672;34.52;658;03.24.25.585
12928;172687;34.52;659;03.24.25.585
12892;172691;34.52;660;03.24.25.585
12928;172690;34.52;661;03.24.25.596
12908;172684;34.52;662;03.24.25.596
12928;172687;34.52;663;03.24.25.596
12904;172686;34.52;664;03.24.25.596
12932;172685;34.52;665;03.24.25.596
12900;172689;34.52;666;03.24.25.596
12928;172689;34.52;667;03.24.25.607
12936;172685;34.52;668;03.24.25.607
12928;172690;34.52;669;03.24.25.607
12928;172683;34.52;670;03.24.25.618
12932;172685;34.52;671;03.24.25.618
12924;172696;34.52;672;03.24.25.618
12908;172695;34.52;673;03.24.25.618
12924;172700;34.52;674;03.24.25.618
12884;172702;34.52;675;03.24.25.706
12912;172702;34.52;676;03.24.25.706
12892;172690;34.52;677;03.24.25.706
12928;172696;34.52;678;03.24.25.706
12924;172699;34.52;679;03.24.25.706
12908;172710;34.52;680;03.24.25.706
12924;172704;34.52;681;03.24.25.706
12932;172707;34.52;682;03.24.25.706
12944;172705;34.52;683;03.24.25.706
12912;172710;34.52;684;03.24.25.706
12932;172705;34.52;685;03.24.25.706
12888;172710;34.52;686;03.24.25.718
12928;172714;34.52;687;03.24.25.718
12936;172710;34.52;688;03.24.25.718
12916;172708;34.52;689;03.24.25.718
12924;172719;34.52;690;03.24.25.718
12912;172720;34.52;691;03.24.25.718
12928;172714;34.52;692;03.24.25.718
12916;172717;34.52;693;03.24.25.718
12912;172708;34.52;694;03.24.25.718
12940;172718;34.52;695;03.24.25.718
12912;172701;34.52;696;03.24.25.718
12924;172702;34.52;697;03.24.25.718
12932;172700;34.52;698;03.24.25.718
12928;172690;34.52;699;03.24.25.718
12892;172694;34.52;700;03.24.25.838
12892;172681;34.52;701;03.24.25.838
12928;172681;34.52;702;03.24.25.838
12928;172678;34.52;703;03.24.25.838
12924;172678;34.52;704;03.24.25.838
12908;172670;34.52;705;03.24.25.838
12900;172670;34.52;706;03.24.25.838
12924;172666;34.52;707;03.24.25.838
12920;172667;34.52;708;03.24.25.838
12928;172662;34.52;709;03.24.25.849
12908;172666;34.52;710;03.24.25.849
12892;172657;34.52;711;03.24.25.849
12924;172650;34.52;712;03.24.25.849
12908;172655;34.52;713;03.24.25.849
12900;172660;34.52;714;03.24.25.849
12912;172659;34.52;715;03.24.25.849
12892;172654;34.52;716;03.24.25.849
12904;172653;34.52;717;03.24.25.849
12912;172647;34.52;718;03.24.25.849
12912;172654;34.52;719;03.24.25.849
12932;172652;34.52;720;03.24.25.849
12916;172644;34.52;721;03.24.25.849
12944;172654;34.52;722;03.24.25.860
12932;172643;34.52;723;03.24.25.860
12932;172645;34.52;724;03.24.25.860
12904;172648;34.52;725;03.24.25.948
12944;172649;34.52;726;03.24.25.948
12904;172649;34.52;727;03.24.25.948
12928;172648;34.52;728;03.24.25.948
12924;172645;34.52;729;03.24.25.948
12928;172641;34.52;730;03.24.25.948
12920;172637;34.52;731;03.24.25.959
12920;172649;34.52;732;03.24.25.959
12936;172647;34.52;733;03.24.25.959
12928;172649;34.52;734;03.24.25.959
12904;172656;34.52;735;03.24.25.959
12912;172655;34.52;736;03.24.25.959
12908;172651;34.52;737;03.24.25.959
12920;172664;34.52;738;03.24.25.970
12928;172658;34.52;739;03.24.25.970
12904;172656;34.52;740;03.24.25.970
12912;172652;34.52;741;03.24.25.970
12892;172661;34.52;742;03.24.25.970
12912;172658;34.52;743;03.24.25.970
12912;172657;34.52;744;03.24.25.970
12924;172664;34.52;745;03.24.25.970
12888;172664;34.52;746;03.24.25.970
12924;172666;34.52;747;03.24.25.970
12920;172670;34.52;748;03.24.25.981
12952;172667;34.52;749;03.24.25.981
12940;172666;34.52;750;03.24.26.069
12900;172665;34.52;751;03.24.26.069
12936;172668;34.52;752;03.24.26.080
12908;172679;34.52;753;03.24.26.080
12900;172666;34.52;754;03.24.26.080
12916;172667;34.52;755;03.24.26.080
12928;172659;34.52;756;03.24.26.080
12888;172660;34.52;757;03.24.26.080
12912;172664;34.52;758;03.24.26.080
12928;172662;34.52;759;03.24.26.080
12928;172664;34.52;760;03.24.26.091
12924;172661;34.52;761;03.24.26.091
12908;172658;34.52;762;03.24.26.091
12912;172654;34.52;763;03.24.26.091
12924;172666;34.52;764;03.24.26.091
12892;172659;34.52;765;03.24.26.091
12928;172667;34.52;766;03.24.26.091
12908;172667;34.52;767;03.24.26.102
12900;172666;34.52;768;03.24.26.102
12916;172660;34.52;769;03.24.26.113
12928;172658;34.52;770;03.24.26.113
12936;172658;34.52;771;03.24.26.113
12916;172659;34.52;772;03.24.26.113
12920;172670;34.52;773;03.24.26.113
12920;172669;34.52;774;03.24.26.113
12920;172661;34.52;775;03.24.26.201
12912;172664;34.52;776;03.24.26.201
12888;172667;34.52;777;03.24.26.201
12940;172665;34.52;778;03.24.26.201
12916;172671;34.52;779;03.24.26.201
12916;172662;34.52;780;03.24.26.201
12932;172672;34.52;781;03.24.26.201
12932;172669;34.52;782;03.24.26.201
12920;172667;34.52;783;03.24.26.201
12928;172670;34.52;784;03.24.26.201
12892;172673;34.52;785;03.24.26.201
12928;172674;34.52;786;03.24.26.212
12940;172671;34.52;787;03.24.26.212
12932;172674;34.52;788;03.24.26.212
12932;172673;34.52;789;03.24.26.212
12908;172677;34.52;790;03.24.26.212
12936;172671;34.52;791;03.24.26.212
12912;172678;34.52;792;03.24.26.212
12912;172677;34.52;793;03.24.26.212
12888;172675;34.52;794;03.24.26.212
12912;172682;34.52;795;03.24.26.212
12920;172682;34.52;796;03.24.26.212
12904;172684;34.52;797;03.24.26.212
12908;172685;34.52;798;03.24.26.212
12916;172682;34.52;799;03.24.26.212
12912;172685;34.52;800;03.24.26.332
12928;172685;34.52;801;03.24.26.332
12920;172687;34.52;802;03.24.26.332
12908;172684;34.52;803;03.24.26.332
12896;172678;34.52;804;03.24.26.332
12928;172687;34.52;805;03.24.26.332
12948;172687;34.52;806;03.24.26.332
12912;172684;34.52;807;03.24.26.343
12920;172678;34.52;808;03.24.26.343
12936;172686;34.52;809;03.24.26.343
12920;172674;34.52;810;03.24.26.343
12900;172680;34.52;811;03.24.26.343
12924;172695;34.52;812;03.24.26.343
12932;172690;34.52;813;03.24.26.343
12928;172689;34.52;814;03.24.26.343
12944;172698;34.52;815;03.24.26.343
12920;172697;34.52;816;03.24.26.343
12912;172698;34.52;817;03.24.26.343
12944;172702;34.52;818;03.24.26.343
12892;172705;34.52;819;03.24.26.343
12928;172698;34.52;820;03.24.26.354
12908;172706;34.52;821;03.24.26.354
12932;172713;34.52;822;03.24.26.354
12892;172706;34.52;823;03.24.26.354
12944;172706;34.52;824;03.24.26.354
12944;172710;34.52;825;03.24.26.464
12904;172711;34.52;826;03.24.26.475
12936;172701;34.52;827;03.24.26.475
12920;172715;34.52;828;03.24.26.475
12932;172706;34.52;829;03.24.26.475
12912;172717;34.52;830;03.24.26.475
12896;172715;34.52;831;03.24.26.475
12916;172704;34.52;832;03.24.26.475
12912;172705;34.52;833;03.24.26.475
12892;172713;34.52;834;03.24.26.475
12904;172708;34.52;835;03.24.26.475
12904;172703;34.52;836;03.24.26.475
12912;172714;34.52;837;03.24.26.475
12932;172712;34.52;838;03.24.26.475
12916;172718;34.52;839;03.24.26.475
12932;172713;34.52;840;03.24.26.475
12928;172714;34.52;841;03.24.26.486
12900;172718;34.52;842;03.24.26.486
12928;172716;34.52;843;03.24.26.486
12932;172726;34.52;844;03.24.26.486
12912;172720;34.52;845;03.24.26.486
12936;172724;34.52;846;03.24.26.486
12908;172727;34.52;847;03.24.26.486
12924;172729;34.52;848;03.24.26.486
12932;172724;34.52;849;03.24.26.486
12904;172725;34.52;850;03.24.26.584
12912;172720;34.52;851;03.24.26.584
12888;172720;34.52;852;03.24.26.584
12892;172723;34.52;853;03.24.26.584
12892;172724;34.52;854;03.24.26.584
12936;172729;34.52;855;03.24.26.584
12932;172732;34.52;856;03.24.26.584
12900;172734;34.52;857;03.24.26.584
12888;172719;34.52;858;03.24.26.594
12892;172728;34.52;859;03.24.26.594
12900;172731;34.52;860;03.24.26.594
12912;172746;34.52;861;03.24.26.594
12900;172740;34.52;862;03.24.26.594
12900;172735;34.52;863;03.24.26.594
12908;172738;34.52;864;03.24.26.594
12928;172742;34.52;865;03.24.26.594
12904;172739;34.52;866;03.24.26.594
12932;172726;34.52;867;03.24.26.594
12892;172724;34.52;868;03.24.26.594
12924;172721;34.52;869;03.24.26.605
12920;172709;34.52;870;03.24.26.605
12920;172717;34.52;871;03.24.26.605
12928;172712;34.52;872;03.24.26.605
12888;172706;34.52;873;03.24.26.605
12912;172702;34.52;874;03.24.26.605
12932;172698;34.52;875;03.24.26.704
12908;172697;34.52;876;03.24.26.704
12960;172689;34.52;877;03.24.26.704
12924;172681;34.52;878;03.24.26.704
12920;172675;34.52;879;03.24.26.704
12900;172681;34.52;880;03.24.26.704
12896;172669;34.52;881;03.24.26.704
12900;172663;34.52;882;03.24.26.704
12916;172658;34.52;883;03.24.26.715
12944;172659;34.52;884;03.24.26.715
12932;172662;34.52;885;03.24.26.715
12920;172653;34.52;886;03.24.26.715
12920;172655;34.52;887;03.24.26.715
12908;172645;34.52;888;03.24.26.715
12944;172645;34.52;889;03.24.26.715
12924;172645;34.52;890;03.24.26.715
12936;172647;34.52;891;03.24.26.715
12912;172645;34.52;892;03.24.26.715
12912;172646;34.52;893;03.24.26.715
12920;172642;34.52;894;03.24.26.715
12892;172638;34.52;895;03.24.26.726
12904;172637;34.52;896;03.24.26.726
12920;172634;34.52;897;03.24.26.726
12888;172639;34.52;898;03.24.26.726
12944;172642;34.52;899;03.24.26.726
12908;172645;34.48;900;03.24.26.824
12916;172636;34.48;901;03.24.26.824
12916;172648;34.48;902;03.24.26.824
12892;172640;34.48;903;03.24.26.824
12916;172646;34.48;904;03.24.26.835
12884;172645;34.48;905;03.24.26.835
12904;172643;34.48;906;03.24.26.835
12936;172654;34.48;907;03.24.26.835
12904;172641;34.48;908;03.24.26.835
12944;172649;34.48;909;03.24.26.835
12912;172650;34.48;910;03.24.26.835
12936;172649;34.48;911;03.24.26.835
12932;172648;34.48;912;03.24.26.835
12948;172641;34.48;913;03.24.26.835
12920;172639;34.48;914;03.24.26.835
12916;172644;34.48;915;03.24.26.835
12928;172643;34.48;916;03.24.26.835
12912;172641;34.48;917;03.24.26.846
12908;172648;34.48;918;03.24.26.846
12928;172653;34.48;919;03.24.26.846
12904;172645;34.48;920;03.24.26.846
12892;172649;34.48;921;03.24.26.846
12908;172656;34.48;922;03.24.26.846
12912;172640;34.48;923;03.24.26.846
12928;172658;34.48;924;03.24.26.846
12920;172646;34.48;925;03.24.26.957
12916;172646;34.48;926;03.24.26.967
12940;172648;34.48;927;03.24.26.967
12892;172653;34.48;928;03.24.26.967
12900;172653;34.48;929;03.24.26.967
12928;172649;34.48;930;03.24.26.967
12936;172645;34.48;931;03.24.26.967
12928;172653;34.48;932;03.24.26.967
12936;172656;34.48;933;03.24.26.967
12928;172659;34.48;934;03.24.26.967
12908;172653;34.48;935;03.24.26.967
12924;172658;34.48;936;03.24.26.967
12904;172655;34.48;937;03.24.26.967
12892;172651;34.48;938;03.24.26.978
12928;172652;34.48;939;03.24.26.978
12912;172645;34.48;940;03.24.26.978
12904;172647;34.48;941;03.24.26.978
12928;172657;34.48;942;03.24.26.978
12928;172652;34.48;943;03.24.26.978
12892;172655;34.48;944;03.24.26.978
12912;172651;34.48;945;03.24.26.978
12928;172643;34.48;946;03.24.26.978
12936;172651;34.48;947;03.24.26.978
12928;172643;34.48;948;03.24.26.978
12936;172650;34.48;949;03.24.26.978
12904;172647;34.56;950;03.24.27.077
12904;172651;34.56;951;03.24.27.077
12928;172650;34.56;952;03.24.27.077
12924;172652;34.56;953;03.24.27.077
12900;172654;34.56;954;03.24.27.077
12908;172652;34.56;955;03.24.27.077
12940;172650;34.56;956;03.24.27.077
12944;172652;34.56;957;03.24.27.077
12908;172649;34.56;958;03.24.27.088
12928;172660;34.56;959;03.24.27.088
12932;172651;34.56;960;03.24.27.088
12912;172658;34.56;961;03.24.27.088
12924;172660;34.56;962;03.24.27.088
12908;172660;34.56;963;03.24.27.088
12892;172657;34.56;964;03.24.27.088
12908;172650;34.56;965;03.24.27.088
12904;172655;34.56;966;03.24.27.088
12900;172649;34.56;967;03.24.27.099
12916;172662;34.56;968;03.24.27.099
12932;172665;34.56;969;03.24.27.099
12916;172663;34.56;970;03.24.27.099
12936;172669;34.56;971;03.24.27.099
12928;172668;34.56;972;03.24.27.099
12916;172670;34.56;973;03.24.27.099
12912;172673;34.56;974;03.24.27.099
12936;172670;34.56;975;03.24.27.197
12944;172671;34.56;976;03.24.27.197
12920;172682;34.56;977;03.24.27.197
12928;172683;34.56;978;03.24.27.197
12896;172673;34.56;979;03.24.27.197
12936;172678;34.56;980;03.24.27.197
12912;172680;34.56;981;03.24.27.208
12932;172672;34.56;982;03.24.27.208
12920;172676;34.56;983;03.24.27.208
12900;172678;34.56;984;03.24.27.208
12900;172675;34.56;985;03.24.27.208
12916;172680;34.56;986;03.24.27.208
12912;172679;34.56;987;03.24.27.208
12928;172683;34.56;988;03.24.27.208
12912;172690;34.56;989;03.24.27.208
12904;172692;34.56;990;03.24.27.208
12912;172690;34.56;991;03.24.27.208
12912;172690;34.56;992;03.24.27.208
12928;172693;34.56;993;03.24.27.219
12904;172695;34.56;994;03.24.27.219
12940;172694;34.56;995;03.24.27.219
12896;172696;34.56;996;03.24.27.219
12928;172693;34.56;997;03.24.27.219
12892;172702;34.56;998;03.24.27.219
12924;172694;34.56;999;03.24.27.219
12900;172695;34.52;000;03.24.27.317
12896;172703;34.52;001;03.24.27.328
12908;172702;34.52;002;03.24.27.328
12888;172700;34.52;003;03.24.27.328
12908;172697;34.52;004;03.24.27.328
12920;172700;34.52;005;03.24.27.328
12924;172700;34.52;006;03.24.27.328
12928;172698;34.52;007;03.24.27.328
12932;172700;34.52;008;03.24.27.328
12912;172709;34.52;009;03.24.27.328
12896;172701;34.52;010;03.24.27.328
12924;172704;34.52;011;03.24.27.328
12916;172701;34.52;012;03.24.27.328
12912;172702;34.52;013;03.24.27.328
12904;172702;34.52;014;03.24.27.339
12912;172699;34.52;015;03.24.27.339
12912;172712;34.52;016;03.24.27.339
12896;172706;34.52;017;03.24.27.339
12944;172701;34.52;018;03.24.27.339
12884;172708;34.52;019;03.24.27.339
12916;172715;34.52;020;03.24.27.339
12928;172706;34.52;021;03.24.27.339
12916;172712;34.52;022;03.24.27.339
12940;172709;34.52;023;03.24.27.339
12968;172713;34.52;024;03.24.27.339
12916;172711;34.52;025;03.24.27.470
12928;172713;34.52;026;03.24.27.470
12936;172710;34.52;027;03.24.27.470
12936;172710;34.52;028;03.24.27.470
12904;172713;34.52;029;03.24.27.470
12928;172724;34.52;030;03.24.27.470
12916;172715;34.52;031;03.24.27.470
12908;172719;34.52;032;03.24.27.470
12900;172712;34.52;033;03.24.27.470
12916;172722;34.52;034;03.24.27.470
12884;172720;34.52;035;03.24.27.481
12916;172720;34.52;036;03.24.27.481
12928;172723;34.52;037;03.24.27.481
12908;172725;34.52;038;03.24.27.481
12892;172724;34.52;039;03.24.27.481
12924;172726;34.52;040;03.24.27.481
12920;172719;34.52;041;03.24.27.481
12928;172723;34.52;042;03.24.27.481
12920;172724;34.52;043;03.24.27.481
12944;172722;34.52;044;03.24.27.481
12916;172720;34.52;045;03.24.27.481
12908;172710;34.52;046;03.24.27.481
12908;172709;34.52;047;03.24.27.481
12936;172703;34.52;048;03.24.27.481
12940;172703;34.52;049;03.24.27.492
12936;172692;34.52;050;03.24.27.579
12908;172688;34.52;051;03.24.27.579
12920;172688;34.52;052;03.24.27.579
12908;172685;34.52;053;03.24.27.590
12908;172676;34.52;054;03.24.27.590
12936;172677;34.52;055;03.24.27.590
12892;172681;34.52;056;03.24.27.590
12920;172667;34.52;057;03.24.27.590
12892;172660;34.52;058;03.24.27.590
12916;172657;34.52;059;03.24.27.590
12924;172658;34.52;060;03.24.27.590
12928;172656;34.52;061;03.24.27.590
12936;172658;34.52;062;03.24.27.590
12912;172652;34.52;063;03.24.27.590
12936;172640;34.52;064;03.24.27.590
12912;172648;34.52;065;03.24.27.590
12908;172650;34.52;066;03.24.27.601
12912;172650;34.52;067;03.24.27.601
12900;172650;34.52;068;03.24.27.601
12904;172646;34.52;069;03.24.27.601
12944;172643;34.52;070;03.24.27.601
12920;172644;34.52;071;03.24.27.601
12908;172644;34.52;072;03.24.27.601
12900;172651;34.52;073;03.24.27.601
12928;172649;34.52;074;03.24.27.601
12924;172646;34.52;075;03.24.27.723
12928;172644;34.52;076;03.24.27.723
12928;172639;34.52;077;03.24.27.723
12904;172640;34.52;078;03.24.27.723
12916;172638;34.52;079;03.24.27.723
12928;172644;34.52;080;03.24.27.723
12928;172637;34.52;081;03.24.27.723
12904;172637;34.52;082;03.24.27.723
12924;172634;34.52;083;03.24.27.734
12904;172636;34.52;084;03.24.27.734
12912;172648;34.52;085;03.24.27.734
12912;172641;34.52;086;03.24.27.745
12904;172636;34.52;087;03.24.27.745
12932;172644;34.52;088;03.24.27.745
12928;172642;34.52;089;03.24.27.745
12892;172641;34.52;090;03.24.27.745
12892;172638;34.52;091;03.24.27.745
12924;172642;34.52;092;03.24.27.745
12900;172640;34.52;093;03.24.27.745
12912;172640;34.52;094;03.24.27.745
12928;172643;34.52;095;03.24.27.745
12904;172636;34.52;096;03.24.27.745
12928;172638;34.52;097;03.24.27.745
12900;172639;34.52;098;03.24.27.745
12944;172634;34.52;099;03.24.27.755
12928;172638;34.52;100;03.24.27.832
12908;172640;34.52;101;03.24.27.832
12888;172632;34.52;102;03.24.27.832
12912;172644;34.52;103;03.24.27.832
12924;172641;34.52;104;03.24.27.832
12912;172641;34.52;105;03.24.27.832
12928;172636;34.52;106;03.24.27.832
12944;172643;34.52;107;03.24.27.832
12916;172648;34.52;108;03.24.27.832
12900;172646;34.52;109;03.24.27.832
12924;172634;34.52;110;03.24.27.832
12908;172639;34.52;111;03.24.27.843
12920;172645;34.52;112;03.24.27.843
12892;172644;34.52;113;03.24.27.843
12912;172642;34.52;114;03.24.27.843
12924;172645;34.52;115;03.24.27.843
12960;172639;34.52;116;03.24.27.843
12908;172644;34.52;117;03.24.27.865
12928;172638;34.52;118;03.24.27.865
12900;172645;34.52;119;03.24.27.865
12960;172637;34.52;120;03.24.27.865
12912;172637;34.52;121;03.24.27.865
12916;172643;34.52;122;03.24.27.865
12924;172644;34.52;123;03.24.27.865
12916;172641;34.52;124;03.24.27.865
12920;172639;34.52;125;03.24.27.965
12904;172650;34.52;126;03.24.27.965
12936;172641;34.52;127;03.24.27.965
12932;172646;34.52;128;03.24.27.965
12904;172642;34.52;129;03.24.27.965
12932;172640;34.52;130;03.24.27.965
12916;172642;34.52;131;03.24.27.965
12916;172647;34.52;132;03.24.27.965
12912;172642;34.52;133;03.24.27.965
12932;172646;34.52;134;03.24.27.976
12936;172645;34.52;135;03.24.27.976
12916;172646;34.52;136;03.24.27.976
12916;172653;34.52;137;03.24.27.976
12904;172642;34.52;138;03.24.27.976
12896;172637;34.52;139;03.24.27.976
12928;172644;34.52;140;03.24.27.976
12904;172643;34.52;141;03.24.27.976
12932;172647;34.52;142;03.24.27.976
12912;172646;34.52;143;03.24.27.976
12912;172649;34.52;144;03.24.27.976
12908;172640;34.52;145;03.24.27.976
12908;172652;34.52;146;03.24.27.976
12928;172643;34.52;147;03.24.27.987
12924;172657;34.52;148;03.24.27.987
12948;172647;34.52;149;03.24.27.987
12924;172651;34.52;150;03.24.28.097
12908;172648;34.52;151;03.24.28.097
12952;172655;34.52;152;03.24.28.097
12912;172653;34.52;153;03.24.28.097
12928;172665;34.52;154;03.24.28.097
12916;172664;34.52;155;03.24.28.108
12908;172664;34.52;156;03.24.28.108
12912;172659;34.52;157;03.24.28.108
12896;172663;34.52;158;03.24.28.108
12936;172671;34.52;159;03.24.28.108
12928;172663;34.52;160;03.24.28.108
12928;172669;34.52;161;03.24.28.108
12936;172664;34.52;162;03.24.28.108
12932;172674;34.52;163;03.24.28.108
12888;172670;34.52;164;03.24.28.108
12944;172676;34.52;165;03.24.28.119
12908;172672;34.52;166;03.24.28.119
12928;172673;34.52;167;03.24.28.119
12932;172671;34.52;168;03.24.28.119
12920;172671;34.52;169;03.24.28.119
12944;172684;34.52;170;03.24.28.119
12940;172677;34.52;171;03.24.28.119
12944;172673;34.52;172;03.24.28.119
12924;172690;34.52;173;03.24.28.119
12940;172688;34.52;174;03.24.28.119
12916;172686;34.52;175;03.24.28.195
12916;172693;34.52;176;03.24.28.195
12920;172694;34.52;177;03.24.28.206
12904;172695;34.52;178;03.24.28.206
12892;172695;34.52;179;03.24.28.206
12944;172696;34.52;180;03.24.28.206
12912;172698;34.52;181;03.24.28.206
12908;172692;34.52;182;03.24.28.206
12920;172699;34.52;183;03.24.28.206
12908;172696;34.52;184;03.24.28.206
12912;172701;34.52;185;03.24.28.217
12892;172695;34.52;186;03.24.28.217
12916;172696;34.52;187;03.24.28.217
12928;172705;34.52;188;03.24.28.217
12908;172699;34.52;189;03.24.28.217
12924;172706;34.52;190;03.24.28.217
12920;172707;34.52;191;03.24.28.217
12920;172702;34.52;192;03.24.28.228
12944;172699;34.52;193;03.24.28.228
12916;172699;34.52;194;03.24.28.239
12924;172708;34.52;195;03.24.28.239
12908;172707;34.52;196;03.24.28.239
12924;172698;34.52;197;03.24.28.239
12908;172703;34.52;198;03.24.28.239
12916;172705;34.52;199;03.24.28.239
12904;172705;34.52;200;03.24.28.327
12928;172710;34.52;201;03.24.28.327
12904;172706;34.52;202;03.24.28.327
12936;172715;34.52;203;03.24.28.327
12908;172708;34.52;204;03.24.28.327
12908;172712;34.52;205;03.24.28.327
12920;172705;34.52;206;03.24.28.327
12892;172708;34.52;207;03.24.28.327
12928;172716;34.52;208;03.24.28.338
12920;172716;34.52;209;03.24.28.338
12908;172718;34.52;210;03.24.28.338
12948;172730;34.52;211;03.24.28.338
12892;172721;34.52;212;03.24.28.338
12924;172717;34.52;213;03.24.28.338
12908;172721;34.52;214;03.24.28.338
12920;172721;34.52;215;03.24.28.338
12976;172721;34.52;216;03.24.28.338
12912;172718;34.52;217;03.24.28.338
12916;172719;34.52;218;03.24.28.338
12900;172719;34.52;219;03.24.28.338
12908;172718;34.52;220;03.24.28.349
12940;172715;34.52;221;03.24.28.349
12924;172716;34.52;222;03.24.28.349
12888;172709;34.52;223;03.24.28.349
12952;172709;34.52;224;03.24.28.349
12884;172704;34.52;225;03.24.28.458
12904;172697;34.52;226;03.24.28.458
12892;172691;34.52;227;03.24.28.458
12940;172691;34.52;228;03.24.28.458
12908;172683;34.52;229;03.24.28.458
12896;172686;34.52;230;03.24.28.458
12920;172676;34.52;231;03.24.28.458
12916;172671;34.52;232;03.24.28.469
12912;172671;34.52;233;03.24.28.469
12920;172660;34.52;234;03.24.28.469
12908;172662;34.52;235;03.24.28.469
12924;172660;34.52;236;03.24.28.469
12928;172660;34.52;237;03.24.28.469
12908;172651;34.52;238;03.24.28.469
12924;172655;34.52;239;03.24.28.469
12936;172654;34.52;240;03.24.28.469
12916;172641;34.52;241;03.24.28.469
12900;172649;34.52;242;03.24.28.480
12920;172644;34.52;243;03.24.28.480
12920;172642;34.52;244;03.24.28.480
12892;172644;34.52;245;03.24.28.480
12920;172646;34.52;246;03.24.28.491
12904;172649;34.52;247;03.24.28.491
12944;172640;34.52;248;03.24.28.491
12928;172638;34.52;249;03.24.28.491
12920;172644;34.52;250;03.24.28.589
12892;172646;34.52;251;03.24.28.589
12920;172643;34.52;252;03.24.28.600
12904;172648;34.52;253;03.24.28.600
12944;172637;34.52;254;03.24.28.600
12944;172639;34.52;255;03.24.28.600
12900;172631;34.52;256;03.24.28.600
12904;172634;34.52;257;03.24.28.600
12904;172639;34.52;258;03.24.28.600
12944;172633;34.52;259;03.24.28.600
12920;172630;34.52;260;03.24.28.600
12912;172639;34.52;261;03.24.28.600
12892;172634;34.52;262;03.24.28.600
12896;172632;34.52;263;03.24.28.600
12908;172634;34.52;264;03.24.28.600
12924;172642;34.52;265;03.24.28.611
12952;172648;34.52;266;03.24.28.611
12916;172643;34.52;267;03.24.28.611
12928;172640;34.52;268;03.24.28.611
12908;172648;34.52;269;03.24.28.611
12924;172647;34.52;270;03.24.28.611
12960;172644;34.52;271;03.24.28.611
12904;172646;34.52;272;03.24.28.611
12892;172646;34.52;273;03.24.28.611
12940;172642;34.52;274;03.24.28.611
12928;172644;34.52;275;03.24.28.732
12928;172643;34.52;276;03.24.28.732
12932;172644;34.52;277;03.24.28.732
12960;172637;34.52;278;03.24.28.732
12924;172657;34.52;279;03.24.28.732
12924;172651;34.52;280;03.24.28.732
12936;172644;34.52;281;03.24.28.732
12904;172651;34.52;282;03.24.28.732
12944;172648;34.52;283;03.24.28.743
12944;172648;34.52;284;03.24.28.743
12932;172657;34.52;285;03.24.28.743
12896;172653;34.52;286;03.24.28.743
12944;172649;34.52;287;03.24.28.743
12892;172644;34.52;288;03.24.28.743
12944;172648;34.52;289;03.24.28.743
12952;172649;34.52;290;03.24.28.743
12904;172641;34.52;291;03.24.28.743
12928;172646;34.52;292;03.24.28.743
12916;172647;34.52;293;03.24.28.743
12928;172649;34.52;294;03.24.28.743
12928;172650;34.52;295;03.24.28.753
12944;172643;34.52;296;03.24.28.753
12904;172642;34.52;297;03.24.28.753
12912;172633;34.52;298;03.24.28.753
12944;172647;34.52;299;03.24.28.753
12908;172645;34.52;300;03.24.28.830
12944;172648;34.52;301;03.24.28.830
12944;172643;34.52;302;03.24.28.830
12916;172649;34.52;303;03.24.28.830
12932;172643;34.52;304;03.24.28.830
12928;172653;34.52;305;03.24.28.830
12912;172654;34.52;306;03.24.28.830
12916;172654;34.52;307;03.24.28.842
12916;172652;34.52;308;03.24.28.842
12912;172651;34.52;309;03.24.28.842
12924;172656;34.52;310;03.24.28.842
12900;172654;34.52;311;03.24.28.842
12932;172653;34.52;312;03.24.28.842
12924;172659;34.52;313;03.24.28.842
12908;172661;34.52;314;03.24.28.842
12904;172656;34.52;315;03.24.28.842
12924;172661;34.52;316;03.24.28.842
12920;172662;34.52;317;03.24.28.864
12928;172669;34.52;318;03.24.28.864
12924;172677;34.52;319;03.24.28.864
12912;172672;34.52;320;03.24.28.864
12892;172669;34.52;321;03.24.28.864
12936;172671;34.52;322;03.24.28.864
12928;172669;34.52;323;03.24.28.864
12916;172672;34.52;324;03.24.28.864
12916;172675;34.52;325;03.24.28.952
12912;172675;34.52;326;03.24.28.952
12908;172669;34.52;327;03.24.28.952
12908;172675;34.52;328;03.24.28.952
12924;172678;34.52;329;03.24.28.952
12900;172674;34.52;330;03.24.28.963
12912;172687;34.52;331;03.24.28.963
12928;172680;34.52;332;03.24.28.963
12916;172689;34.52;333;03.24.28.963
12936;172679;34.52;334;03.24.28.963
12912;172684;34.52;335;03.24.28.963
12900;172687;34.52;336;03.24.28.963
12928;172690;34.52;337;03.24.28.963
12896;172692;34.52;338;03.24.28.963
12928;172687;34.52;339;03.24.28.963
12904;172685;34.52;340;03.24.28.963
12920;172692;34.52;341;03.24.28.963
12944;172698;34.52;342;03.24.28.963
12932;172697;34.52;343;03.24.28.974
12892;172703;34.52;344;03.24.28.974
12900;172703;34.52;345;03.24.28.974
12896;172700;34.52;346;03.24.28.974
12920;172700;34.52;347;03.24.28.974
12928;172710;34.52;348;03.24.28.974
12932;172709;34.52;349;03.24.28.974
12900;172697;34.52;350;03.24.29.083
12944;172707;34.52;351;03.24.29.094
12928;172707;34.52;352;03.24.29.094
12936;172699;34.52;353;03.24.29.094
12908;172700;34.52;354;03.24.29.094
12920;172704;34.52;355;03.24.29.094
12944;172706;34.52;356;03.24.29.094
12928;172702;34.52;357;03.24.29.094
12940;172701;34.52;358;03.24.29.094
12912;172701;34.52;359;03.24.29.094
12928;172704;34.52;360;03.24.29.094
12912;172714;34.52;361;03.24.29.094
12916;172710;34.52;362;03.24.29.094
12932;172714;34.52;363;03.24.29.094
12928;172713;34.52;364;03.24.29.105
12924;172713;34.52;365;03.24.29.105
12924;172713;34.52;366;03.24.29.105
12916;172718;34.52;367;03.24.29.105
12924;172714;34.52;368;03.24.29.105
12932;172717;34.52;369;03.24.29.105
12916;172727;34.52;370;03.24.29.105
12916;172722;34.52;371;03.24.29.105
12936;172727;34.52;372;03.24.29.105
12916;172731;34.52;373;03.24.29.105
12920;172732;34.52;374;03.24.29.116
12916;172730;34.52;375;03.24.29.202
12936;172734;34.52;376;03.24.29.202
12916;172722;34.52;377;03.24.29.202
12944;172730;34.52;378;03.24.29.202
12936;172731;34.52;379;03.24.29.202
12932;172735;34.52;380;03.24.29.202
12900;172739;34.52;381;03.24.29.202
12928;172741;34.52;382;03.24.29.202
12936;172749;34.52;383;03.24.29.224
12920;172738;34.52;384;03.24.29.224
12924;172735;34.52;385;03.24.29.224
12952;172736;34.52;386;03.24.29.224
12912;172748;34.52;387;03.24.29.224
12920;172740;34.52;388;03.24.29.224
12908;172742;34.52;389;03.24.29.224
12916;172739;34.52;390;03.24.29.224
12928;172744;34.52;391;03.24.29.224
12920;172737;34.52;392;03.24.29.235
12928;172736;34.52;393;03.24.29.235
12928;172726;34.52;394;03.24.29.235
12948;172733;34.52;395;03.24.29.235
12892;172725;34.52;396;03.24.29.235
12900;172705;34.52;397;03.24.29.235
12928;172710;34.52;398;03.24.29.235
12944;172705;34.52;399;03.24.29.235
12912;172704;34.52;400;03.24.29.334
12916;172700;34.52;401;03.24.29.334
12932;172706;34.52;402;03.24.29.334
12928;172701;34.52;403;03.24.29.334
12952;172687;34.52;404;03.24.29.334
12904;172694;34.52;405;03.24.29.345
12924;172677;34.52;406;03.24.29.345
12924;172688;34.52;407;03.24.29.345
12944;172681;34.52;408;03.24.29.345
12944;172684;34.52;409;03.24.29.345
12924;172684;34.52;410;03.24.29.345
12936;172673;34.52;411;03.24.29.345
12944;172681;34.52;412;03.24.29.345
12912;172673;34.52;413;03.24.29.345
12936;172666;34.52;414;03.24.29.345
12908;172670;34.52;415;03.24.29.345
12936;172674;34.52;416;03.24.29.345
12920;172656;34.52;417;03.24.29.357
12932;172663;34.52;418;03.24.29.357
12936;172668;34.52;419;03.24.29.357
12928;172665;34.52;420;03.24.29.357
12916;172669;34.52;421;03.24.29.357
12928;172657;34.52;422;03.24.29.357
12928;172669;34.52;423;03.24.29.357
12944;172661;34.52;424;03.24.29.368
12892;172660;34.52;425;03.24.29.445
12900;172664;34.52;426;03.24.29.445
12936;172663;34.52;427;03.24.29.445
12916;172660;34.52;428;03.24.29.456
12920;172662;34.52;429;03.24.29.456
12896;172665;34.52;430;03.24.29.456
12928;172656;34.52;431;03.24.29.456
12944;172658;34.52;432;03.24.29.456
12900;172659;34.52;433;03.24.29.456
12924;172654;34.52;434;03.24.29.456
12908;172655;34.52;435;03.24.29.456
12932;172657;34.52;436;03.24.29.456
12928;172668;34.52;437;03.24.29.456
12916;172663;34.52;438;03.24.29.456
12928;172661;34.52;439;03.24.29.456
12916;172665;34.52;440;03.24.29.467
12944;172664;34.52;441;03.24.29.467
12928;172668;34.52;442;03.24.29.467
12920;172664;34.52;443;03.24.29.467
12944;172660;34.52;444;03.24.29.467
12928;172664;34.52;445;03.24.29.467
12912;172664;34.52;446;03.24.29.467
12920;172670;34.52;447;03.24.29.467
12936;172662;34.52;448;03.24.29.467
12936;172669;34.52;449;03.24.29.467
12928;172662;34.52;450;03.24.29.587
12916;172661;34.52;451;03.24.29.587
12928;172662;34.52;452;03.24.29.587
12916;172665;34.52;453;03.24.29.587
12928;172661;34.52;454;03.24.29.587
12940;172661;34.52;455;03.24.29.587
12920;172666;34.52;456;03.24.29.587
12916;172652;34.52;457;03.24.29.587
12936;172662;34.52;458;03.24.29.587
12928;172661;34.52;459;03.24.29.587
12912;172663;34.52;460;03.24.29.587
12932;172656;34.52;461;03.24.29.587
12892;172662;34.52;462;03.24.29.598
12932;172660;34.52;463;03.24.29.598
12860;172661;34.52;464;03.24.29.598
12912;172654;34.52;465;03.24.29.598
12912;172662;34.52;466;03.24.29.598
12892;172661;34.52;467;03.24.29.598
12912;172662;34.52;468;03.24.29.598
12892;172657;34.52;469;03.24.29.598
12908;172657;34.52;470;03.24.29.598
12928;172665;34.52;471;03.24.29.598
12940;172654;34.52;472;03.24.29.598
12916;172659;34.52;473;03.24.29.598
12924;172664;34.52;474;03.24.29.609
12896;172664;34.52;475;03.24.29.720
12932;172663;34.52;476;03.24.29.720
12892;172660;34.52;477;03.24.29.720
12928;172663;34.52;478;03.24.29.720
12924;172662;34.52;479;03.24.29.720
12920;172661;34.52;480;03.24.29.720
12912;172658;34.52;481;03.24.29.720
12928;172667;34.52;482;03.24.29.720
12928;172667;34.52;483;03.24.29.720
12932;172666;34.52;484;03.24.29.731
12920;172666;34.52;485;03.24.29.731
12924;172663;34.52;486;03.24.29.731
12924;172669;34.52;487;03.24.29.731
12904;172676;34.52;488;03.24.29.731
12904;172667;34.52;489;03.24.29.731
12920;172677;34.52;490;03.24.29.731
12900;172678;34.52;491;03.24.29.731
12924;172675;34.52;492;03.24.29.731
12924;172681;34.52;493;03.24.29.731
12924;172680;34.52;494;03.24.29.731
12920;172678;34.52;495;03.24.29.731
12944;172677;34.52;496;03.24.29.731
12932;172678;34.52;497;03.24.29.742
12936;172671;34.52;498;03.24.29.742
12944;172675;34.52;499;03.24.29.742
12908;172672;34.52;500;03.24.29.830
12888;172681;34.52;501;03.24.29.830
12912;172688;34.52;502;03.24.29.830
12944;172684;34.52;503;03.24.29.830
12920;172691;34.52;504;03.24.29.830
12944;172693;34.52;505;03.24.29.830
12932;172688;34.52;506;03.24.29.841
12944;172680;34.52;507;03.24.29.841
12928;172681;34.52;508;03.24.29.841
12940;172691;34.52;509;03.24.29.841
12908;172696;34.52;510;03.24.29.841
12928;172699;34.52;511;03.24.29.841
12916;172695;34.52;512;03.24.29.841
12936;172693;34.52;513;03.24.29.852
12932;172704;34.52;514;03.24.29.852
12952;172700;34.52;515;03.24.29.852
12924;172697;34.52;516;03.24.29.852
12928;172696;34.52;517;03.24.29.852
12904;172700;34.52;518;03.24.29.852
12928;172696;34.52;519;03.24.29.852
12920;172700;34.52;520;03.24.29.852
12940;172693;34.52;521;03.24.29.852
12916;172686;34.52;522;03.24.29.852
12904;172700;34.52;523;03.24.29.852
12912;172707;34.52;524;03.24.29.863
12892;172705;34.52;525;03.24.29.950
12892;172701;34.52;526;03.24.29.961
12928;172705;34.52;527;03.24.29.961
12924;172701;34.52;528;03.24.29.961
12916;172706;34.52;529;03.24.29.961
12916;172709;34.52;530;03.24.29.961
12940;172701;34.52;531;03.24.29.961
12920;172709;34.52;532;03.24.29.961
12912;172700;34.52;533;03.24.29.961
12916;172702;34.52;534;03.24.29.961
12920;172709;34.52;535;03.24.29.961
12928;172707;34.52;536;03.24.29.961
12928;172702;34.52;537;03.24.29.961
12936;172699;34.52;538;03.24.29.961
12936;172707;34.52;539;03.24.29.961
12912;172713;34.52;540;03.24.29.972
12908;172708;34.52;541;03.24.29.972
12900;172715;34.52;542;03.24.29.972
12904;172715;34.52;543;03.24.29.972
12924;172721;34.52;544;03.24.29.972
12928;172716;34.52;545;03.24.29.972
12944;172713;34.52;546;03.24.29.972
12932;172714;34.52;547;03.24.29.972
12960;172719;34.52;548;03.24.29.972
12932;172720;34.52;549;03.24.29.972
12948;172714;34.52;550;03.24.30.082
12916;172726;34.52;551;03.24.30.082
12908;172712;34.52;552;03.24.30.082
12908;172720;34.52;553;03.24.30.082
12904;172721;34.52;554;03.24.30.082
12928;172716;34.52;555;03.24.30.082
12916;172724;34.52;556;03.24.30.082
12912;172720;34.52;557;03.24.30.082
12892;172729;34.52;558;03.24.30.082
12892;172720;34.52;559;03.24.30.082
12892;172727;34.52;560;03.24.30.082
12912;172729;34.52;561;03.24.30.082
12920;172727;34.52;562;03.24.30.093
12928;172717;34.52;563;03.24.30.093
12892;172715;34.52;564;03.24.30.093
12888;172706;34.52;565;03.24.30.093
12908;172702;34.52;566;03.24.30.093
12924;172700;34.52;567;03.24.30.093
12904;172695;34.52;568;03.24.30.093
12896;172698;34.52;569;03.24.30.093
12896;172688;34.52;570;03.24.30.093
12908;172692;34.52;571;03.24.30.093
12884;172684;34.52;572;03.24.30.093
12904;172674;34.52;573;03.24.30.093
12936;172665;34.52;574;03.24.30.104
12936;172668;34.52;575;03.24.30.213
12916;172675;34.52;576;03.24.30.213
12912;172665;34.52;577;03.24.30.213
12920;172657;34.52;578;03.24.30.213
12928;172656;34.52;579;03.24.30.213
12932;172650;34.52;580;03.24.30.213
12928;172649;34.52;581;03.24.30.213
12896;172647;34.52;582;03.24.30.224
12924;172650;34.52;583;03.24.30.224
12892;172642;34.52;584;03.24.30.224
12916;172650;34.52;585;03.24.30.224
12924;172645;34.52;586;03.24.30.224
12876;172634;34.52;587;03.24.30.224
12904;172643;34.52;588;03.24.30.224
12892;172650;34.52;589;03.24.30.224
12924;172645;34.52;590;03.24.30.224
12952;172634;34.52;591;03.24.30.224
12892;172632;34.52;592;03.24.30.224
12924;172635;34.52;593;03.24.30.224
12920;172637;34.52;594;03.24.30.224
12916;172637;34.52;595;03.24.30.235
12928;172628;34.52;596;03.24.30.235
12892;172635;34.52;597;03.24.30.235
12928;172637;34.52;598;03.24.30.235
12948;172633;34.52;599;03.24.30.235
12912;172637;34.52;600;03.24.30.322
12928;172630;34.52;601;03.24.30.322
12892;172625;34.52;602;03.24.30.322
12908;172625;34.52;603;03.24.30.323
12888;172630;34.52;604;03.24.30.334
12908;172631;34.52;605;03.24.30.334
12892;172638;34.52;606;03.24.30.334
12900;172632;34.52;607;03.24.30.334
12904;172632;34.52;608;03.24.30.334
12932;172621;34.52;609;03.24.30.334
12892;172632;34.52;610;03.24.30.334
12928;172633;34.52;611;03.24.30.345
12916;172625;34.52;612;03.24.30.345
12916;172630;34.52;613;03.24.30.345
12920;172626;34.52;614;03.24.30.345
12924;172626;34.52;615;03.24.30.345
12920;172621;34.52;616;03.24.30.345
12912;172624;34.52;617;03.24.30.345
12904;172623;34.52;618;03.24.30.345
12936;172632;34.52;619;03.24.30.345
12916;172619;34.52;620;03.24.30.345
12920;172631;34.52;621;03.24.30.356
12940;172629;34.52;622;03.24.30.356
12928;172620;34.52;623;03.24.30.356
12924;172623;34.52;624;03.24.30.356
12896;172621;34.52;625;03.24.30.454
12920;172632;34.52;626;03.24.30.454
12908;172619;34.52;627;03.24.30.454
12944;172618;34.52;628;03.24.30.454
12908;172625;34.52;629;03.24.30.454
12916;172615;34.52;630;03.24.30.454
12924;172609;34.52;631;03.24.30.454
12936;172622;34.52;632;03.24.30.454
12928;172621;34.52;633;03.24.30.454
12912;172629;34.52;634;03.24.30.466
12916;172625;34.52;635;03.24.30.466
12928;172615;34.52;636;03.24.30.466
12880;172619;34.52;637;03.24.30.466
12916;172620;34.52;638;03.24.30.466
12896;172622;34.52;639;03.24.30.466
12944;172614;34.52;640;03.24.30.466
12924;172619;34.52;641;03.24.30.466
12920;172621;34.52;642;03.24.30.488
12920;172610;34.52;643;03.24.30.488
12936;172618;34.52;644;03.24.30.488
12900;172622;34.52;645;03.24.30.488
12892;172614;34.52;646;03.24.30.488
12916;172619;34.52;647;03.24.30.488
12928;172618;34.52;648;03.24.30.488
12924;172619;34.52;649;03.24.30.488
12916;172616;34.52;650;03.24.30.576
12908;172618;34.52;651;03.24.30.576
12924;172610;34.52;652;03.24.30.576
12920;172621;34.52;653;03.24.30.576
12932;172627;34.52;654;03.24.30.576
12908;172628;34.52;655;03.24.30.576
12928;172627;34.52;656;03.24.30.576
12904;172623;34.52;657;03.24.30.576
12876;172622;34.52;658;03.24.30.576
12912;172629;34.52;659;03.24.30.576
12944;172628;34.52;660;03.24.30.587
12928;172625;34.52;661;03.24.30.587
12932;172627;34.52;662;03.24.30.587
12924;172628;34.52;663;03.24.30.587
12916;172628;34.52;664;03.24.30.587
12916;172629;34.52;665;03.24.30.587
12924;172623;34.52;666;03.24.30.587
12920;172627;34.52;667;03.24.30.587
12928;172625;34.52;668;03.24.30.587
12896;172621;34.52;669;03.24.30.587
12932;172624;34.52;670;03.24.30.587
12920;172628;34.52;671;03.24.30.587
12900;172629;34.52;672;03.24.30.587
12904;172626;34.52;673;03.24.30.588
12888;172627;34.52;674;03.24.30.599
12916;172630;34.52;675;03.24.30.708
12892;172637;34.52;676;03.24.30.708
12928;172625;34.52;677;03.24.30.708
12936;172627;34.52;678;03.24.30.708
12900;172637;34.52;679;03.24.30.708
12908;172639;34.52;680;03.24.30.708
12924;172634;34.52;681;03.24.30.708
12892;172637;34.52;682;03.24.30.719
12892;172647;34.52;683;03.24.30.719
12920;172639;34.52;684;03.24.30.719
12960;172639;34.52;685;03.24.30.719
12896;172637;34.52;686;03.24.30.719
12916;172647;34.52;687;03.24.30.719
12912;172643;34.52;688;03.24.30.719
12912;172648;34.52;689;03.24.30.730
12888;172641;34.52;690;03.24.30.730
12920;172645;34.52;691;03.24.30.730
12912;172642;34.52;692;03.24.30.730
12908;172649;34.52;693;03.24.30.730
12892;172646;34.52;694;03.24.30.730
12912;172649;34.52;695;03.24.30.730
12908;172659;34.52;696;03.24.30.730
12928;172653;34.52;697;03.24.30.730
12940;172653;34.52;698;03.24.30.730
12920;172652;34.52;699;03.24.30.741
12892;172656;34.52;700;03.24.30.839
12920;172654;34.52;701;03.24.30.839
12920;172659;34.52;702;03.24.30.839
12932;172662;34.52;703;03.24.30.850
12936;172658;34.52;704;03.24.30.850
12928;172665;34.52;705;03.24.30.850
12932;172647;34.52;706;03.24.30.850
12892;172658;34.52;707;03.24.30.850
12908;172658;34.52;708;03.24.30.850
12908;172653;34.52;709;03.24.30.850
12904;172653;34.52;710;03.24.30.850
12928;172656;34.52;711;03.24.30.850
12920;172652;34.52;712;03.24.30.850
12928;172661;34.52;713;03.24.30.850
12916;172663;34.52;714;03.24.30.850
12916;172659;34.52;715;03.24.30.850
12896;172668;34.52;716;03.24.30.861
12936;172671;34.52;717;03.24.30.861
12936;172677;34.52;718;03.24.30.861
12916;172670;34.52;719;03.24.30.861
12904;172672;34.52;720;03.24.30.861
12928;172679;34.52;721;03.24.30.861
12904;172673;34.52;722;03.24.30.861
12916;172672;34.52;723;03.24.30.861
12908;172667;34.52;724;03.24.30.861
12892;172678;34.52;725;03.24.30.960
12928;172677;34.52;726;03.24.30.960
12928;172675;34.52;727;03.24.30.960
12916;172676;34.52;728;03.24.30.960
12892;172676;34.52;729;03.24.30.960
12916;172675;34.52;730;03.24.30.960
12940;172690;34.52;731;03.24.30.960
12924;172687;34.52;732;03.24.30.960
12924;172680;34.52;733;03.24.30.971
12920;172681;34.52;734;03.24.30.971
12908;172683;34.52;735;03.24.30.971
12908;172681;34.52;736;03.24.30.971
12892;172681;34.52;737;03.24.30.971
12892;172672;34.52;738;03.24.30.971
12908;172674;34.52;739;03.24.30.971
12900;172672;34.52;740;03.24.30.971
12936;172664;34.52;741;03.24.30.971
12912;172659;34.52;742;03.24.30.982
12916;172646;34.52;743;03.24.30.982
12924;172650;34.52;744;03.24.30.982
12920;172651;34.52;745;03.24.30.982
12928;172632;34.52;746;03.24.30.982
12924;172642;34.52;747;03.24.30.982
12916;172632;34.52;748;03.24.30.982
12916;172625;34.52;749;03.24.30.982
12920;172622;34.56;750;03.24.31.081
12916;172619;34.56;751;03.24.31.081
12924;172620;34.56;752;03.24.31.081
12908;172614;34.56;753;03.24.31.081
12928;172616;34.56;754;03.24.31.081
12920;172615;34.56;755;03.24.31.081
12904;172612;34.56;756;03.24.31.081
12928;172598;34.56;757;03.24.31.081
12924;172601;34.56;758;03.24.31.092
12908;172607;34.56;759;03.24.31.092
12948;172593;34.56;760;03.24.31.092
12920;172586;34.56;761;03.24.31.092
12944;172601;34.56;762;03.24.31.092
12928;172599;34.56;763;03.24.31.092
12916;172591;34.56;764;03.24.31.092
12912;172599;34.56;765;03.24.31.092
12928;172594;34.56;766;03.24.31.092
12928;172596;34.56;767;03.24.31.125
12936;172594;34.56;768;03.24.31.125
12912;172593;34.56;769;03.24.31.125
12916;172591;34.56;770;03.24.31.125
12944;172591;34.56;771;03.24.31.125
12932;172592;34.56;772;03.24.31.125
12916;172586;34.56;773;03.24.31.125
12952;172587;34.56;774;03.24.31.125
12896;172577;34.56;775;03.24.31.201
12960;172583;34.56;776;03.24.31.201
12896;172584;34.56;777;03.24.31.201
12920;172578;34.56;778;03.24.31.201
12952;172577;34.56;779;03.24.31.212
12904;172582;34.56;780;03.24.31.212
12928;172588;34.56;781;03.24.31.212
12876;172585;34.56;782;03.24.31.212
12928;172578;34.56;783;03.24.31.212
12920;172583;34.56;784;03.24.31.212
12916;172585;34.56;785;03.24.31.212
12900;172579;34.56;786;03.24.31.212
12900;172579;34.56;787;03.24.31.212
12940;172578;34.56;788;03.24.31.212
12924;172579;34.56;789;03.24.31.212
12892;172578;34.56;790;03.24.31.212
12912;172577;34.56;791;03.24.31.212
12912;172578;34.56;792;03.24.31.222
12916;172575;34.56;793;03.24.31.222
12932;172582;34.56;794;03.24.31.222
12928;172580;34.56;795;03.24.31.222
12944;172578;34.56;796;03.24.31.222
12892;172579;34.56;797;03.24.31.222
12936;172582;34.56;798;03.24.31.222
12936;172574;34.56;799;03.24.31.222
12908;172586;34.52;800;03.24.31.354
12912;172586;34.52;801;03.24.31.354
12920;172571;34.52;802;03.24.31.354
12928;172587;34.52;803;03.24.31.354
12900;172587;34.52;804;03.24.31.354
12892;172581;34.52;805;03.24.31.354
12920;172577;34.52;806;03.24.31.354
12908;172575;34.52;807;03.24.31.354
12920;172574;34.52;808;03.24.31.354
12928;172586;34.52;809;03.24.31.354
12932;172589;34.52;810;03.24.31.354
12936;172584;34.52;811;03.24.31.354
12920;172579;34.52;812;03.24.31.354
12904;172586;34.52;813;03.24.31.355
12920;172579;34.52;814;03.24.31.366
12912;172569;34.52;815;03.24.31.366
12944;172580;34.52;816;03.24.31.366
12892;172579;34.52;817;03.24.31.366
12920;172575;34.52;818;03.24.31.366
12908;172583;34.52;819;03.24.31.366
12952;172579;34.52;820;03.24.31.366
12944;172574;34.52;821;03.24.31.366
12908;172584;34.52;822;03.24.31.366
12932;172584;34.52;823;03.24.31.366
12928;172586;34.52;824;03.24.31.366
12916;172587;34.52;825;03.24.31.454
12920;172585;34.52;826;03.24.31.454
12920;172591;34.52;827;03.24.31.454
12924;172590;34.52;828;03.24.31.454
12900;172591;34.52;829;03.24.31.454
12924;172592;34.52;830;03.24.31.454
12924;172595;34.52;831;03.24.31.454
12924;172593;34.52;832;03.24.31.454
12956;172573;34.52;833;03.24.31.487
12944;172583;34.52;834;03.24.31.487
12928;172588;34.52;835;03.24.31.487
12928;172593;34.52;836;03.24.31.487
12916;172592;34.52;837;03.24.31.487
12900;172596;34.52;838;03.24.31.487
12936;172600;34.52;839;03.24.31.487
12916;172591;34.52;840;03.24.31.487
12928;172599;34.52;841;03.24.31.487
12928;172601;34.52;842;03.24.31.487
12936;172598;34.52;843;03.24.31.487
12916;172597;34.52;844;03.24.31.498
12908;172597;34.52;845;03.24.31.498
12944;172598;34.52;846;03.24.31.498
12944;172603;34.52;847;03.24.31.498
12912;172609;34.52;848;03.24.31.498
12940;172607;34.52;849;03.24.31.498
12908;172605;34.52;850;03.24.31.575
12944;172601;34.52;851;03.24.31.575
12884;172599;34.52;852;03.24.31.575
12904;172601;34.52;853;03.24.31.575
12920;172607;34.52;854;03.24.31.575
12912;172613;34.52;855;03.24.31.575
12920;172604;34.52;856;03.24.31.575
12900;172608;34.52;857;03.24.31.586
12960;172614;34.52;858;03.24.31.586
12924;172620;34.52;859;03.24.31.586
12924;172619;34.52;860;03.24.31.586
12880;172622;34.52;861;03.24.31.586
12936;172613;34.52;862;03.24.31.586
12900;172618;34.52;863;03.24.31.586
12912;172626;34.52;864;03.24.31.586
12944;172622;34.52;865;03.24.31.586
12920;172625;34.52;866;03.24.31.586
12944;172623;34.52;867;03.24.31.586
12916;172629;34.52;868;03.24.31.586
12900;172629;34.52;869;03.24.31.586
12944;172629;34.52;870;03.24.31.586
12932;172627;34.52;871;03.24.31.596
12904;172619;34.52;872;03.24.31.596
12908;172634;34.52;873;03.24.31.596
12892;172638;34.52;874;03.24.31.596
12892;172636;34.52;875;03.24.31.695
12912;172645;34.52;876;03.24.31.695
12912;172640;34.52;877;03.24.31.695
12924;172642;34.52;878;03.24.31.706
12916;172636;34.52;879;03.24.31.706
12908;172638;34.52;880;03.24.31.706
12904;172637;34.52;881;03.24.31.706
12932;172639;34.52;882;03.24.31.706
12892;172638;34.52;883;03.24.31.706
12932;172643;34.52;884;03.24.31.706
12888;172648;34.52;885;03.24.31.706
12928;172645;34.52;886;03.24.31.706
12904;172648;34.52;887;03.24.31.706
12928;172647;34.52;888;03.24.31.706
12932;172653;34.52;889;03.24.31.706
12892;172648;34.52;890;03.24.31.706
12892;172648;34.52;891;03.24.31.717
12928;172654;34.52;892;03.24.31.717
12920;172655;34.52;893;03.24.31.717
12900;172655;34.52;894;03.24.31.717
12920;172661;34.52;895;03.24.31.717
12928;172647;34.52;896;03.24.31.717
12900;172654;34.52;897;03.24.31.717
12892;172655;34.52;898;03.24.31.717
12928;172656;34.52;899;03.24.31.717
12908;172666;34.52;900;03.24.31.842
12916;172663;34.52;901;03.24.31.842
12932;172670;34.52;902;03.24.31.842
12920;172661;34.52;903;03.24.31.842
12904;172660;34.52;904;03.24.31.853
12928;172664;34.52;905;03.24.31.853
12920;172672;34.52;906;03.24.31.853
12916;172676;34.52;907;03.24.31.853
12936;172668;34.52;908;03.24.31.853
12904;172673;34.52;909;03.24.31.853
12896;172671;34.52;910;03.24.31.853
12920;172670;34.52;911;03.24.31.853
12924;172667;34.52;912;03.24.31.853
12912;172659;34.52;913;03.24.31.853
12924;172666;34.52;914;03.24.31.853
12932;172658;34.52;915;03.24.31.853
12916;172654;34.52;916;03.24.31.853
12908;172654;34.52;917;03.24.31.864
12900;172651;34.52;918;03.24.31.864
12916;172634;34.52;919;03.24.31.864
12924;172639;34.52;920;03.24.31.864
12944;172631;34.52;921;03.24.31.864
12904;172619;34.52;922;03.24.31.864
12952;172623;34.52;923;03.24.31.864
12944;172621;34.52;924;03.24.31.864
12916;172618;34.52;925;03.24.31.962
12920;172605;34.52;926;03.24.31.962
12928;172605;34.52;927;03.24.31.962
12928;172609;34.52;928;03.24.31.962
12880;172608;34.52;929;03.24.31.962
12912;172603;34.52;930;03.24.31.962
12904;172586;34.52;931;03.24.31.962
12920;172593;34.52;932;03.24.31.962
12932;172588;34.52;933;03.24.31.973
12920;172607;34.52;934;03.24.31.984
12920;172598;34.52;935;03.24.31.984
12924;172590;34.52;936;03.24.31.984
12912;172597;34.52;937;03.24.31.984
12892;172590;34.52;938;03.24.31.984
12928;172584;34.52;939;03.24.31.984
12920;172583;34.52;940;03.24.31.984
12908;172588;34.52;941;03.24.31.984
12888;172586;34.52;942;03.24.31.995
12932;172591;34.52;943;03.24.31.995
12936;172586;34.52;944;03.24.31.995
12944;172587;34.52;945;03.24.31.995
12940;172589;34.52;946;03.24.31.995
12928;172588;34.52;947;03.24.31.995
12912;172588;34.52;948;03.24.31.995
12924;172584;34.52;949;03.24.31.995
12932;172587;34.52;950;03.24.32.084
12904;172588;34.52;951;03.24.32.084
12924;172589;34.52;952;03.24.32.084
12888;172597;34.52;953;03.24.32.084
12928;172593;34.52;954;03.24.32.084
12960;172583;34.52;955;03.24.32.084
12912;172586;34.52;956;03.24.32.084
12932;172581;34.52;957;03.24.32.084
12916;172588;34.52;958;03.24.32.095
12892;172584;34.52;959;03.24.32.095
12932;172588;34.52;960;03.24.32.095
12928;172581;34.52;961;03.24.32.095
12908;172583;34.52;962;03.24.32.095
12936;172588;34.52;963;03.24.32.095
12936;172586;34.52;964;03.24.32.095
12920;172589;34.52;965;03.24.32.095
12920;172593;34.52;966;03.24.32.095
12936;172591;34.52;967;03.24.32.117
12928;172591;34.52;968;03.24.32.117
12904;172597;34.52;969;03.24.32.117
12928;172596;34.52;970;03.24.32.117
12932;172594;34.52;971;03.24.32.117
12912;172587;34.52;972;03.24.32.117
12928;172597;34.52;973;03.24.32.117
12932;172593;34.52;974;03.24.32.117
12916;172589;34.52;975;03.24.32.204
12892;172588;34.52;976;03.24.32.204
12896;172591;34.52;977;03.24.32.204
12936;172587;34.52;978;03.24.32.204
12932;172593;34.52;979;03.24.32.204
12908;172586;34.52;980;03.24.32.204
12940;172593;34.52;981;03.24.32.204
12900;172588;34.52;982;03.24.32.215
12892;172597;34.52;983;03.24.32.215
12924;172591;34.52;984;03.24.32.215
12900;172585;34.52;985;03.24.32.215
12892;172594;34.52;986;03.24.32.215
12928;172590;34.52;987;03.24.32.215
12936;172595;34.52;988;03.24.32.215
12904;172588;34.52;989;03.24.32.215
12904;172596;34.52;990;03.24.32.215
12928;172592;34.52;991;03.24.32.215
12892;172594;34.52;992;03.24.32.215
12908;172590;34.52;993;03.24.32.215
12904;172593;34.52;994;03.24.32.215
12932;172594;34.52;995;03.24.32.226
12892;172592;34.52;996;03.24.32.226
12900;172591;34.52;997;03.24.32.226
12928;172601;34.52;998;03.24.32.226
12944;172592;34.52;999;03.24.32.226
12904;172599;34.52;000;03.24.32.337
12928;172603;34.52;001;03.24.32.337
12892;172600;34.52;002;03.24.32.337
12912;172592;34.52;003;03.24.32.348
12912;172605;34.52;004;03.24.32.348
12928;172608;34.52;005;03.24.32.348
12916;172601;34.52;006;03.24.32.348
12936;172599;34.52;007;03.24.32.348
12920;172601;34.52;008;03.24.32.348
12904;172604;34.52;009;03.24.32.348
12936;172603;34.52;010;03.24.32.348
12916;172598;34.52;011;03.24.32.348
12944;172603;34.52;012;03.24.32.348
12928;172599;34.52;013;03.24.32.348
12932;172603;34.52;014;03.24.32.348
12912;172602;34.52;015;03.24.32.348
12912;172612;34.52;016;03.24.32.348
12924;172609;34.52;017;03.24.32.359
12948;172605;34.52;018;03.24.32.359
12904;172601;34.52;019;03.24.32.359
12908;172613;34.52;020;03.24.32.359
12908;172610;34.52;021;03.24.32.359
12908;172609;34.52;022;03.24.32.359
12908;172618;34.52;023;03.24.32.359
12944;172620;34.52;024;03.24.32.359
12888;172613;34.52;025;03.24.32.469
12920;172617;34.52;026;03.24.32.480
12908;172624;34.52;027;03.24.32.480
12916;172629;34.52;028;03.24.32.480
12888;172624;34.52;029;03.24.32.480
12912;172628;34.52;030;03.24.32.480
12916;172620;34.52;031;03.24.32.480
12892;172617;34.52;032;03.24.32.480
12928;172620;34.52;033;03.24.32.480
12928;172626;34.52;034;03.24.32.480
12944;172618;34.52;035;03.24.32.480
12916;172631;34.52;036;03.24.32.480
12920;172629;34.52;037;03.24.32.480
12908;172627;34.52;038;03.24.32.480
12924;172631;34.52;039;03.24.32.491
12920;172632;34.52;040;03.24.32.491
12924;172636;34.52;041;03.24.32.491
12888;172633;34.52;042;03.24.32.491
12912;172636;34.52;043;03.24.32.491
12928;172630;34.52;044;03.24.32.491
12924;172629;34.52;045;03.24.32.491
12932;172634;34.52;046;03.24.32.491
12932;172634;34.52;047;03.24.32.491
12904;172635;34.52;048;03.24.32.491
12944;172639;34.52;049;03.24.32.491
12904;172647;34.52;050;03.24.32.578
12928;172646;34.52;051;03.24.32.578
12928;172652;34.52;052;03.24.32.578
12916;172639;34.52;053;03.24.32.578
12944;172639;34.52;054;03.24.32.578
12952;172640;34.52;055;03.24.32.578
12892;172642;34.52;056;03.24.32.578
12924;172646;34.52;057;03.24.32.578
12928;172652;34.52;058;03.24.32.589
12924;172644;34.52;059;03.24.32.589
12916;172647;34.52;060;03.24.32.589
12892;172660;34.52;061;03.24.32.589
12916;172650;34.52;062;03.24.32.589
12928;172656;34.52;063;03.24.32.589
12892;172658;34.52;064;03.24.32.589
12916;172653;34.52;065;03.24.32.589
12936;172664;34.52;066;03.24.32.589
12908;172649;34.52;067;03.24.32.611
12924;172654;34.52;068;03.24.32.611
12916;172659;34.52;069;03.24.32.611
12936;172658;34.52;070;03.24.32.611
12916;172656;34.52;071;03.24.32.611
12924;172656;34.52;072;03.24.32.611
12904;172649;34.52;073;03.24.32.611
12928;172661;34.52;074;03.24.32.611
12904;172661;34.52;075;03.24.32.699
12920;172650;34.52;076;03.24.32.699
12944;172656;34.52;077;03.24.32.699
12916;172665;34.52;078;03.24.32.699
12920;172661;34.52;079;03.24.32.699
12908;172654;34.52;080;03.24.32.699
12896;172654;34.52;081;03.24.32.710
12924;172635;34.52;082;03.24.32.710
12900;172644;34.52;083;03.24.32.710
12932;172631;34.52;084;03.24.32.710
12908;172631;34.52;085;03.24.32.710
12932;172617;34.52;086;03.24.32.710
12916;172617;34.52;087;03.24.32.710
12916;172623;34.52;088;03.24.32.710
12920;172616;34.52;089;03.24.32.710
12932;172609;34.52;090;03.24.32.710
12928;172603;34.52;091;03.24.32.710
12912;172598;34.52;092;03.24.32.710
12932;172597;34.52;093;03.24.32.710
12892;172592;34.52;094;03.24.32.721
12928;172581;34.52;095;03.24.32.721
12920;172585;34.52;096;03.24.32.721
12888;172578;34.52;097;03.24.32.721
12908;172581;34.52;098;03.24.32.721
12940;172579;34.52;099;03.24.32.721
12912;172572;34.48;100;03.24.32.831
12908;172573;34.48;101;03.24.32.842
12900;172569;34.48;102;03.24.32.842
12920;172565;34.48;103;03.24.32.842
12936;172581;34.48;104;03.24.32.842
12912;172578;34.48;105;03.24.32.842
12944;172574;34.48;106;03.24.32.842
12908;172571;34.48;107;03.24.32.842
12932;172568;34.48;108;03.24.32.842
12928;172568;34.48;109;03.24.32.842
12936;172570;34.48;110;03.24.32.842
12916;172565;34.48;111;03.24.32.842
12944;172567;34.48;112;03.24.32.842
12920;172569;34.48;113;03.24.32.842
12924;172560;34.48;114;03.24.32.842
12928;172573;34.48;115;03.24.32.842
12892;172578;34.48;116;03.24.32.853
12928;172572;34.48;117;03.24.32.853
12928;172569;34.48;118;03.24.32.853
12888;172574;34.48;119;03.24.32.853
12916;172570;34.48;120;03.24.32.853
12920;172579;34.48;121;03.24.32.853
12912;172573;34.48;122;03.24.32.853
12900;172577;34.48;123;03.24.32.853
12924;172573;34.48;124;03.24.32.853
12928;172587;34.48;125;03.24.32.973
12896;172586;34.48;126;03.24.32.973
12904;172580;34.48;127;03.24.32.973
12920;172589;34.48;128;03.24.32.973
12888;172580;34.48;129;03.24.32.973
12904;172591;34.48;130;03.24.32.973
12908;172582;34.48;131;03.24.32.973
12920;172585;34.48;132;03.24.32.973
12892;172590;34.48;133;03.24.32.973
12912;172590;34.48;134;03.24.32.973
12936;172590;34.48;135;03.24.32.973
12960;172600;34.48;136;03.24.32.973
12940;172594;34.48;137;03.24.32.984
12908;172592;34.48;138;03.24.32.984
12908;172593;34.48;139;03.24.32.984
12892;172594;34.48;140;03.24.32.984
12892;172591;34.48;141;03.24.32.984
12900;172596;34.48;142;03.24.32.984
12888;172599;34.48;143;03.24.32.984
12908;172605;34.48;144;03.24.32.984
12908;172600;34.48;145;03.24.32.984
12932;172599;34.48;146;03.24.32.984
12892;172609;34.48;147;03.24.32.984
12928;172611;34.48;148;03.24.32.984
12936;172607;34.48;149;03.24.32.984
12932;172601;34.52;150;03.24.33.083
12892;172608;34.52;151;03.24.33.083
12936;172611;34.52;152;03.24.33.083
12944;172598;34.52;153;03.24.33.083
12892;172609;34.52;154;03.24.33.083
12900;172611;34.52;155;03.24.33.083
12912;172621;34.52;156;03.24.33.083
12892;172623;34.52;157;03.24.33.083
12912;172623;34.52;158;03.24.33.094
12924;172622;34.52;159;03.24.33.094
12904;172630;34.52;160;03.24.33.094
12924;172633;34.52;161;03.24.33.094
12904;172633;34.52;162;03.24.33.094
12912;172641;34.52;163;03.24.33.094
12944;172631;34.52;164;03.24.33.094
12892;172637;34.52;165;03.24.33.094
12912;172639;34.52;166;03.24.33.094
12884;172641;34.52;167;03.24.33.105
12908;172639;34.52;168;03.24.33.105
12920;172650;34.52;169;03.24.33.105
12928;172649;34.52;170;03.24.33.105
12908;172649;34.52;171;03.24.33.105
12932;172653;34.52;172;03.24.33.105
12912;172656;34.52;173;03.24.33.105
12908;172655;34.52;174;03.24.33.105
12900;172657;34.52;175;03.24.33.204
12904;172665;34.52;176;03.24.33.204
12932;172668;34.52;177;03.24.33.204
12916;172662;34.52;178;03.24.33.204
12928;172668;34.52;179;03.24.33.204
12908;172676;34.52;180;03.24.33.215
12916;172685;34.52;181;03.24.33.215
12896;172684;34.52;182;03.24.33.215
12908;172687;34.52;183;03.24.33.215
12884;172707;34.52;184;03.24.33.215
12932;172707;34.52;185;03.24.33.215
12928;172707;34.52;186;03.24.33.215
12892;172716;34.52;187;03.24.33.215
12920;172715;34.52;188;03.24.33.215
12928;172724;34.52;189;03.24.33.215
12916;172732;34.52;190;03.24.33.215
12912;172734;34.52;191;03.24.33.226
12912;172726;34.52;192;03.24.33.226
12936;172731;34.52;193;03.24.33.226
12920;172745;34.52;194;03.24.33.226
12916;172750;34.52;195;03.24.33.226
12892;172750;34.52;196;03.24.33.226
12944;172751;34.52;197;03.24.33.226
12912;172748;34.52;198;03.24.33.226
12924;172757;34.52;199;03.24.33.226
12920;172763;34.56;200;03.24.33.335
12916;172756;34.56;201;03.24.33.335
12916;172777;34.56;202;03.24.33.335
12912;172775;34.56;203;03.24.33.335
12920;172770;34.56;204;03.24.33.335
12928;172777;34.56;205;03.24.33.335
12920;172775;34.56;206;03.24.33.335
12928;172788;34.56;207;03.24.33.335
12912;172786;34.56;208;03.24.33.335
12912;172784;34.56;209;03.24.33.335
12892;172793;34.56;210;03.24.33.335
12908;172793;34.56;211;03.24.33.335
12920;172790;34.56;212;03.24.33.335
12900;172797;34.56;213;03.24.33.346
12920;172797;34.56;214;03.24.33.346
12940;172799;34.56;215;03.24.33.346
12904;172805;34.56;216;03.24.33.346
12912;172798;34.56;217;03.24.33.346
12888;172812;34.56;218;03.24.33.346
12924;172801;34.56;219;03.24.33.346
12916;172815;34.56;220;03.24.33.346
12924;172803;34.56;221;03.24.33.346
12900;172814;34.56;222;03.24.33.346
12908;172811;34.56;223;03.24.33.346
12936;172809;34.56;224;03.24.33.346
12936;172808;34.56;225;03.24.33.466
12912;172803;34.56;226;03.24.33.466
12924;172812;34.56;227;03.24.33.466
12896;172806;34.56;228;03.24.33.466
12928;172806;34.56;229;03.24.33.466
12904;172798;34.56;230;03.24.33.466
12916;172807;34.56;231;03.24.33.466
12928;172805;34.56;232;03.24.33.466
12908;172802;34.56;233;03.24.33.466
12904;172801;34.56;234;03.24.33.477
12908;172804;34.56;235;03.24.33.477
12924;172795;34.56;236;03.24.33.477
12904;172801;34.56;237;03.24.33.477
12940;172802;34.56;238;03.24.33.477
12920;172809;34.56;239;03.24.33.477
12928;172800;34.56;240;03.24.33.477
12908;172800;34.56;241;03.24.33.477
12912;172796;34.56;242;03.24.33.477
12908;172793;34.56;243;03.24.33.477
12928;172785;34.56;244;03.24.33.477
12932;172784;34.56;245;03.24.33.477
12928;172789;34.56;246;03.24.33.477
12904;172776;34.56;247;03.24.33.488
12924;172776;34.56;248;03.24.33.488
12948;172776;34.56;249;03.24.33.488
12892;172778;34.52;250;03.24.33.576
12928;172771;34.52;251;03.24.33.576
12892;172765;34.52;252;03.24.33.576
12928;172757;34.52;253;03.24.33.576
12920;172755;34.52;254;03.24.33.576
12944;172751;34.52;255;03.24.33.587
12896;172754;34.52;256;03.24.33.587
12908;172751;34.52;257;03.24.33.587
12904;172738;34.52;258;03.24.33.598
12908;172757;34.52;259;03.24.33.598
12928;172750;34.52;260;03.24.33.598
12940;172746;34.52;261;03.24.33.598
12896;172740;34.52;262;03.24.33.598
12920;172752;34.52;263;03.24.33.598
12912;172741;34.52;264;03.24.33.609
12932;172751;34.52;265;03.24.33.609
12908;172755;34.52;266;03.24.33.609
12928;172743;34.52;267;03.24.33.609
12904;172751;34.52;268;03.24.33.609
12908;172742;34.52;269;03.24.33.609
12908;172742;34.52;270;03.24.33.609
12916;172748;34.52;271;03.24.33.609
12900;172749;34.52;272;03.24.33.609
12904;172745;34.52;273;03.24.33.609
12920;172744;34.52;274;03.24.33.609
12920;172744;34.52;275;03.24.33.706
12928;172742;34.52;276;03.24.33.706
12908;172746;34.52;277;03.24.33.706
12888;172743;34.52;278;03.24.33.706
12908;172749;34.52;279;03.24.33.706
12912;172749;34.52;280;03.24.33.706
12908;172748;34.52;281;03.24.33.706
12908;172760;34.52;282;03.24.33.706
12932;172766;34.52;283;03.24.33.706
12944;172773;34.52;284;03.24.33.706
12936;172775;34.52;285;03.24.33.706
12928;172775;34.52;286;03.24.33.706
12920;172781;34.52;287;03.24.33.706
12924;172785;34.52;288;03.24.33.717
12908;172778;34.52;289;03.24.33.717
12932;172787;34.52;290;03.24.33.717
12928;172791;34.52;291;03.24.33.717
12928;172796;34.52;292;03.24.33.717
12896;172791;34.52;293;03.24.33.717
12916;172803;34.52;294;03.24.33.717
12916;172802;34.52;295;03.24.33.717
12940;172805;34.52;296;03.24.33.717
12924;172798;34.52;297;03.24.33.717
12912;172801;34.52;298;03.24.33.717
12924;172797;34.52;299;03.24.33.717
12912;172806;34.52;300;03.24.33.838
12908;172808;34.52;301;03.24.33.838
12892;172810;34.52;302;03.24.33.838
12928;172805;34.52;303;03.24.33.838
12892;172800;34.52;304;03.24.33.838
12920;172805;34.52;305;03.24.33.838
12928;172806;34.52;306;03.24.33.838
12928;172804;34.52;307;03.24.33.838
12912;172799;34.52;308;03.24.33.849
12912;172803;34.52;309;03.24.33.849
12892;172803;34.52;310;03.24.33.849
12924;172801;34.52;311;03.24.33.849
12928;172796;34.52;312;03.24.33.849
12928;172789;34.52;313;03.24.33.849
12896;172795;34.52;314;03.24.33.849
12936;172795;34.52;315;03.24.33.849
12936;172789;34.52;316;03.24.33.849
12916;172791;34.52;317;03.24.33.871
12960;172784;34.52;318;03.24.33.871
12908;172788;34.52;319;03.24.33.871
12924;172791;34.52;320;03.24.33.871
12916;172776;34.52;321;03.24.33.871
12912;172777;34.52;322;03.24.33.871
12904;172785;34.52;323;03.24.33.871
12908;172779;34.52;324;03.24.33.871
12892;172783;34.52;325;03.24.33.958
12916;172780;34.52;326;03.24.33.958
12896;172771;34.52;327;03.24.33.958
12912;172778;34.52;328;03.24.33.958
12920;172773;34.52;329;03.24.33.958
12928;172782;34.52;330;03.24.33.969
12936;172789;34.52;331;03.24.33.969
12900;172792;34.52;332;03.24.33.969
12928;172787;34.52;333;03.24.33.969
12904;172796;34.52;334;03.24.33.969
12888;172793;34.52;335;03.24.33.969
12916;172802;34.52;336;03.24.33.969
12892;172805;34.52;337;03.24.33.969
12916;172811;34.52;338;03.24.33.969
12900;172809;34.52;339;03.24.33.969
12920;172816;34.52;340;03.24.33.969
12912;172809;34.52;341;03.24.33.969
12928;172816;34.52;342;03.24.33.969
12920;172816;34.52;343;03.24.33.980
12932;172808;34.52;344;03.24.33.980
12916;172824;34.52;345;03.24.33.980
12928;172824;34.52;346;03.24.33.980
12916;172834;34.52;347;03.24.33.980
12904;172819;34.52;348;03.24.33.980
12932;172831;34.52;349;03.24.33.980
12892;172836;34.56;350;03.24.34.089
12908;172829;34.56;351;03.24.34.100
12928;172829;34.56;352;03.24.34.100
12936;172839;34.56;353;03.24.34.100
12924;172843;34.56;354;03.24.34.100
12904;172845;34.56;355;03.24.34.100
12904;172854;34.56;356;03.24.34.100
12932;172853;34.56;357;03.24.34.100
12900;172852;34.56;358;03.24.34.100
12856;172867;34.56;359;03.24.34.100
12936;172861;34.56;360;03.24.34.100
12920;172862;34.56;361;03.24.34.100
12908;172873;34.56;362;03.24.34.100
12936;172873;34.56;363;03.24.34.100
12908;172865;34.56;364;03.24.34.111
12920;172880;34.56;365;03.24.34.111
12920;172880;34.56;366;03.24.34.111
12928;172870;34.56;367;03.24.34.111
12912;172881;34.56;368;03.24.34.111
12920;172877;34.56;369;03.24.34.111
12912;172880;34.56;370;03.24.34.111
12936;172869;34.56;371;03.24.34.111
12944;172881;34.56;372;03.24.34.111
12892;172887;34.56;373;03.24.34.111
12924;172883;34.56;374;03.24.34.111
12908;172877;34.56;375;03.24.34.210
12924;172885;34.56;376;03.24.34.210
12928;172883;34.56;377;03.24.34.210
12928;172881;34.56;378;03.24.34.210
12900;172879;34.56;379;03.24.34.210
12944;172880;34.56;380;03.24.34.210
12912;172881;34.56;381;03.24.34.210
12900;172869;34.56;382;03.24.34.210
12908;172883;34.56;383;03.24.34.221
12928;172877;34.56;384;03.24.34.221
12936;172875;34.56;385;03.24.34.221
12912;172877;34.56;386;03.24.34.221
12912;172862;34.56;387;03.24.34.221
12904;172860;34.56;388;03.24.34.221
12908;172852;34.56;389;03.24.34.221
12936;172857;34.56;390;03.24.34.221
12928;172848;34.56;391;03.24.34.221
12908;172846;34.56;392;03.24.34.232
12936;172844;34.56;393;03.24.34.232
12892;172827;34.56;394;03.24.34.232
12924;172830;34.56;395;03.24.34.232
12916;172821;34.56;396;03.24.34.232
12944;172820;34.56;397;03.24.34.232
12928;172810;34.56;398;03.24.34.232
12952;172800;34.56;399;03.24.34.232
12928;172803;34.52;400;03.24.34.342
12944;172793;34.52;401;03.24.34.342
12908;172783;34.52;402;03.24.34.342
12928;172781;34.52;403;03.24.34.342
12924;172776;34.52;404;03.24.34.342
12892;172780;34.52;405;03.24.34.342
12892;172771;34.52;406;03.24.34.342
12876;172775;34.52;407;03.24.34.353
12928;172768;34.52;408;03.24.34.364
12908;172757;34.52;409;03.24.34.364
12920;172756;34.52;410;03.24.34.364
12920;172749;34.52;411;03.24.34.364
12892;172753;34.52;412;03.24.34.364
12940;172748;34.52;413;03.24.34.364
12916;172752;34.52;414;03.24.34.364
12928;172750;34.52;415;03.24.34.375
12908;172742;34.52;416;03.24.34.375
12908;172745;34.52;417;03.24.34.375
12904;172749;34.52;418;03.24.34.375
12928;172736;34.52;419;03.24.34.375
12916;172740;34.52;420;03.24.34.375
12932;172752;34.52;421;03.24.34.375
12912;172741;34.52;422;03.24.34.375
12932;172752;34.52;423;03.24.34.375
12944;172748;34.52;424;03.24.34.375
12900;172742;34.52;425;03.24.34.451
12932;172743;34.52;426;03.24.34.451
12960;172747;34.52;427;03.24.34.451
12892;172739;34.52;428;03.24.34.462
12916;172747;34.52;429;03.24.34.462
12928;172740;34.52;430;03.24.34.462
12924;172741;34.52;431;03.24.34.462
12928;172744;34.52;432;03.24.34.462
12928;172741;34.52;433;03.24.34.462
12928;172752;34.52;434;03.24.34.462
12948;172747;34.52;435;03.24.34.462
12928;172749;34.52;436;03.24.34.462
12928;172750;34.52;437;03.24.34.462
12928;172760;34.52;438;03.24.34.462
12932;172742;34.52;439;03.24.34.462
12904;172751;34.52;440;03.24.34.473
12936;172745;34.52;441;03.24.34.473
12928;172754;34.52;442;03.24.34.473
12916;172745;34.52;443;03.24.34.473
12932;172746;34.52;444;03.24.34.473
12900;172750;34.52;445;03.24.34.473
12904;172749;34.52;446;03.24.34.473
12928;172746;34.52;447;03.24.34.473
12920;172749;34.52;448;03.24.34.473
12928;172748;34.52;449;03.24.34.473
12944;172745;34.56;450;03.24.34.593
12932;172750;34.56;451;03.24.34.593
12952;172756;34.56;452;03.24.34.593
12928;172757;34.56;453;03.24.34.593
12908;172754;34.56;454;03.24.34.593
12920;172752;34.56;455;03.24.34.593
12916;172753;34.56;456;03.24.34.593
12904;172758;34.56;457;03.24.34.593
12924;172760;34.56;458;03.24.34.593
12884;172768;34.56;459;03.24.34.593
12924;172762;34.56;460;03.24.34.593
12936;172774;34.56;461;03.24.34.593
12920;172763;34.56;462;03.24.34.604
12908;172760;34.56;463;03.24.34.604
12924;172763;34.56;464;03.24.34.604
12920;172763;34.56;465;03.24.34.604
12916;172758;34.56;466;03.24.34.604
12924;172766;34.56;467;03.24.34.604
12892;172768;34.56;468;03.24.34.604
12908;172771;34.56;469;03.24.34.604
12916;172781;34.56;470;03.24.34.604
12916;172772;34.56;471;03.24.34.604
12892;172777;34.56;472;03.24.34.604
12916;172784;34.56;473;03.24.34.604
12924;172770;34.56;474;03.24.34.604
12908;172771;34.56;475;03.24.34.703
12952;172773;34.56;476;03.24.34.703
12928;172774;34.56;477;03.24.34.703
12908;172778;34.56;478;03.24.34.703
12904;172768;34.56;479;03.24.34.703
12892;172764;34.56;480;03.24.34.703
12932;172768;34.56;481;03.24.34.714
12900;172776;34.56;482;03.24.34.714
12940;172774;34.56;483;03.24.34.725
12904;172769;34.56;484;03.24.34.725
12932;172772;34.56;485;03.24.34.725
12928;172775;34.56;486;03.24.34.725
12924;172777;34.56;487;03.24.34.725
12908;172783;34.56;488;03.24.34.725
12900;172784;34.56;489;03.24.34.725
12912;172784;34.56;490;03.24.34.725
12916;172796;34.56;491;03.24.34.736
12928;172798;34.56;492;03.24.34.736
12892;172800;34.56;493;03.24.34.736
12904;172812;34.56;494;03.24.34.736
12960;172806;34.56;495;03.24.34.736
12920;172808;34.56;496;03.24.34.736
12892;172807;34.56;497;03.24.34.736
12928;172808;34.56;498;03.24.34.736
12928;172815;34.56;499;03.24.34.736
12920;172820;34.52;500;03.24.34.823
12904;172817;34.52;501;03.24.34.823
12920;172811;34.52;502;03.24.34.823
12928;172815;34.52;503;03.24.34.823
12916;172818;34.52;504;03.24.34.834
12892;172824;34.52;505;03.24.34.834
12940;172821;34.52;506;03.24.34.834
12928;172827;34.52;507;03.24.34.834
12924;172831;34.52;508;03.24.34.834
12928;172826;34.52;509;03.24.34.834
12924;172832;34.52;510;03.24.34.834
12924;172829;34.52;511;03.24.34.834
12936;172838;34.52;512;03.24.34.834
12912;172827;34.52;513;03.24.34.845
12908;172827;34.52;514;03.24.34.845
12916;172828;34.52;515;03.24.34.845
12920;172828;34.52;516;03.24.34.845
12928;172824;34.52;517;03.24.34.845
12908;172822;34.52;518;03.24.34.845
12928;172830;34.52;519;03.24.34.845
12920;172833;34.52;520;03.24.34.845
12916;172830;34.52;521;03.24.34.845
12944;172826;34.52;522;03.24.34.856
12912;172833;34.52;523;03.24.34.856
12920;172824;34.52;524;03.24.34.856
12892;172832;34.52;525;03.24.34.966
12920;172822;34.52;526;03.24.34.966
12936;172822;34.52;527;03.24.34.966
12928;172815;34.52;528;03.24.34.966
12936;172816;34.52;529;03.24.34.966
12932;172811;34.52;530;03.24.34.966
12908;172804;34.52;531;03.24.34.966
12928;172807;34.52;532;03.24.34.966
12920;172806;34.52;533;03.24.34.966
12920;172796;34.52;534;03.24.34.966
12928;172791;34.52;535;03.24.34.966
12944;172791;34.52;536;03.24.34.966
12940;172799;34.52;537;03.24.34.966
12904;172789;34.52;538;03.24.34.977
12904;172781;34.52;539;03.24.34.977
12932;172782;34.52;540;03.24.34.977
12900;172784;34.52;541;03.24.34.977
12904;172770;34.52;542;03.24.34.977
12904;172769;34.52;543;03.24.34.977
12896;172764;34.52;544;03.24.34.977
12900;172766;34.52;545;03.24.34.977
12908;172755;34.52;546;03.24.34.977
12924;172745;34.52;547;03.24.34.977
12944;172752;34.52;548;03.24.34.977
12944;172748;34.52;549;03.24.34.977
12892;172745;34.52;550;03.24.35.097
12916;172734;34.52;551;03.24.35.097
12904;172726;34.52;552;03.24.35.097
12908;172724;34.52;553;03.24.35.097
12916;172724;34.52;554;03.24.35.097
12912;172726;34.52;555;03.24.35.097
12920;172722;34.52;556;03.24.35.097
