gsr; bvp; skt; skt2; Cont; time
12884;170963;34.04;725;03.50.52.973
12896;170956;34.04;726;03.50.52.984
12888;170964;34.04;727;03.50.52.984
12884;170956;34.04;728;03.50.52.984
12888;170961;34.04;729;03.50.52.984
12928;170964;34.04;730;03.50.52.984
12892;170960;34.04;731;03.50.52.984
12896;170961;34.04;732;03.50.52.984
12916;170961;34.04;733;03.50.52.984
12900;170959;34.04;734;03.50.52.984
12892;170975;34.04;735;03.50.52.984
12892;170972;34.04;736;03.50.52.984
12912;170972;34.04;737;03.50.52.984
12912;170970;34.04;738;03.50.52.984
12900;170973;34.04;739;03.50.52.995
12896;170964;34.04;740;03.50.52.995
12932;170963;34.04;741;03.50.52.995
12928;170973;34.04;742;03.50.52.995
12896;170972;34.04;743;03.50.52.995
12912;170967;34.04;744;03.50.52.996
12896;170978;34.04;745;03.50.53.007
12904;170976;34.04;746;03.50.53.007
12888;170979;34.04;747;03.50.53.007
12928;170979;34.04;748;03.50.53.007
12936;170980;34.04;749;03.50.53.007
12892;170971;34.04;750;03.50.53.115
12900;170984;34.04;751;03.50.53.115
12904;170972;34.04;752;03.50.53.115
12888;170977;34.04;753;03.50.53.115
12928;170981;34.04;754;03.50.53.115
12924;170980;34.04;755;03.50.53.115
12892;170973;34.04;756;03.50.53.115
12920;170978;34.04;757;03.50.53.115
12912;170974;34.04;758;03.50.53.115
12888;170977;34.04;759;03.50.53.115
12912;170972;34.04;760;03.50.53.126
12892;170979;34.04;761;03.50.53.126
12884;170970;34.04;762;03.50.53.126
12912;170972;34.04;763;03.50.53.126
12916;170971;34.04;764;03.50.53.126
12908;170970;34.04;765;03.50.53.126
12908;170969;34.04;766;03.50.53.126
12888;170972;34.04;767;03.50.53.126
12892;170976;34.04;768;03.50.53.126
12912;170978;34.04;769;03.50.53.126
12908;170975;34.04;770;03.50.53.126
12868;170980;34.04;771;03.50.53.126
12884;170980;34.04;772;03.50.53.126
12928;170982;34.04;773;03.50.53.137
12908;170978;34.04;774;03.50.53.137
12896;170981;34.04;775;03.50.53.214
12896;170971;34.04;776;03.50.53.214
12900;170967;34.04;777;03.50.53.214
12912;170973;34.04;778;03.50.53.214
12908;170973;34.04;779;03.50.53.214
12904;170966;34.04;780;03.50.53.214
12868;170960;34.04;781;03.50.53.225
12912;170961;34.04;782;03.50.53.225
12892;170949;34.04;783;03.50.53.225
12896;170945;34.04;784;03.50.53.225
12908;170937;34.04;785;03.50.53.225
12904;170933;34.04;786;03.50.53.225
12900;170927;34.04;787;03.50.53.225
12892;170920;34.04;788;03.50.53.225
12912;170918;34.04;789;03.50.53.225
12904;170918;34.04;790;03.50.53.236
12892;170913;34.04;791;03.50.53.236
12908;170904;34.04;792;03.50.53.247
12904;170908;34.04;793;03.50.53.247
12888;170899;34.04;794;03.50.53.247
12896;170895;34.04;795;03.50.53.247
12888;170896;34.04;796;03.50.53.247
12880;170904;34.04;797;03.50.53.247
12912;170888;34.04;798;03.50.53.247
12920;170896;34.04;799;03.50.53.258
12928;170889;34.04;800;03.50.53.345
12900;170885;34.04;801;03.50.53.345
12896;170888;34.04;802;03.50.53.345
12900;170885;34.04;803;03.50.53.356
12896;170882;34.04;804;03.50.53.356
12892;170877;34.04;805;03.50.53.356
12888;170883;34.04;806;03.50.53.356
12936;170878;34.04;807;03.50.53.356
12900;170877;34.04;808;03.50.53.356
12884;170880;34.04;809;03.50.53.356
12928;170879;34.04;810;03.50.53.356
12884;170876;34.04;811;03.50.53.356
12888;170874;34.04;812;03.50.53.356
12936;170873;34.04;813;03.50.53.356
12884;170874;34.04;814;03.50.53.356
12900;170881;34.04;815;03.50.53.367
12888;170873;34.04;816;03.50.53.367
12912;170881;34.04;817;03.50.53.378
12916;170872;34.04;818;03.50.53.378
12912;170871;34.04;819;03.50.53.378
12904;170876;34.04;820;03.50.53.389
12908;170872;34.04;821;03.50.53.389
12888;170883;34.04;822;03.50.53.389
12920;170876;34.04;823;03.50.53.389
12928;170878;34.04;824;03.50.53.389
12860;170869;34.04;825;03.50.53.477
12892;170882;34.04;826;03.50.53.477
12872;170881;34.04;827;03.50.53.477
12904;170878;34.04;828;03.50.53.477
12888;170881;34.04;829;03.50.53.477
12908;170885;34.04;830;03.50.53.477
12896;170884;34.04;831;03.50.53.477
12904;170881;34.04;832;03.50.53.477
12900;170879;34.04;833;03.50.53.477
12908;170883;34.04;834;03.50.53.477
12892;170885;34.04;835;03.50.53.477
12888;170880;34.04;836;03.50.53.477
12908;170875;34.04;837;03.50.53.488
12908;170881;34.04;838;03.50.53.488
12912;170877;34.04;839;03.50.53.488
12948;170871;34.04;840;03.50.53.488
12896;170871;34.04;841;03.50.53.488
12896;170874;34.04;842;03.50.53.488
12896;170877;34.04;843;03.50.53.488
12892;170873;34.04;844;03.50.53.488
12896;170869;34.04;845;03.50.53.488
12908;170866;34.04;846;03.50.53.488
12888;170874;34.04;847;03.50.53.488
12892;170872;34.04;848;03.50.53.488
12908;170865;34.04;849;03.50.53.488
12900;170869;34.04;850;03.50.53.586
12900;170861;34.04;851;03.50.53.586
12868;170864;34.04;852;03.50.53.586
12876;170870;34.04;853;03.50.53.586
12916;170869;34.04;854;03.50.53.586
12896;170870;34.04;855;03.50.53.586
12888;170859;34.04;856;03.50.53.586
12884;170873;34.04;857;03.50.53.586
12896;170872;34.04;858;03.50.53.619
12908;170877;34.04;859;03.50.53.619
12864;170880;34.04;860;03.50.53.619
12892;170883;34.04;861;03.50.53.619
12932;170878;34.04;862;03.50.53.619
12904;170878;34.04;863;03.50.53.619
12896;170878;34.04;864;03.50.53.619
12900;170880;34.04;865;03.50.53.619
12916;170876;34.04;866;03.50.53.630
12880;170884;34.04;867;03.50.53.630
12904;170885;34.04;868;03.50.53.630
12908;170876;34.04;869;03.50.53.630
12892;170884;34.04;870;03.50.53.630
12904;170886;34.04;871;03.50.53.630
12860;170882;34.04;872;03.50.53.630
12892;170878;34.04;873;03.50.53.630
12916;170886;34.04;874;03.50.53.630
12892;170883;34.04;875;03.50.53.707
12884;170876;34.04;876;03.50.53.707
12896;170889;34.04;877;03.50.53.707
12880;170881;34.04;878;03.50.53.707
12880;170883;34.04;879;03.50.53.718
12920;170890;34.04;880;03.50.53.718
12888;170892;34.04;881;03.50.53.718
12912;170896;34.04;882;03.50.53.718
12896;170893;34.04;883;03.50.53.718
12928;170895;34.04;884;03.50.53.718
12908;170900;34.04;885;03.50.53.718
12912;170903;34.04;886;03.50.53.718
12900;170888;34.04;887;03.50.53.718
12892;170892;34.04;888;03.50.53.729
12896;170904;34.04;889;03.50.53.729
12912;170903;34.04;890;03.50.53.729
12884;170901;34.04;891;03.50.53.729
12888;170902;34.04;892;03.50.53.740
12908;170905;34.04;893;03.50.53.740
12892;170899;34.04;894;03.50.53.740
12888;170910;34.04;895;03.50.53.740
12900;170908;34.04;896;03.50.53.751
12908;170908;34.04;897;03.50.53.751
12876;170919;34.04;898;03.50.53.751
12908;170917;34.04;899;03.50.53.751
12900;170903;34.04;900;03.50.53.839
12900;170907;34.04;901;03.50.53.839
12884;170910;34.04;902;03.50.53.839
12908;170926;34.04;903;03.50.53.839
12912;170923;34.04;904;03.50.53.839
12928;170923;34.04;905;03.50.53.839
12904;170928;34.04;906;03.50.53.839
12904;170921;34.04;907;03.50.53.839
12900;170931;34.04;908;03.50.53.839
12920;170928;34.04;909;03.50.53.839
12888;170930;34.04;910;03.50.53.839
12892;170936;34.04;911;03.50.53.839
12904;170934;34.04;912;03.50.53.839
12892;170934;34.04;913;03.50.53.839
12896;170926;34.04;914;03.50.53.851
12928;170930;34.04;915;03.50.53.851
12876;170929;34.04;916;03.50.53.851
12892;170942;34.04;917;03.50.53.851
12868;170942;34.04;918;03.50.53.851
12928;170945;34.04;919;03.50.53.851
12888;170936;34.04;920;03.50.53.851
12912;170931;34.04;921;03.50.53.851
12912;170932;34.04;922;03.50.53.851
12868;170933;34.04;923;03.50.53.851
12912;170927;34.04;924;03.50.53.851
12908;170919;34.04;925;03.50.53.971
12892;170915;34.04;926;03.50.53.971
12916;170916;34.04;927;03.50.53.971
12876;170908;34.04;928;03.50.53.971
12860;170911;34.04;929;03.50.53.971
12900;170907;34.04;930;03.50.53.971
12904;170904;34.04;931;03.50.53.971
12892;170896;34.04;932;03.50.53.971
12928;170887;34.04;933;03.50.53.971
12900;170882;34.04;934;03.50.53.971
12900;170875;34.04;935;03.50.53.982
12860;170877;34.04;936;03.50.53.982
12860;170865;34.04;937;03.50.53.982
12892;170867;34.04;938;03.50.53.982
12888;170864;34.04;939;03.50.53.982
12884;170848;34.04;940;03.50.53.982
12876;170854;34.04;941;03.50.53.982
12904;170855;34.04;942;03.50.53.982
12892;170848;34.04;943;03.50.53.982
12920;170845;34.04;944;03.50.53.982
12892;170844;34.04;945;03.50.53.982
12892;170830;34.04;946;03.50.53.982
12880;170841;34.04;947;03.50.53.982
12860;170840;34.04;948;03.50.53.993
12920;170831;34.04;949;03.50.53.993
12908;170838;34.04;950;03.50.54.103
12912;170827;34.04;951;03.50.54.103
12904;170827;34.04;952;03.50.54.103
12892;170821;34.04;953;03.50.54.103
12928;170823;34.04;954;03.50.54.103
12876;170817;34.04;955;03.50.54.103
12912;170817;34.04;956;03.50.54.114
12916;170817;34.04;957;03.50.54.114
12884;170818;34.04;958;03.50.54.114
12892;170815;34.04;959;03.50.54.114
12900;170811;34.04;960;03.50.54.114
12904;170817;34.04;961;03.50.54.114
12892;170809;34.04;962;03.50.54.114
12904;170809;34.04;963;03.50.54.114
12892;170812;34.04;964;03.50.54.114
12884;170812;34.04;965;03.50.54.114
12892;170805;34.04;966;03.50.54.114
12896;170808;34.04;967;03.50.54.114
12900;170808;34.04;968;03.50.54.114
12896;170801;34.04;969;03.50.54.125
12892;170812;34.04;970;03.50.54.125
12884;170792;34.04;971;03.50.54.125
12892;170788;34.04;972;03.50.54.125
12892;170799;34.04;973;03.50.54.125
12912;170801;34.04;974;03.50.54.125
12880;170795;34.04;975;03.50.54.234
12892;170791;34.04;976;03.50.54.234
12904;170790;34.04;977;03.50.54.245
12888;170793;34.04;978;03.50.54.245
12904;170795;34.04;979;03.50.54.245
12884;170789;34.04;980;03.50.54.245
12920;170793;34.04;981;03.50.54.245
12900;170791;34.04;982;03.50.54.245
12912;170801;34.04;983;03.50.54.245
12888;170806;34.04;984;03.50.54.245
12872;170789;34.04;985;03.50.54.245
12920;170794;34.04;986;03.50.54.245
12904;170795;34.04;987;03.50.54.245
12912;170799;34.04;988;03.50.54.245
12912;170791;34.04;989;03.50.54.245
12892;170790;34.04;990;03.50.54.245
12924;170787;34.04;991;03.50.54.257
12908;170803;34.04;992;03.50.54.257
12908;170790;34.04;993;03.50.54.257
12912;170800;34.04;994;03.50.54.257
12896;170793;34.04;995;03.50.54.268
12868;170796;34.04;996;03.50.54.268
12920;170792;34.04;997;03.50.54.268
12896;170790;34.04;998;03.50.54.268
12912;170795;34.04;999;03.50.54.268
12916;170789;34.04;000;03.50.54.344
12888;170798;34.04;001;03.50.54.344
12888;170797;34.04;002;03.50.54.344
12908;170791;34.04;003;03.50.54.344
12904;170800;34.04;004;03.50.54.344
12876;170797;34.04;005;03.50.54.344
12912;170798;34.04;006;03.50.54.344
12896;170798;34.04;007;03.50.54.344
12892;170795;34.04;008;03.50.54.355
12904;170802;34.04;009;03.50.54.355
12908;170795;34.04;010;03.50.54.355
12884;170794;34.04;011;03.50.54.355
12892;170799;34.04;012;03.50.54.355
12892;170792;34.04;013;03.50.54.355
12928;170808;34.04;014;03.50.54.355
12920;170804;34.04;015;03.50.54.355
12900;170804;34.04;016;03.50.54.355
12892;170807;34.04;017;03.50.54.377
12896;170806;34.04;018;03.50.54.377
12908;170812;34.04;019;03.50.54.377
12888;170809;34.04;020;03.50.54.377
12892;170811;34.04;021;03.50.54.377
12876;170798;34.04;022;03.50.54.377
12876;170806;34.04;023;03.50.54.377
12908;170805;34.04;024;03.50.54.377
12884;170812;34.04;025;03.50.54.465
12872;170816;34.04;026;03.50.54.465
12888;170817;34.04;027;03.50.54.465
12904;170816;34.04;028;03.50.54.465
12888;170821;34.04;029;03.50.54.465
12876;170821;34.04;030;03.50.54.465
12892;170816;34.04;031;03.50.54.465
12896;170823;34.04;032;03.50.54.465
12860;170821;34.04;033;03.50.54.465
12904;170826;34.04;034;03.50.54.476
12916;170823;34.04;035;03.50.54.476
12860;170813;34.04;036;03.50.54.476
12884;170817;34.04;037;03.50.54.476
12904;170826;34.04;038;03.50.54.476
12888;170831;34.04;039;03.50.54.476
12928;170830;34.04;040;03.50.54.476
12888;170839;34.04;041;03.50.54.476
12896;170835;34.04;042;03.50.54.487
12896;170836;34.04;043;03.50.54.487
12916;170835;34.04;044;03.50.54.487
12896;170852;34.04;045;03.50.54.487
12904;170843;34.04;046;03.50.54.487
12892;170847;34.04;047;03.50.54.487
12892;170841;34.04;048;03.50.54.487
12908;170853;34.04;049;03.50.54.487
12872;170847;34.04;050;03.50.54.597
12928;170845;34.04;051;03.50.54.597
12908;170851;34.04;052;03.50.54.597
12912;170852;34.04;053;03.50.54.597
12908;170863;34.04;054;03.50.54.597
12868;170855;34.04;055;03.50.54.608
12888;170856;34.04;056;03.50.54.608
12876;170862;34.04;057;03.50.54.608
12896;170854;34.04;058;03.50.54.608
12904;170850;34.04;059;03.50.54.608
12896;170861;34.04;060;03.50.54.608
12928;170868;34.04;061;03.50.54.608
12892;170862;34.04;062;03.50.54.608
12884;170870;34.04;063;03.50.54.608
12928;170873;34.04;064;03.50.54.608
12892;170863;34.04;065;03.50.54.608
12912;170868;34.04;066;03.50.54.608
12904;170861;34.04;067;03.50.54.608
12892;170864;34.04;068;03.50.54.619
12896;170859;34.04;069;03.50.54.619
12912;170860;34.04;070;03.50.54.619
12916;170845;34.04;071;03.50.54.619
12904;170835;34.04;072;03.50.54.619
12892;170836;34.04;073;03.50.54.619
12928;170841;34.04;074;03.50.54.619
12892;170822;34.04;075;03.50.54.706
12876;170824;34.04;076;03.50.54.706
12912;170818;34.04;077;03.50.54.717
12908;170816;34.04;078;03.50.54.717
12908;170815;34.04;079;03.50.54.717
12892;170805;34.04;080;03.50.54.717
12872;170808;34.04;081;03.50.54.717
12912;170801;34.04;082;03.50.54.717
12904;170796;34.04;083;03.50.54.717
12880;170783;34.04;084;03.50.54.728
12860;170791;34.04;085;03.50.54.728
12892;170793;34.04;086;03.50.54.728
12936;170782;34.04;087;03.50.54.728
12868;170777;34.04;088;03.50.54.728
12904;170775;34.04;089;03.50.54.728
12900;170778;34.04;090;03.50.54.728
12912;170780;34.04;091;03.50.54.728
12888;170759;34.04;092;03.50.54.728
12904;170768;34.04;093;03.50.54.728
12892;170765;34.04;094;03.50.54.728
12900;170763;34.04;095;03.50.54.728
12896;170763;34.04;096;03.50.54.728
12896;170758;34.04;097;03.50.54.728
12884;170762;34.04;098;03.50.54.739
12904;170764;34.04;099;03.50.54.739
12892;170765;34.04;100;03.50.54.838
12880;170762;34.04;101;03.50.54.838
12872;170757;34.04;102;03.50.54.838
12912;170750;34.04;103;03.50.54.838
12892;170748;34.04;104;03.50.54.838
12896;170750;34.04;105;03.50.54.838
12880;170756;34.04;106;03.50.54.838
12908;170752;34.04;107;03.50.54.838
12892;170750;34.04;108;03.50.54.838
12928;170762;34.04;109;03.50.54.838
12912;170751;34.04;110;03.50.54.838
12928;170749;34.04;111;03.50.54.849
12920;170748;34.04;112;03.50.54.849
12880;170745;34.04;113;03.50.54.849
12896;170748;34.04;114;03.50.54.849
12872;170751;34.04;115;03.50.54.849
12888;170747;34.04;116;03.50.54.849
12920;170735;34.04;117;03.50.54.849
12884;170750;34.04;118;03.50.54.849
12904;170746;34.04;119;03.50.54.849
12908;170750;34.04;120;03.50.54.849
12900;170750;34.04;121;03.50.54.849
12916;170752;34.04;122;03.50.54.849
12884;170753;34.04;123;03.50.54.849
12920;170754;34.04;124;03.50.54.859
12888;170748;34.04;125;03.50.54.958
12908;170751;34.04;126;03.50.54.958
12896;170750;34.04;127;03.50.54.958
12904;170746;34.04;128;03.50.54.958
12908;170755;34.04;129;03.50.54.958
12860;170748;34.04;130;03.50.54.958
12860;170749;34.04;131;03.50.54.969
12924;170753;34.04;132;03.50.54.969
12900;170750;34.04;133;03.50.54.969
12928;170760;34.04;134;03.50.54.969
12908;170745;34.04;135;03.50.54.969
12900;170756;34.04;136;03.50.54.969
12860;170753;34.04;137;03.50.54.969
12900;170756;34.04;138;03.50.54.969
12892;170758;34.04;139;03.50.54.969
12928;170755;34.04;140;03.50.54.969
12904;170754;34.04;141;03.50.54.969
12872;170753;34.04;142;03.50.54.969
12900;170761;34.04;143;03.50.54.969
12904;170752;34.04;144;03.50.54.980
12904;170747;34.04;145;03.50.54.980
12892;170753;34.04;146;03.50.54.980
12912;170755;34.04;147;03.50.54.980
12928;170756;34.04;148;03.50.54.980
12928;170753;34.04;149;03.50.54.980
12896;170763;34.04;150;03.50.55.089
12888;170746;34.04;151;03.50.55.089
12892;170754;34.04;152;03.50.55.100
12912;170751;34.04;153;03.50.55.100
12896;170764;34.04;154;03.50.55.100
12928;170759;34.04;155;03.50.55.100
12888;170767;34.04;156;03.50.55.100
12896;170763;34.04;157;03.50.55.100
12900;170780;34.04;158;03.50.55.100
12912;170775;34.04;159;03.50.55.100
12900;170781;34.04;160;03.50.55.100
12892;170777;34.04;161;03.50.55.100
12900;170781;34.04;162;03.50.55.100
12896;170779;34.04;163;03.50.55.100
12908;170770;34.04;164;03.50.55.100
12912;170781;34.04;165;03.50.55.111
12888;170777;34.04;166;03.50.55.111
12892;170787;34.04;167;03.50.55.111
12900;170787;34.04;168;03.50.55.111
12888;170780;34.04;169;03.50.55.111
12896;170789;34.04;170;03.50.55.111
12908;170792;34.04;171;03.50.55.111
12892;170791;34.04;172;03.50.55.111
12900;170794;34.04;173;03.50.55.111
12924;170789;34.04;174;03.50.55.111
12896;170787;34.04;175;03.50.55.232
12880;170793;34.04;176;03.50.55.232
12900;170791;34.04;177;03.50.55.232
12912;170798;34.04;178;03.50.55.232
12888;170793;34.04;179;03.50.55.232
12920;170794;34.04;180;03.50.55.232
12880;170800;34.04;181;03.50.55.232
12876;170805;34.04;182;03.50.55.232
12912;170803;34.04;183;03.50.55.232
12892;170800;34.04;184;03.50.55.232
12884;170807;34.04;185;03.50.55.232
12884;170804;34.04;186;03.50.55.243
12904;170807;34.04;187;03.50.55.243
12900;170813;34.04;188;03.50.55.243
12904;170809;34.04;189;03.50.55.243
12892;170813;34.04;190;03.50.55.243
12928;170822;34.04;191;03.50.55.243
12928;170814;34.04;192;03.50.55.243
12892;170815;34.04;193;03.50.55.243
12884;170825;34.04;194;03.50.55.243
12888;170822;34.04;195;03.50.55.243
12912;170829;34.04;196;03.50.55.243
12876;170826;34.04;197;03.50.55.243
12900;170830;34.04;198;03.50.55.243
12908;170821;34.04;199;03.50.55.254
12880;170833;34.04;200;03.50.55.341
12892;170833;34.04;201;03.50.55.341
12900;170835;34.04;202;03.50.55.341
12908;170833;34.04;203;03.50.55.341
12888;170825;34.04;204;03.50.55.341
12888;170826;34.04;205;03.50.55.341
12884;170835;34.04;206;03.50.55.341
12884;170841;34.04;207;03.50.55.341
12896;170830;34.04;208;03.50.55.352
12892;170842;34.04;209;03.50.55.352
12896;170839;34.04;210;03.50.55.352
12892;170844;34.04;211;03.50.55.352
12892;170845;34.04;212;03.50.55.352
12944;170842;34.04;213;03.50.55.352
12904;170837;34.04;214;03.50.55.352
12876;170857;34.04;215;03.50.55.363
12872;170853;34.04;216;03.50.55.363
12904;170862;34.04;217;03.50.55.363
12888;170857;34.04;218;03.50.55.363
12912;170852;34.04;219;03.50.55.363
12904;170857;34.04;220;03.50.55.363
12884;170863;34.04;221;03.50.55.363
12900;170863;34.04;222;03.50.55.363
12904;170866;34.04;223;03.50.55.363
12928;170854;34.04;224;03.50.55.363
12884;170870;34.00;225;03.50.55.462
12884;170863;34.00;226;03.50.55.462
12912;170873;34.00;227;03.50.55.462
12888;170875;34.00;228;03.50.55.462
12884;170872;34.00;229;03.50.55.473
12876;170874;34.00;230;03.50.55.473
12880;170880;34.00;231;03.50.55.473
12896;170877;34.00;232;03.50.55.473
12908;170894;34.00;233;03.50.55.473
12896;170886;34.00;234;03.50.55.473
12888;170887;34.00;235;03.50.55.473
12876;170891;34.00;236;03.50.55.473
12896;170892;34.00;237;03.50.55.473
12916;170891;34.00;238;03.50.55.484
12888;170891;34.00;239;03.50.55.484
12888;170893;34.00;240;03.50.55.484
12896;170902;34.00;241;03.50.55.484
12896;170912;34.00;242;03.50.55.506
12904;170903;34.00;243;03.50.55.506
12892;170909;34.00;244;03.50.55.506
12900;170905;34.00;245;03.50.55.506
12900;170912;34.00;246;03.50.55.517
12888;170921;34.00;247;03.50.55.517
12904;170921;34.00;248;03.50.55.517
12888;170915;34.00;249;03.50.55.517
12884;170914;34.00;250;03.50.55.593
12908;170910;34.00;251;03.50.55.593
12904;170912;34.00;252;03.50.55.593
12908;170917;34.00;253;03.50.55.593
12900;170903;34.00;254;03.50.55.593
12892;170907;34.00;255;03.50.55.593
12928;170901;34.00;256;03.50.55.593
12892;170884;34.00;257;03.50.55.593
12900;170882;34.00;258;03.50.55.593
12896;170863;34.00;259;03.50.55.593
12924;170873;34.00;260;03.50.55.593
12892;170863;34.00;261;03.50.55.593
12896;170865;34.00;262;03.50.55.593
12880;170854;34.00;263;03.50.55.604
12876;170854;34.00;264;03.50.55.604
12932;170850;34.00;265;03.50.55.604
12892;170844;34.00;266;03.50.55.604
12908;170838;34.00;267;03.50.55.604
12876;170836;34.00;268;03.50.55.604
12904;170832;34.00;269;03.50.55.604
12880;170830;34.00;270;03.50.55.604
12912;170821;34.00;271;03.50.55.604
12888;170814;34.00;272;03.50.55.604
12920;170813;34.00;273;03.50.55.604
12928;170808;34.00;274;03.50.55.604
12900;170808;34.00;275;03.50.55.725
12892;170812;34.00;276;03.50.55.725
12888;170801;34.00;277;03.50.55.725
12892;170808;34.00;278;03.50.55.725
12912;170800;34.00;279;03.50.55.725
12912;170801;34.00;280;03.50.55.725
12868;170787;34.00;281;03.50.55.725
12892;170792;34.00;282;03.50.55.725
12892;170792;34.00;283;03.50.55.725
12908;170794;34.00;284;03.50.55.736
12884;170797;34.00;285;03.50.55.736
12876;170793;34.00;286;03.50.55.736
12900;170798;34.00;287;03.50.55.736
12912;170797;34.00;288;03.50.55.736
12860;170790;34.00;289;03.50.55.736
12896;170792;34.00;290;03.50.55.736
12884;170792;34.00;291;03.50.55.736
12908;170792;34.00;292;03.50.55.736
12924;170791;34.00;293;03.50.55.736
12904;170790;34.00;294;03.50.55.736
12944;170789;34.00;295;03.50.55.736
12928;170792;34.00;296;03.50.55.736
12904;170789;34.00;297;03.50.55.747
12892;170784;34.00;298;03.50.55.747
12928;170798;34.00;299;03.50.55.747
12896;170778;34.00;300;03.50.55.834
12884;170790;34.00;301;03.50.55.834
12880;170790;34.00;302;03.50.55.834
12892;170786;34.00;303;03.50.55.834
12880;170781;34.00;304;03.50.55.834
12900;170790;34.00;305;03.50.55.834
12900;170797;34.00;306;03.50.55.845
12888;170788;34.00;307;03.50.55.845
12884;170803;34.00;308;03.50.55.845
12884;170791;34.00;309;03.50.55.845
12880;170795;34.00;310;03.50.55.845
12900;170796;34.00;311;03.50.55.845
12896;170795;34.00;312;03.50.55.845
12892;170801;34.00;313;03.50.55.856
12916;170802;34.00;314;03.50.55.856
12896;170792;34.00;315;03.50.55.856
12892;170790;34.00;316;03.50.55.856
12920;170801;34.00;317;03.50.55.856
12908;170798;34.00;318;03.50.55.856
12896;170801;34.00;319;03.50.55.856
12868;170800;34.00;320;03.50.55.856
12928;170798;34.00;321;03.50.55.856
12900;170798;34.00;322;03.50.55.856
12908;170802;34.00;323;03.50.55.867
12900;170796;34.00;324;03.50.55.867
12900;170799;34.04;325;03.50.55.956
12896;170799;34.04;326;03.50.55.956
12884;170796;34.04;327;03.50.55.956
12892;170804;34.04;328;03.50.55.957
12904;170797;34.04;329;03.50.55.968
12892;170795;34.04;330;03.50.55.968
12860;170794;34.04;331;03.50.55.968
12900;170795;34.04;332;03.50.55.968
12860;170797;34.04;333;03.50.55.968
12904;170804;34.04;334;03.50.55.968
12912;170795;34.04;335;03.50.55.968
12908;170791;34.04;336;03.50.55.968
12880;170802;34.04;337;03.50.55.968
12884;170809;34.04;338;03.50.55.968
12932;170799;34.04;339;03.50.55.968
12896;170791;34.04;340;03.50.55.968
12896;170805;34.04;341;03.50.55.968
12904;170804;34.04;342;03.50.55.979
12912;170810;34.04;343;03.50.55.979
12912;170812;34.04;344;03.50.55.979
12904;170816;34.04;345;03.50.55.979
12904;170820;34.04;346;03.50.55.979
12904;170822;34.04;347;03.50.55.979
12892;170827;34.04;348;03.50.55.979
12908;170819;34.04;349;03.50.55.979
12860;170825;34.04;350;03.50.56.088
12892;170824;34.04;351;03.50.56.088
12900;170824;34.04;352;03.50.56.088
12916;170834;34.04;353;03.50.56.088
12908;170835;34.04;354;03.50.56.088
12920;170834;34.04;355;03.50.56.088
12884;170824;34.04;356;03.50.56.088
12892;170823;34.04;357;03.50.56.088
12888;170830;34.04;358;03.50.56.088
12892;170828;34.04;359;03.50.56.088
12904;170836;34.04;360;03.50.56.088
12916;170836;34.04;361;03.50.56.088
12904;170837;34.04;362;03.50.56.099
12928;170836;34.04;363;03.50.56.099
12888;170845;34.04;364;03.50.56.099
12884;170845;34.04;365;03.50.56.099
12892;170839;34.04;366;03.50.56.099
12928;170841;34.04;367;03.50.56.099
12888;170852;34.04;368;03.50.56.099
12888;170850;34.04;369;03.50.56.099
12884;170845;34.04;370;03.50.56.099
12884;170847;34.04;371;03.50.56.099
12888;170843;34.04;372;03.50.56.099
12880;170854;34.04;373;03.50.56.099
12892;170852;34.04;374;03.50.56.099
12900;170851;34.04;375;03.50.56.220
12904;170854;34.04;376;03.50.56.220
12896;170856;34.04;377;03.50.56.220
12900;170851;34.04;378;03.50.56.220
12908;170860;34.04;379;03.50.56.220
12928;170859;34.04;380;03.50.56.220
12900;170859;34.04;381;03.50.56.220
12892;170857;34.04;382;03.50.56.220
12892;170866;34.04;383;03.50.56.220
12928;170867;34.04;384;03.50.56.231
12892;170867;34.04;385;03.50.56.231
12896;170868;34.04;386;03.50.56.231
12892;170867;34.04;387;03.50.56.231
12892;170862;34.04;388;03.50.56.231
12900;170859;34.04;389;03.50.56.231
12896;170873;34.04;390;03.50.56.231
12872;170876;34.04;391;03.50.56.231
12908;170871;34.04;392;03.50.56.231
12912;170879;34.04;393;03.50.56.231
12908;170875;34.04;394;03.50.56.231
12904;170882;34.04;395;03.50.56.231
12900;170875;34.04;396;03.50.56.231
12908;170872;34.04;397;03.50.56.242
12880;170881;34.04;398;03.50.56.242
12944;170882;34.04;399;03.50.56.242
12912;170884;34.04;400;03.50.56.352
12888;170893;34.04;401;03.50.56.352
12896;170885;34.04;402;03.50.56.352
12876;170898;34.04;403;03.50.56.352
12888;170889;34.04;404;03.50.56.352
12872;170887;34.04;405;03.50.56.363
12896;170896;34.04;406;03.50.56.363
12908;170889;34.04;407;03.50.56.363
12876;170895;34.04;408;03.50.56.363
12880;170898;34.04;409;03.50.56.363
12912;170900;34.04;410;03.50.56.363
12928;170903;34.04;411;03.50.56.363
12892;170901;34.04;412;03.50.56.363
12892;170903;34.04;413;03.50.56.363
12896;170908;34.04;414;03.50.56.363
12928;170915;34.04;415;03.50.56.363
12892;170903;34.04;416;03.50.56.363
12900;170913;34.04;417;03.50.56.363
12916;170913;34.04;418;03.50.56.374
12900;170914;34.04;419;03.50.56.374
12892;170917;34.04;420;03.50.56.374
12868;170915;34.04;421;03.50.56.374
12900;170921;34.04;422;03.50.56.374
12892;170911;34.04;423;03.50.56.374
12944;170925;34.04;424;03.50.56.374
12888;170920;34.04;425;03.50.56.460
12896;170927;34.04;426;03.50.56.471
12948;170933;34.04;427;03.50.56.471
12888;170932;34.04;428;03.50.56.471
12912;170930;34.04;429;03.50.56.471
12884;170930;34.04;430;03.50.56.471
12900;170934;34.04;431;03.50.56.471
12876;170936;34.04;432;03.50.56.471
12884;170931;34.04;433;03.50.56.482
12904;170921;34.04;434;03.50.56.482
12888;170923;34.04;435;03.50.56.482
12896;170921;34.04;436;03.50.56.482
12908;170922;34.04;437;03.50.56.482
12884;170916;34.04;438;03.50.56.482
12908;170910;34.04;439;03.50.56.482
12896;170901;34.04;440;03.50.56.482
12908;170906;34.04;441;03.50.56.482
12888;170897;34.04;442;03.50.56.482
12900;170895;34.04;443;03.50.56.493
12904;170888;34.04;444;03.50.56.493
12928;170881;34.04;445;03.50.56.493
12916;170869;34.04;446;03.50.56.493
12880;170866;34.04;447;03.50.56.493
12896;170874;34.04;448;03.50.56.493
12912;170874;34.04;449;03.50.56.493
12896;170862;34.04;450;03.50.56.592
12900;170855;34.04;451;03.50.56.592
12900;170847;34.04;452;03.50.56.592
12904;170850;34.04;453;03.50.56.592
12896;170836;34.04;454;03.50.56.592
12888;170832;34.04;455;03.50.56.592
12904;170835;34.04;456;03.50.56.592
12896;170831;34.04;457;03.50.56.592
12912;170820;34.04;458;03.50.56.592
12904;170820;34.04;459;03.50.56.592
12888;170827;34.04;460;03.50.56.603
12908;170812;34.04;461;03.50.56.603
12900;170809;34.04;462;03.50.56.603
12900;170820;34.04;463;03.50.56.603
12900;170820;34.04;464;03.50.56.603
12888;170812;34.04;465;03.50.56.603
12912;170811;34.04;466;03.50.56.603
12904;170809;34.04;467;03.50.56.603
12884;170813;34.04;468;03.50.56.603
12932;170804;34.04;469;03.50.56.603
12912;170797;34.04;470;03.50.56.603
12928;170800;34.04;471;03.50.56.603
12876;170814;34.04;472;03.50.56.614
12880;170806;34.04;473;03.50.56.614
12908;170808;34.04;474;03.50.56.614
12884;170800;34.04;475;03.50.56.723
12884;170797;34.04;476;03.50.56.723
12928;170798;34.04;477;03.50.56.723
12896;170800;34.04;478;03.50.56.723
12876;170812;34.04;479;03.50.56.723
12912;170800;34.04;480;03.50.56.734
12896;170810;34.04;481;03.50.56.734
12900;170799;34.04;482;03.50.56.734
12880;170805;34.04;483;03.50.56.734
12896;170806;34.04;484;03.50.56.734
12896;170809;34.04;485;03.50.56.734
12888;170813;34.04;486;03.50.56.734
12880;170804;34.04;487;03.50.56.734
12912;170804;34.04;488;03.50.56.734
12884;170803;34.04;489;03.50.56.734
12896;170810;34.04;490;03.50.56.734
12888;170809;34.04;491;03.50.56.734
12868;170808;34.04;492;03.50.56.734
12896;170809;34.04;493;03.50.56.745
12912;170811;34.04;494;03.50.56.745
12904;170807;34.04;495;03.50.56.745
12876;170814;34.04;496;03.50.56.745
12896;170812;34.04;497;03.50.56.745
12892;170805;34.04;498;03.50.56.745
12908;170806;34.04;499;03.50.56.745
12904;170807;34.04;500;03.50.56.844
12916;170809;34.04;501;03.50.56.844
12860;170802;34.04;502;03.50.56.855
12880;170802;34.04;503;03.50.56.855
12916;170810;34.04;504;03.50.56.855
12908;170808;34.04;505;03.50.56.855
12896;170815;34.04;506;03.50.56.855
12928;170806;34.04;507;03.50.56.855
12900;170810;34.04;508;03.50.56.855
12904;170810;34.04;509;03.50.56.855
12924;170814;34.04;510;03.50.56.855
12896;170811;34.04;511;03.50.56.855
12916;170816;34.04;512;03.50.56.855
12900;170814;34.04;513;03.50.56.855
12884;170815;34.04;514;03.50.56.866
12896;170812;34.04;515;03.50.56.866
12908;170807;34.04;516;03.50.56.866
12892;170815;34.04;517;03.50.56.866
12892;170822;34.04;518;03.50.56.866
12908;170806;34.04;519;03.50.56.866
12876;170817;34.04;520;03.50.56.866
12928;170811;34.04;521;03.50.56.866
12888;170823;34.04;522;03.50.56.866
12892;170818;34.04;523;03.50.56.866
12912;170810;34.04;524;03.50.56.866
12896;170828;34.04;525;03.50.56.964
12880;170821;34.04;526;03.50.56.964
12912;170828;34.04;527;03.50.56.964
12932;170826;34.04;528;03.50.56.964
12896;170814;34.04;529;03.50.56.964
12908;170821;34.04;530;03.50.56.964
12888;170830;34.04;531;03.50.56.964
12892;170826;34.04;532;03.50.56.964
12916;170831;34.04;533;03.50.56.975
12904;170831;34.04;534;03.50.56.975
12860;170839;34.04;535;03.50.56.975
12876;170826;34.04;536;03.50.56.975
12880;170829;34.04;537;03.50.56.975
12904;170834;34.04;538;03.50.56.975
12884;170834;34.04;539;03.50.56.975
12880;170831;34.04;540;03.50.56.975
12896;170839;34.04;541;03.50.56.975
12888;170838;34.04;542;03.50.56.975
12908;170848;34.04;543;03.50.56.986
12904;170843;34.04;544;03.50.56.986
12888;170846;34.04;545;03.50.56.986
12904;170844;34.04;546;03.50.56.986
12900;170847;34.04;547;03.50.56.986
12880;170853;34.04;548;03.50.56.986
12904;170849;34.04;549;03.50.56.986
12844;170863;34.04;550;03.50.57.084
12884;170850;34.04;551;03.50.57.084
12872;170859;34.04;552;03.50.57.084
12904;170852;34.04;553;03.50.57.084
12888;170864;34.04;554;03.50.57.084
12884;170858;34.04;555;03.50.57.084
12908;170855;34.04;556;03.50.57.084
12884;170857;34.04;557;03.50.57.095
12880;170870;34.04;558;03.50.57.095
12908;170865;34.04;559;03.50.57.095
12904;170868;34.04;560;03.50.57.095
12892;170870;34.04;561;03.50.57.095
12892;170871;34.04;562;03.50.57.095
12904;170874;34.04;563;03.50.57.095
12896;170871;34.04;564;03.50.57.095
12892;170881;34.04;565;03.50.57.095
12908;170877;34.04;566;03.50.57.095
12896;170873;34.04;567;03.50.57.095
12896;170877;34.04;568;03.50.57.095
12896;170885;34.04;569;03.50.57.095
12908;170877;34.04;570;03.50.57.106
12928;170881;34.04;571;03.50.57.106
12896;170875;34.04;572;03.50.57.106
12932;170883;34.04;573;03.50.57.106
12932;170883;34.04;574;03.50.57.106
12904;170881;34.04;575;03.50.57.216
12892;170884;34.04;576;03.50.57.216
12928;170887;34.04;577;03.50.57.216
12908;170894;34.04;578;03.50.57.227
12912;170900;34.04;579;03.50.57.227
12884;170894;34.04;580;03.50.57.227
12904;170905;34.04;581;03.50.57.227
12904;170904;34.04;582;03.50.57.227
12876;170904;34.04;583;03.50.57.227
12908;170908;34.04;584;03.50.57.227
12876;170907;34.04;585;03.50.57.227
12888;170905;34.04;586;03.50.57.227
12876;170911;34.04;587;03.50.57.227
12888;170914;34.04;588;03.50.57.227
12884;170916;34.04;589;03.50.57.227
12904;170914;34.04;590;03.50.57.227
12892;170915;34.04;591;03.50.57.238
12900;170917;34.04;592;03.50.57.238
12900;170912;34.04;593;03.50.57.238
12880;170906;34.04;594;03.50.57.238
12888;170909;34.04;595;03.50.57.238
12912;170911;34.04;596;03.50.57.238
12900;170919;34.04;597;03.50.57.238
12908;170913;34.04;598;03.50.57.238
12920;170923;34.04;599;03.50.57.238
12900;170924;34.04;600;03.50.57.359
12888;170924;34.04;601;03.50.57.359
12876;170927;34.04;602;03.50.57.359
12904;170927;34.04;603;03.50.57.359
12908;170928;34.04;604;03.50.57.359
12928;170933;34.04;605;03.50.57.359
12924;170933;34.04;606;03.50.57.359
12912;170925;34.04;607;03.50.57.359
12892;170934;34.04;608;03.50.57.359
12900;170929;34.04;609;03.50.57.359
12888;170935;34.04;610;03.50.57.359
12904;170934;34.04;611;03.50.57.359
12896;170945;34.04;612;03.50.57.370
12896;170937;34.04;613;03.50.57.370
12876;170940;34.04;614;03.50.57.370
12896;170940;34.04;615;03.50.57.370
12928;170932;34.04;616;03.50.57.370
12900;170933;34.04;617;03.50.57.370
12876;170934;34.04;618;03.50.57.370
12912;170925;34.04;619;03.50.57.370
12892;170924;34.04;620;03.50.57.370
12876;170918;34.04;621;03.50.57.370
12912;170913;34.04;622;03.50.57.370
12924;170912;34.04;623;03.50.57.370
12912;170913;34.04;624;03.50.57.370
12892;170900;34.04;625;03.50.57.490
12868;170900;34.04;626;03.50.57.490
12896;170889;34.04;627;03.50.57.490
12908;170886;34.04;628;03.50.57.490
12888;170888;34.04;629;03.50.57.490
12860;170871;34.04;630;03.50.57.490
12904;170873;34.04;631;03.50.57.490
12892;170867;34.04;632;03.50.57.490
12892;170862;34.04;633;03.50.57.490
12900;170861;34.04;634;03.50.57.501
12912;170854;34.04;635;03.50.57.501
12900;170846;34.04;636;03.50.57.501
12912;170852;34.04;637;03.50.57.501
12896;170838;34.04;638;03.50.57.501
12888;170842;34.04;639;03.50.57.501
12912;170844;34.04;640;03.50.57.501
12876;170838;34.04;641;03.50.57.501
12916;170840;34.04;642;03.50.57.501
12892;170827;34.04;643;03.50.57.501
12896;170841;34.04;644;03.50.57.501
12896;170836;34.04;645;03.50.57.501
12888;170836;34.04;646;03.50.57.512
12920;170838;34.04;647;03.50.57.512
12856;170837;34.04;648;03.50.57.512
12912;170835;34.04;649;03.50.57.512
12888;170833;34.04;650;03.50.57.589
12912;170824;34.04;651;03.50.57.589
12888;170827;34.04;652;03.50.57.589
12944;170831;34.04;653;03.50.57.589
12860;170825;34.04;654;03.50.57.589
12896;170824;34.04;655;03.50.57.600
12900;170828;34.04;656;03.50.57.600
12912;170816;34.04;657;03.50.57.600
12932;170826;34.04;658;03.50.57.600
12900;170825;34.04;659;03.50.57.600
12896;170825;34.04;660;03.50.57.600
12880;170824;34.04;661;03.50.57.600
12876;170829;34.04;662;03.50.57.600
12908;170823;34.04;663;03.50.57.600
12900;170831;34.04;664;03.50.57.600
12892;170828;34.04;665;03.50.57.611
12864;170824;34.04;666;03.50.57.611
12920;170828;34.04;667;03.50.57.622
12928;170819;34.04;668;03.50.57.622
12908;170818;34.04;669;03.50.57.622
12892;170820;34.04;670;03.50.57.622
12912;170833;34.04;671;03.50.57.622
12912;170825;34.04;672;03.50.57.633
12892;170819;34.04;673;03.50.57.633
12908;170825;34.04;674;03.50.57.633
12900;170823;34.04;675;03.50.57.710
12912;170823;34.04;676;03.50.57.721
12896;170816;34.04;677;03.50.57.721
12920;170827;34.04;678;03.50.57.721
12900;170831;34.04;679;03.50.57.721
12892;170815;34.04;680;03.50.57.721
12904;170827;34.04;681;03.50.57.721
12884;170826;34.04;682;03.50.57.721
12896;170831;34.04;683;03.50.57.721
12908;170823;34.04;684;03.50.57.721
12928;170834;34.04;685;03.50.57.721
12920;170819;34.04;686;03.50.57.732
12896;170830;34.04;687;03.50.57.732
12908;170823;34.04;688;03.50.57.732
12892;170824;34.04;689;03.50.57.732
12900;170828;34.04;690;03.50.57.732
12916;170830;34.04;691;03.50.57.732
12940;170820;34.04;692;03.50.57.732
12912;170824;34.04;693;03.50.57.732
12884;170826;34.04;694;03.50.57.732
12880;170830;34.04;695;03.50.57.732
12876;170830;34.04;696;03.50.57.732
12896;170833;34.04;697;03.50.57.732
12896;170827;34.04;698;03.50.57.732
12912;170825;34.04;699;03.50.57.743
12884;170826;34.04;700;03.50.57.852
12904;170839;34.04;701;03.50.57.852
12896;170844;34.04;702;03.50.57.852
12920;170844;34.04;703;03.50.57.852
12900;170835;34.04;704;03.50.57.852
12928;170838;34.04;705;03.50.57.852
12880;170845;34.04;706;03.50.57.852
12904;170849;34.04;707;03.50.57.852
12904;170847;34.04;708;03.50.57.852
12912;170844;34.04;709;03.50.57.852
12884;170852;34.04;710;03.50.57.852
12900;170837;34.04;711;03.50.57.863
12884;170842;34.04;712;03.50.57.863
12888;170858;34.04;713;03.50.57.863
12912;170847;34.04;714;03.50.57.863
12908;170851;34.04;715;03.50.57.863
12884;170853;34.04;716;03.50.57.863
12928;170857;34.04;717;03.50.57.863
12860;170850;34.04;718;03.50.57.863
12904;170856;34.04;719;03.50.57.863
12912;170859;34.04;720;03.50.57.863
12880;170863;34.04;721;03.50.57.863
12888;170863;34.04;722;03.50.57.863
12912;170870;34.04;723;03.50.57.874
12920;170864;34.04;724;03.50.57.874
12912;170871;34.00;725;03.50.57.972
12884;170868;34.00;726;03.50.57.972
12896;170872;34.00;727;03.50.57.972
12892;170868;34.00;728;03.50.57.972
12920;170871;34.00;729;03.50.57.972
12884;170873;34.00;730;03.50.57.972
12912;170878;34.00;731;03.50.57.972
12884;170883;34.00;732;03.50.57.983
12884;170883;34.00;733;03.50.57.983
12908;170874;34.00;734;03.50.57.983
12888;170884;34.00;735;03.50.57.983
12912;170886;34.00;736;03.50.57.983
12888;170878;34.00;737;03.50.57.983
12880;170881;34.00;738;03.50.57.983
12892;170882;34.00;739;03.50.57.983
12884;170889;34.00;740;03.50.57.983
12896;170884;34.00;741;03.50.57.983
12888;170890;34.00;742;03.50.57.983
12916;170887;34.00;743;03.50.57.983
12912;170891;34.00;744;03.50.57.983
12904;170898;34.00;745;03.50.57.994
12928;170893;34.00;746;03.50.57.994
12908;170892;34.00;747;03.50.57.994
12904;170902;34.00;748;03.50.57.994
12924;170900;34.00;749;03.50.57.994
12912;170909;34.00;750;03.50.58.082
12904;170907;34.00;751;03.50.58.082
12888;170905;34.00;752;03.50.58.093
12888;170905;34.00;753;03.50.58.093
12888;170912;34.00;754;03.50.58.093
12892;170910;34.00;755;03.50.58.093
12884;170909;34.00;756;03.50.58.093
12888;170914;34.00;757;03.50.58.093
12904;170916;34.00;758;03.50.58.093
12900;170925;34.00;759;03.50.58.093
12900;170924;34.00;760;03.50.58.093
12900;170921;34.00;761;03.50.58.104
12884;170920;34.00;762;03.50.58.104
12912;170914;34.00;763;03.50.58.104
12928;170929;34.00;764;03.50.58.104
12924;170927;34.00;765;03.50.58.104
12876;170925;34.00;766;03.50.58.104
12888;170928;34.00;767;03.50.58.115
12928;170927;34.00;768;03.50.58.115
12900;170935;34.00;769;03.50.58.126
12928;170929;34.00;770;03.50.58.126
12904;170930;34.00;771;03.50.58.126
12892;170928;34.00;772;03.50.58.126
12888;170936;34.00;773;03.50.58.126
12928;170935;34.00;774;03.50.58.126
12912;170936;34.00;775;03.50.58.213
12904;170929;34.00;776;03.50.58.213
12892;170937;34.00;777;03.50.58.213
12892;170933;34.00;778;03.50.58.213
12892;170939;34.00;779;03.50.58.213
12884;170944;34.00;780;03.50.58.213
12908;170946;34.00;781;03.50.58.213
12892;170947;34.00;782;03.50.58.213
12908;170949;34.00;783;03.50.58.213
12916;170945;34.00;784;03.50.58.213
12888;170947;34.00;785;03.50.58.213
12892;170950;34.00;786;03.50.58.224
12884;170954;34.00;787;03.50.58.224
12896;170950;34.00;788;03.50.58.224
12904;170958;34.00;789;03.50.58.224
12900;170953;34.00;790;03.50.58.224
12928;170957;34.00;791;03.50.58.224
12908;170952;34.00;792;03.50.58.224
12908;170952;34.00;793;03.50.58.224
12880;170957;34.00;794;03.50.58.224
12928;170957;34.00;795;03.50.58.224
12892;170969;34.00;796;03.50.58.224
12912;170956;34.00;797;03.50.58.224
12904;170947;34.00;798;03.50.58.224
12944;170952;34.00;799;03.50.58.235
12932;170946;34.00;800;03.50.58.344
12880;170946;34.00;801;03.50.58.344
12900;170938;34.00;802;03.50.58.344
12908;170940;34.00;803;03.50.58.344
12904;170932;34.00;804;03.50.58.344
12872;170942;34.00;805;03.50.58.344
12900;170934;34.00;806;03.50.58.344
12920;170930;34.00;807;03.50.58.355
12908;170924;34.00;808;03.50.58.355
12888;170913;34.00;809;03.50.58.355
12900;170911;34.00;810;03.50.58.355
12908;170910;34.00;811;03.50.58.355
12904;170909;34.00;812;03.50.58.355
12884;170909;34.00;813;03.50.58.355
12888;170901;34.00;814;03.50.58.355
12892;170900;34.00;815;03.50.58.355
12892;170891;34.00;816;03.50.58.355
12884;170887;34.00;817;03.50.58.355
12904;170885;34.00;818;03.50.58.355
12908;170881;34.00;819;03.50.58.355
12900;170877;34.00;820;03.50.58.367
12884;170876;34.00;821;03.50.58.367
12888;170883;34.00;822;03.50.58.367
12884;170880;34.00;823;03.50.58.367
12928;170876;34.00;824;03.50.58.367
12892;170868;34.04;825;03.50.58.477
12928;170871;34.04;826;03.50.58.477
12908;170859;34.04;827;03.50.58.477
12892;170865;34.04;828;03.50.58.477
12888;170864;34.04;829;03.50.58.477
12892;170870;34.04;830;03.50.58.477
12884;170864;34.04;831;03.50.58.492
12888;170872;34.04;832;03.50.58.492
12860;170875;34.04;833;03.50.58.492
12908;170871;34.04;834;03.50.58.492
12908;170862;34.04;835;03.50.58.492
12876;170864;34.04;836;03.50.58.492
12908;170861;34.04;837;03.50.58.492
12888;170856;34.04;838;03.50.58.492
12904;170861;34.04;839;03.50.58.492
12916;170865;34.04;840;03.50.58.492
12904;170865;34.04;841;03.50.58.492
12900;170865;34.04;842;03.50.58.492
12908;170862;34.04;843;03.50.58.492
12928;170868;34.04;844;03.50.58.492
12920;170866;34.04;845;03.50.58.492
12904;170860;34.04;846;03.50.58.492
12884;170863;34.04;847;03.50.58.492
12884;170869;34.04;848;03.50.58.503
12884;170872;34.04;849;03.50.58.503
12904;170864;34.04;850;03.50.58.592
12928;170865;34.04;851;03.50.58.592
12904;170868;34.04;852;03.50.58.592
12900;170865;34.04;853;03.50.58.592
12888;170871;34.04;854;03.50.58.592
12892;170865;34.04;855;03.50.58.592
12904;170881;34.04;856;03.50.58.592
12896;170875;34.04;857;03.50.58.603
12900;170871;34.04;858;03.50.58.614
12904;170872;34.04;859;03.50.58.614
12892;170868;34.04;860;03.50.58.614
12908;170873;34.04;861;03.50.58.614
12884;170885;34.04;862;03.50.58.614
12920;170887;34.04;863;03.50.58.614
12892;170881;34.04;864;03.50.58.614
12884;170880;34.04;865;03.50.58.625
12892;170882;34.04;866;03.50.58.625
12892;170890;34.04;867;03.50.58.625
12896;170875;34.04;868;03.50.58.625
12880;170886;34.04;869;03.50.58.625
12920;170876;34.04;870;03.50.58.625
12892;170881;34.04;871;03.50.58.625
12892;170878;34.04;872;03.50.58.625
12904;170878;34.04;873;03.50.58.625
12944;170877;34.04;874;03.50.58.625
12904;170881;34.04;875;03.50.58.712
12908;170891;34.04;876;03.50.58.712
12916;170875;34.04;877;03.50.58.712
12908;170885;34.04;878;03.50.58.712
12916;170888;34.04;879;03.50.58.713
12880;170884;34.04;880;03.50.58.724
12892;170886;34.04;881;03.50.58.724
12872;170887;34.04;882;03.50.58.724
12936;170891;34.04;883;03.50.58.724
12912;170902;34.04;884;03.50.58.724
12884;170881;34.04;885;03.50.58.724
12868;170894;34.04;886;03.50.58.724
12884;170901;34.04;887;03.50.58.724
12904;170898;34.04;888;03.50.58.724
12896;170902;34.04;889;03.50.58.737
12928;170899;34.04;890;03.50.58.737
12900;170898;34.04;891;03.50.58.737
12888;170898;34.04;892;03.50.58.748
12900;170899;34.04;893;03.50.58.748
12904;170908;34.04;894;03.50.58.748
12884;170904;34.04;895;03.50.58.748
12916;170908;34.04;896;03.50.58.748
12912;170907;34.04;897;03.50.58.748
12884;170897;34.04;898;03.50.58.759
12932;170906;34.04;899;03.50.58.759
12876;170905;34.04;900;03.50.58.836
12892;170911;34.04;901;03.50.58.836
12908;170912;34.04;902;03.50.58.836
12888;170912;34.04;903;03.50.58.847
12900;170915;34.04;904;03.50.58.847
12888;170919;34.04;905;03.50.58.847
12876;170914;34.04;906;03.50.58.847
12908;170918;34.04;907;03.50.58.847
12928;170921;34.04;908;03.50.58.847
12884;170922;34.04;909;03.50.58.847
12892;170927;34.04;910;03.50.58.847
12876;170926;34.04;911;03.50.58.847
12892;170937;34.04;912;03.50.58.847
12936;170932;34.04;913;03.50.58.847
12928;170941;34.04;914;03.50.58.847
12900;170933;34.04;915;03.50.58.847
12904;170936;34.04;916;03.50.58.858
12940;170932;34.04;917;03.50.58.858
12888;170933;34.04;918;03.50.58.858
12908;170946;34.04;919;03.50.58.858
12916;170941;34.04;920;03.50.58.858
12892;170946;34.04;921;03.50.58.869
12868;170947;34.04;922;03.50.58.869
12932;170937;34.04;923;03.50.58.869
12892;170941;34.04;924;03.50.58.869
12916;170942;34.04;925;03.50.58.972
12896;170952;34.04;926;03.50.58.972
12928;170950;34.04;927;03.50.58.972
12892;170951;34.04;928;03.50.58.972
12896;170955;34.04;929;03.50.58.983
12912;170950;34.04;930;03.50.58.983
12912;170951;34.04;931;03.50.58.983
12896;170946;34.04;932;03.50.58.983
12912;170952;34.04;933;03.50.58.983
12888;170951;34.04;934;03.50.58.983
12928;170956;34.04;935;03.50.58.983
12904;170955;34.04;936;03.50.58.983
12892;170948;34.04;937;03.50.58.983
12876;170939;34.04;938;03.50.58.983
12892;170954;34.04;939;03.50.58.983
12908;170970;34.04;940;03.50.58.983
12912;170958;34.04;941;03.50.58.994
12908;170956;34.04;942;03.50.58.994
12900;170962;34.04;943;03.50.58.994
12876;170965;34.04;944;03.50.58.994
12924;170965;34.04;945;03.50.58.994
12928;170958;34.04;946;03.50.58.994
12920;170967;34.04;947;03.50.58.994
12928;170960;34.04;948;03.50.58.994
12928;170971;34.04;949;03.50.58.994
12888;170962;34.04;950;03.50.59.104
12904;170961;34.04;951;03.50.59.115
12888;170960;34.04;952;03.50.59.115
12880;170966;34.04;953;03.50.59.115
12916;170960;34.04;954;03.50.59.115
12896;170966;34.04;955;03.50.59.115
12896;170963;34.04;956;03.50.59.115
12924;170962;34.04;957;03.50.59.115
12884;170967;34.04;958;03.50.59.115
12904;170974;34.04;959;03.50.59.115
12916;170967;34.04;960;03.50.59.115
12888;170968;34.04;961;03.50.59.115
12928;170975;34.04;962;03.50.59.115
12916;170962;34.04;963;03.50.59.115
12928;170974;34.04;964;03.50.59.130
12880;170975;34.04;965;03.50.59.130
12900;170975;34.04;966;03.50.59.130
12904;170972;34.04;967;03.50.59.130
12884;170976;34.04;968;03.50.59.130
12916;170971;34.04;969;03.50.59.130
12888;170974;34.04;970;03.50.59.130
12912;170982;34.04;971;03.50.59.130
12916;170980;34.04;972;03.50.59.130
12892;170983;34.04;973;03.50.59.130
12892;170986;34.04;974;03.50.59.130
12904;170988;34.04;975;03.50.59.207
12912;170988;34.04;976;03.50.59.218
12892;170987;34.04;977;03.50.59.218
12912;170979;34.04;978;03.50.59.218
12896;170976;34.04;979;03.50.59.218
12900;170975;34.04;980;03.50.59.218
12876;170978;34.04;981;03.50.59.218
12896;170974;34.04;982;03.50.59.218
12920;170965;34.04;983;03.50.59.218
12888;170970;34.04;984;03.50.59.218
12900;170951;34.04;985;03.50.59.218
12896;170950;34.04;986;03.50.59.228
12904;170958;34.04;987;03.50.59.228
12852;170957;34.04;988;03.50.59.228
12904;170951;34.04;989;03.50.59.228
12920;170960;34.04;990;03.50.59.228
12904;170950;34.04;991;03.50.59.228
12900;170943;34.04;992;03.50.59.242
12860;170935;34.04;993;03.50.59.242
12900;170945;34.04;994;03.50.59.242
12876;170944;34.04;995;03.50.59.242
12880;170934;34.04;996;03.50.59.242
12912;170940;34.04;997;03.50.59.242
12892;170932;34.04;998;03.50.59.253
12904;170936;34.04;999;03.50.59.253
12912;170928;34.04;000;03.50.59.333
12900;170930;34.04;001;03.50.59.333
12912;170935;34.04;002;03.50.59.333
12920;170925;34.04;003;03.50.59.333
12896;170934;34.04;004;03.50.59.333
12912;170936;34.04;005;03.50.59.344
12928;170939;34.04;006;03.50.59.344
12932;170938;34.04;007;03.50.59.344
12928;170934;34.04;008;03.50.59.344
12904;170935;34.04;009;03.50.59.344
12896;170937;34.04;010;03.50.59.344
12888;170930;34.04;011;03.50.59.344
12896;170934;34.04;012;03.50.59.344
12888;170924;34.04;013;03.50.59.344
12912;170927;34.04;014;03.50.59.344
12912;170930;34.04;015;03.50.59.344
12912;170930;34.04;016;03.50.59.344
12904;170927;34.04;017;03.50.59.344
12884;170926;34.04;018;03.50.59.355
12900;170930;34.04;019;03.50.59.355
12904;170925;34.04;020;03.50.59.355
12928;170931;34.04;021;03.50.59.355
12912;170928;34.04;022;03.50.59.355
12904;170933;34.04;023;03.50.59.355
12920;170935;34.04;024;03.50.59.355
12916;170937;34.04;025;03.50.59.471
12908;170926;34.04;026;03.50.59.471
12912;170930;34.04;027;03.50.59.471
12872;170931;34.04;028;03.50.59.471
12888;170932;34.04;029;03.50.59.471
12892;170940;34.04;030;03.50.59.471
12888;170926;34.04;031;03.50.59.471
12916;170926;34.04;032;03.50.59.471
12900;170923;34.04;033;03.50.59.472
12872;170924;34.04;034;03.50.59.472
12896;170928;34.04;035;03.50.59.473
12896;170920;34.04;036;03.50.59.484
12912;170933;34.04;037;03.50.59.484
12872;170930;34.04;038;03.50.59.484
12912;170929;34.04;039;03.50.59.484
12928;170929;34.04;040;03.50.59.484
12912;170932;34.04;041;03.50.59.484
12908;170927;34.04;042;03.50.59.484
12916;170926;34.04;043;03.50.59.484
12876;170919;34.04;044;03.50.59.484
12888;170924;34.04;045;03.50.59.484
12880;170922;34.04;046;03.50.59.484
12888;170928;34.04;047;03.50.59.484
12888;170921;34.04;048;03.50.59.484
12904;170926;34.04;049;03.50.59.500
12856;170920;34.04;050;03.50.59.600
12904;170918;34.04;051;03.50.59.600
12896;170917;34.04;052;03.50.59.617
12908;170919;34.04;053;03.50.59.617
12900;170922;34.04;054;03.50.59.617
12888;170925;34.04;055;03.50.59.617
12916;170926;34.04;056;03.50.59.617
12900;170923;34.04;057;03.50.59.617
12888;170924;34.04;058;03.50.59.617
12928;170928;34.04;059;03.50.59.617
12868;170924;34.04;060;03.50.59.617
12924;170927;34.04;061;03.50.59.617
12884;170935;34.04;062;03.50.59.617
12876;170926;34.04;063;03.50.59.617
12892;170931;34.04;064;03.50.59.617
12912;170931;34.04;065;03.50.59.617
12912;170922;34.04;066;03.50.59.617
12904;170927;34.04;067;03.50.59.617
12908;170932;34.04;068;03.50.59.617
12900;170935;34.04;069;03.50.59.617
12884;170929;34.04;070;03.50.59.617
12892;170933;34.04;071;03.50.59.617
12888;170931;34.04;072;03.50.59.631
12892;170934;34.04;073;03.50.59.631
12936;170940;34.04;074;03.50.59.631
12884;170927;34.04;075;03.50.59.713
12900;170931;34.04;076;03.50.59.713
12880;170936;34.04;077;03.50.59.713
12900;170940;34.04;078;03.50.59.728
12908;170943;34.04;079;03.50.59.728
12928;170938;34.04;080;03.50.59.728
12868;170938;34.04;081;03.50.59.728
12900;170940;34.04;082;03.50.59.728
12928;170946;34.04;083;03.50.59.728
12892;170948;34.04;084;03.50.59.728
12912;170948;34.04;085;03.50.59.728
12876;170950;34.04;086;03.50.59.728
12884;170941;34.04;087;03.50.59.728
12896;170942;34.04;088;03.50.59.728
12876;170952;34.04;089;03.50.59.728
12924;170945;34.04;090;03.50.59.728
12900;170948;34.04;091;03.50.59.728
12876;170951;34.04;092;03.50.59.739
12904;170959;34.04;093;03.50.59.739
12900;170962;34.04;094;03.50.59.739
12904;170959;34.04;095;03.50.59.739
12888;170959;34.04;096;03.50.59.739
12928;170966;34.04;097;03.50.59.739
12892;170964;34.04;098;03.50.59.739
12920;170967;34.04;099;03.50.59.750
12892;170971;34.04;100;03.50.59.839
12868;170978;34.04;101;03.50.59.839
12944;170976;34.04;102;03.50.59.839
12892;170975;34.04;103;03.50.59.839
12892;170976;34.04;104;03.50.59.839
12888;170973;34.04;105;03.50.59.850
12888;170982;34.04;106;03.50.59.850
12904;170981;34.04;107;03.50.59.850
12908;170982;34.04;108;03.50.59.850
12908;170984;34.04;109;03.50.59.850
12888;170987;34.04;110;03.50.59.850
12908;170985;34.04;111;03.50.59.850
12928;170994;34.04;112;03.50.59.850
12884;170996;34.04;113;03.50.59.850
12876;170998;34.04;114;03.50.59.850
12884;170996;34.04;115;03.50.59.850
12884;170999;34.04;116;03.50.59.850
12884;171010;34.04;117;03.50.59.872
12876;171007;34.04;118;03.50.59.872
12916;171008;34.04;119;03.50.59.872
12896;171011;34.04;120;03.50.59.872
12904;171004;34.04;121;03.50.59.872
12896;171008;34.04;122;03.50.59.883
12928;171006;34.04;123;03.50.59.883
12892;171009;34.04;124;03.50.59.883
12852;171012;34.00;125;03.50.59.960
12900;171002;34.00;126;03.50.59.971
12884;171005;34.00;127;03.50.59.971
12868;171001;34.00;128;03.50.59.971
12908;171007;34.00;129;03.50.59.971
12900;171002;34.00;130;03.50.59.971
12916;171013;34.00;131;03.50.59.971
12876;171010;34.00;132;03.50.59.971
12904;171009;34.00;133;03.50.59.971
12896;171010;34.00;134;03.50.59.971
12908;171011;34.00;135;03.50.59.982
12904;171013;34.00;136;03.50.59.982
12904;171014;34.00;137;03.50.59.982
12900;171015;34.00;138;03.50.59.982
12920;171028;34.00;139;03.50.59.982
12892;171019;34.00;140;03.50.59.982
12892;171025;34.00;141;03.50.59.982
12916;171030;34.00;142;03.50.59.982
12880;171026;34.00;143;03.50.59.982
12928;171025;34.00;144;03.50.59.982
12944;171030;34.00;145;03.50.59.982
12860;171022;34.00;146;03.50.59.982
12908;171026;34.00;147;03.50.59.982
12892;171034;34.00;148;03.50.59.993
12860;171029;34.00;149;03.50.59.993
12908;171022;34.00;150;03.51.00.102
12884;171023;34.00;151;03.51.00.102
12888;171017;34.00;152;03.51.00.102
12876;171024;34.00;153;03.51.00.102
12868;171016;34.00;154;03.51.00.102
12896;171008;34.00;155;03.51.00.102
12892;171009;34.00;156;03.51.00.102
12892;171003;34.00;157;03.51.00.102
12884;170998;34.00;158;03.51.00.102
12916;170989;34.00;159;03.51.00.102
12888;170988;34.00;160;03.51.00.113
12888;170984;34.00;161;03.51.00.113
12892;170978;34.00;162;03.51.00.113
12900;170968;34.00;163;03.51.00.113
12892;170963;34.00;164;03.51.00.113
12928;170960;34.00;165;03.51.00.113
12908;170958;34.00;166;03.51.00.113
12896;170949;34.00;167;03.51.00.113
12912;170943;34.00;168;03.51.00.113
12880;170945;34.00;169;03.51.00.113
12884;170941;34.00;170;03.51.00.113
12916;170935;34.00;171;03.51.00.113
12928;170926;34.00;172;03.51.00.124
12896;170927;34.00;173;03.51.00.124
12920;170925;34.00;174;03.51.00.124
12896;170923;34.04;175;03.51.00.212
12932;170924;34.04;176;03.51.00.212
12908;170915;34.04;177;03.51.00.212
12892;170912;34.04;178;03.51.00.212
12924;170915;34.04;179;03.51.00.212
12932;170913;34.04;180;03.51.00.212
12888;170904;34.04;181;03.51.00.212
12884;170906;34.04;182;03.51.00.223
12888;170900;34.04;183;03.51.00.234
12888;170901;34.04;184;03.51.00.234
12888;170899;34.04;185;03.51.00.234
12928;170890;34.04;186;03.51.00.234
12908;170889;34.04;187;03.51.00.234
12924;170878;34.04;188;03.51.00.234
12920;170877;34.04;189;03.51.00.234
12896;170880;34.04;190;03.51.00.245
12880;170860;34.04;191;03.51.00.245
12904;170862;34.04;192;03.51.00.245
12892;170858;34.04;193;03.51.00.245
12896;170868;34.04;194;03.51.00.245
12912;170859;34.04;195;03.51.00.245
12876;170860;34.04;196;03.51.00.245
12892;170865;34.04;197;03.51.00.245
12904;170861;34.04;198;03.51.00.245
12916;170863;34.04;199;03.51.00.245
12908;170871;34.04;200;03.51.00.332
12892;170857;34.04;201;03.51.00.332
12896;170869;34.04;202;03.51.00.332
12916;170869;34.04;203;03.51.00.332
12896;170872;34.04;204;03.51.00.343
12916;170878;34.04;205;03.51.00.343
12852;170876;34.04;206;03.51.00.343
12940;170879;34.04;207;03.51.00.343
12912;170879;34.04;208;03.51.00.343
12872;170882;34.04;209;03.51.00.343
12928;170886;34.04;210;03.51.00.343
12908;170887;34.04;211;03.51.00.343
12884;170886;34.04;212;03.51.00.343
12908;170884;34.04;213;03.51.00.343
12876;170888;34.04;214;03.51.00.343
12928;170888;34.04;215;03.51.00.343
12892;170888;34.04;216;03.51.00.354
12900;170895;34.04;217;03.51.00.354
12884;170888;34.04;218;03.51.00.354
12928;170887;34.04;219;03.51.00.354
12884;170888;34.04;220;03.51.00.354
12896;170880;34.04;221;03.51.00.354
12880;170887;34.04;222;03.51.00.354
12920;170890;34.04;223;03.51.00.354
12932;170882;34.04;224;03.51.00.354
12876;170884;34.04;225;03.51.00.454
12888;170884;34.04;226;03.51.00.466
12904;170887;34.04;227;03.51.00.466
12912;170885;34.04;228;03.51.00.466
12900;170887;34.04;229;03.51.00.466
12880;170893;34.04;230;03.51.00.466
12904;170879;34.04;231;03.51.00.466
12912;170889;34.04;232;03.51.00.466
12892;170894;34.04;233;03.51.00.466
12892;170897;34.04;234;03.51.00.466
12904;170890;34.04;235;03.51.00.466
12912;170893;34.04;236;03.51.00.466
12876;170889;34.04;237;03.51.00.466
12860;170902;34.04;238;03.51.00.466
12872;170903;34.04;239;03.51.00.466
12896;170898;34.04;240;03.51.00.477
12908;170896;34.04;241;03.51.00.477
12892;170897;34.04;242;03.51.00.477
12904;170898;34.04;243;03.51.00.477
12876;170892;34.04;244;03.51.00.477
12876;170894;34.04;245;03.51.00.477
12904;170898;34.04;246;03.51.00.477
12912;170888;34.04;247;03.51.00.477
12900;170880;34.04;248;03.51.00.477
12936;170903;34.04;249;03.51.00.477
12892;170900;34.04;250;03.51.00.599
12892;170899;34.04;251;03.51.00.599
12892;170894;34.04;252;03.51.00.599
12892;170897;34.04;253;03.51.00.599
12900;170900;34.04;254;03.51.00.599
12888;170896;34.04;255;03.51.00.599
12892;170896;34.04;256;03.51.00.599
12896;170905;34.04;257;03.51.00.599
12888;170898;34.04;258;03.51.00.599
12904;170897;34.04;259;03.51.00.599
12884;170912;34.04;260;03.51.00.599
12904;170912;34.04;261;03.51.00.611
12900;170906;34.04;262;03.51.00.611
12884;170911;34.04;263;03.51.00.611
12892;170911;34.04;264;03.51.00.611
12896;170909;34.04;265;03.51.00.611
12896;170916;34.04;266;03.51.00.611
12916;170912;34.04;267;03.51.00.611
12912;170915;34.04;268;03.51.00.611
12912;170913;34.04;269;03.51.00.611
12884;170911;34.04;270;03.51.00.611
12892;170924;34.04;271;03.51.00.611
12928;170924;34.04;272;03.51.00.611
12900;170922;34.04;273;03.51.00.611
12928;170930;34.04;274;03.51.00.611
12888;170918;34.04;275;03.51.00.732
12908;170926;34.04;276;03.51.00.732
12888;170931;34.04;277;03.51.00.732
12892;170925;34.04;278;03.51.00.732
12904;170927;34.04;279;03.51.00.732
12904;170931;34.04;280;03.51.00.732
12892;170928;34.04;281;03.51.00.732
12908;170923;34.04;282;03.51.00.732
12884;170922;34.04;283;03.51.00.732
12912;170927;34.04;284;03.51.00.732
12900;170920;34.04;285;03.51.00.743
12912;170928;34.04;286;03.51.00.743
12916;170927;34.04;287;03.51.00.743
12892;170930;34.04;288;03.51.00.743
12888;170928;34.04;289;03.51.00.743
12888;170935;34.04;290;03.51.00.743
12916;170934;34.04;291;03.51.00.743
12928;170948;34.04;292;03.51.00.743
12892;170943;34.04;293;03.51.00.743
12892;170935;34.04;294;03.51.00.743
12900;170945;34.04;295;03.51.00.743
12912;170944;34.04;296;03.51.00.743
12896;170931;34.04;297;03.51.00.756
12896;170947;34.04;298;03.51.00.756
12936;170934;34.04;299;03.51.00.756
12872;170931;34.04;300;03.51.00.848
12912;170939;34.04;301;03.51.00.848
12928;170946;34.04;302;03.51.00.848
12912;170941;34.04;303;03.51.00.848
12892;170947;34.04;304;03.51.00.848
12892;170944;34.04;305;03.51.00.848
12928;170948;34.04;306;03.51.00.848
12904;170937;34.04;307;03.51.00.848
12896;170944;34.04;308;03.51.00.849
12916;170953;34.04;309;03.51.00.849
12932;170947;34.04;310;03.51.00.849
12896;170945;34.04;311;03.51.00.860
12892;170957;34.04;312;03.51.00.860
12888;170953;34.04;313;03.51.00.860
12900;170960;34.04;314;03.51.00.860
12912;170958;34.04;315;03.51.00.860
12904;170964;34.04;316;03.51.00.860
12896;170966;34.04;317;03.51.00.860
12908;170968;34.04;318;03.51.00.860
12884;170969;34.04;319;03.51.00.860
12888;170974;34.04;320;03.51.00.860
12904;170976;34.04;321;03.51.00.860
12884;170973;34.04;322;03.51.00.860
12904;170974;34.04;323;03.51.00.860
12892;170981;34.04;324;03.51.00.872
12900;170970;34.04;325;03.51.00.963
12908;170987;34.04;326;03.51.00.963
12888;170975;34.04;327;03.51.00.963
12896;170978;34.04;328;03.51.00.963
12904;170983;34.04;329;03.51.00.977
12876;170982;34.04;330;03.51.00.977
12908;170977;34.04;331;03.51.00.977
12880;170972;34.04;332;03.51.00.977
12892;170968;34.04;333;03.51.00.977
12860;170965;34.04;334;03.51.00.977
12892;170958;34.04;335;03.51.00.977
12912;170951;34.04;336;03.51.00.977
12908;170946;34.04;337;03.51.00.977
12888;170941;34.04;338;03.51.00.977
12916;170939;34.04;339;03.51.00.977
12888;170931;34.04;340;03.51.00.977
12876;170925;34.04;341;03.51.00.977
12896;170929;34.04;342;03.51.00.977
12944;170919;34.04;343;03.51.00.977
12904;170915;34.04;344;03.51.00.977
12888;170908;34.04;345;03.51.00.978
12880;170906;34.04;346;03.51.00.989
12884;170903;34.04;347;03.51.00.989
12904;170900;34.04;348;03.51.00.989
12924;170900;34.04;349;03.51.00.989
12900;170895;34.04;350;03.51.01.090
12888;170895;34.04;351;03.51.01.090
12912;170890;34.04;352;03.51.01.090
12884;170881;34.04;353;03.51.01.090
12892;170890;34.04;354;03.51.01.090
12860;170879;34.04;355;03.51.01.090
12908;170877;34.04;356;03.51.01.090
12896;170883;34.04;357;03.51.01.101
12880;170883;34.04;358;03.51.01.101
12908;170874;34.04;359;03.51.01.101
12880;170874;34.04;360;03.51.01.101
12908;170868;34.04;361;03.51.01.101
12924;170869;34.04;362;03.51.01.101
12908;170869;34.04;363;03.51.01.101
12896;170874;34.04;364;03.51.01.101
12888;170868;34.04;365;03.51.01.112
12912;170872;34.04;366;03.51.01.112
12892;170877;34.04;367;03.51.01.112
12924;170870;34.04;368;03.51.01.112
12892;170870;34.04;369;03.51.01.112
12876;170866;34.04;370;03.51.01.112
12908;170867;34.04;371;03.51.01.112
12916;170869;34.04;372;03.51.01.112
12904;170868;34.04;373;03.51.01.112
12916;170861;34.04;374;03.51.01.112
12896;170858;34.00;375;03.51.01.221
12900;170867;34.00;376;03.51.01.221
12928;170869;34.00;377;03.51.01.221
12912;170869;34.00;378;03.51.01.221
12888;170875;34.00;379;03.51.01.232
12936;170870;34.00;380;03.51.01.232
12892;170862;34.00;381;03.51.01.232
12884;170872;34.00;382;03.51.01.232
12908;170871;34.00;383;03.51.01.232
12900;170870;34.00;384;03.51.01.232
12896;170875;34.00;385;03.51.01.232
12904;170871;34.00;386;03.51.01.232
12908;170865;34.00;387;03.51.01.232
12884;170865;34.00;388;03.51.01.232
12880;170870;34.00;389;03.51.01.232
12896;170869;34.00;390;03.51.01.232
12928;170867;34.00;391;03.51.01.232
12912;170869;34.00;392;03.51.01.243
12908;170872;34.00;393;03.51.01.243
12904;170877;34.00;394;03.51.01.243
12888;170883;34.00;395;03.51.01.243
12908;170880;34.00;396;03.51.01.243
12896;170874;34.00;397;03.51.01.243
12900;170877;34.00;398;03.51.01.243
12908;170879;34.00;399;03.51.01.243
12896;170875;34.00;400;03.51.01.342
12896;170882;34.00;401;03.51.01.342
12904;170873;34.00;402;03.51.01.342
12904;170880;34.00;403;03.51.01.342
12904;170870;34.00;404;03.51.01.342
12912;170867;34.00;405;03.51.01.342
12920;170874;34.00;406;03.51.01.342
12916;170873;34.00;407;03.51.01.342
12932;170880;34.00;408;03.51.01.353
12904;170869;34.00;409;03.51.01.353
12888;170877;34.00;410;03.51.01.353
12928;170870;34.00;411;03.51.01.353
12896;170873;34.00;412;03.51.01.353
12876;170880;34.00;413;03.51.01.353
12892;170875;34.00;414;03.51.01.353
12928;170867;34.00;415;03.51.01.353
12916;170881;34.00;416;03.51.01.353
12912;170882;34.00;417;03.51.01.353
12896;170881;34.00;418;03.51.01.365
12904;170889;34.00;419;03.51.01.365
12912;170888;34.00;420;03.51.01.365
12888;170892;34.00;421;03.51.01.365
12912;170891;34.00;422;03.51.01.365
12928;170886;34.00;423;03.51.01.365
12916;170895;34.00;424;03.51.01.365
12892;170888;34.04;425;03.51.01.458
12896;170900;34.04;426;03.51.01.458
12928;170894;34.04;427;03.51.01.458
12884;170901;34.04;428;03.51.01.458
12896;170903;34.04;429;03.51.01.469
12920;170911;34.04;430;03.51.01.469
12912;170914;34.04;431;03.51.01.469
12888;170901;34.04;432;03.51.01.469
12904;170914;34.04;433;03.51.01.469
12904;170919;34.04;434;03.51.01.469
12904;170913;34.04;435;03.51.01.469
12916;170904;34.04;436;03.51.01.469
12900;170906;34.04;437;03.51.01.469
12896;170910;34.04;438;03.51.01.469
12940;170906;34.04;439;03.51.01.469
12912;170900;34.04;440;03.51.01.469
12928;170910;34.04;441;03.51.01.480
12888;170901;34.04;442;03.51.01.480
12904;170906;34.04;443;03.51.01.480
12888;170901;34.04;444;03.51.01.480
12900;170903;34.04;445;03.51.01.480
12912;170905;34.04;446;03.51.01.480
12932;170910;34.04;447;03.51.01.480
12896;170911;34.04;448;03.51.01.480
12888;170908;34.04;449;03.51.01.480
12900;170908;34.04;450;03.51.01.589
12904;170909;34.04;451;03.51.01.589
12908;170913;34.04;452;03.51.01.589
12884;170916;34.04;453;03.51.01.589
12876;170921;34.04;454;03.51.01.589
12920;170922;34.04;455;03.51.01.589
12888;170914;34.04;456;03.51.01.589
12884;170923;34.04;457;03.51.01.589
12876;170918;34.04;458;03.51.01.589
12928;170920;34.04;459;03.51.01.589
12928;170916;34.04;460;03.51.01.589
12904;170926;34.04;461;03.51.01.589
12900;170926;34.04;462;03.51.01.600
12904;170929;34.04;463;03.51.01.600
12916;170931;34.04;464;03.51.01.600
12916;170943;34.04;465;03.51.01.600
12920;170944;34.04;466;03.51.01.600
12856;170940;34.04;467;03.51.01.600
12916;170944;34.04;468;03.51.01.600
12892;170945;34.04;469;03.51.01.600
12876;170955;34.04;470;03.51.01.600
12892;170957;34.04;471;03.51.01.600
12916;170948;34.04;472;03.51.01.600
12900;170958;34.04;473;03.51.01.600
12940;170955;34.04;474;03.51.01.600
12892;170947;34.04;475;03.51.01.721
12928;170953;34.04;476;03.51.01.721
12900;170951;34.04;477;03.51.01.721
12888;170957;34.04;478;03.51.01.721
12928;170960;34.04;479;03.51.01.721
12876;170966;34.04;480;03.51.01.721
12892;170974;34.04;481;03.51.01.721
12896;170964;34.04;482;03.51.01.721
12892;170977;34.04;483;03.51.01.732
12892;170973;34.04;484;03.51.01.732
12904;170982;34.04;485;03.51.01.732
12896;170978;34.04;486;03.51.01.732
12908;170989;34.04;487;03.51.01.732
12888;170983;34.04;488;03.51.01.732
12908;170989;34.04;489;03.51.01.732
12900;170994;34.04;490;03.51.01.732
12908;170994;34.04;491;03.51.01.732
12924;170994;34.04;492;03.51.01.732
12904;170996;34.04;493;03.51.01.732
12916;170998;34.04;494;03.51.01.732
12892;171000;34.04;495;03.51.01.732
12884;171000;34.04;496;03.51.01.732
12908;171005;34.04;497;03.51.01.742
12916;171016;34.04;498;03.51.01.742
12920;171018;34.04;499;03.51.01.742
12892;171019;34.04;500;03.51.01.852
12932;171024;34.04;501;03.51.01.852
12884;171020;34.04;502;03.51.01.852
12888;171017;34.04;503;03.51.01.852
12932;171024;34.04;504;03.51.01.863
12892;171023;34.04;505;03.51.01.863
12892;171018;34.04;506;03.51.01.863
12876;171017;34.04;507;03.51.01.863
12896;171009;34.04;508;03.51.01.863
12908;171007;34.04;509;03.51.01.863
12892;171005;34.04;510;03.51.01.863
12904;170999;34.04;511;03.51.01.863
12888;170997;34.04;512;03.51.01.863
12912;170992;34.04;513;03.51.01.863
12908;170984;34.04;514;03.51.01.863
12884;170983;34.04;515;03.51.01.863
12908;170973;34.04;516;03.51.01.873
12892;170964;34.04;517;03.51.01.873
12916;170967;34.04;518;03.51.01.873
12908;170957;34.04;519;03.51.01.873
12904;170951;34.04;520;03.51.01.873
12900;170943;34.04;521;03.51.01.873
12928;170947;34.04;522;03.51.01.873
12900;170939;34.04;523;03.51.01.873
12936;170945;34.04;524;03.51.01.873
12928;170938;34.04;525;03.51.01.966
12912;170941;34.04;526;03.51.01.966
12932;170942;34.04;527;03.51.01.966
12896;170927;34.04;528;03.51.01.966
12904;170930;34.04;529;03.51.01.966
12892;170929;34.04;530;03.51.01.976
12904;170926;34.04;531;03.51.01.976
12924;170933;34.04;532;03.51.01.976
12896;170934;34.04;533;03.51.01.976
12888;170930;34.04;534;03.51.01.987
12904;170932;34.04;535;03.51.01.987
12916;170928;34.04;536;03.51.01.987
12916;170930;34.04;537;03.51.01.987
12904;170932;34.04;538;03.51.01.987
12916;170936;34.04;539;03.51.01.987
12920;170940;34.04;540;03.51.01.987
12908;170935;34.04;541;03.51.01.987
12884;170930;34.04;542;03.51.01.987
12884;170944;34.04;543;03.51.01.987
12880;170935;34.04;544;03.51.01.987
12876;170939;34.04;545;03.51.01.987
12884;170935;34.04;546;03.51.01.987
12892;170933;34.04;547;03.51.01.987
12888;170944;34.04;548;03.51.01.987
12900;170951;34.04;549;03.51.01.987
12928;170950;34.04;550;03.51.02.086
12912;170945;34.04;551;03.51.02.097
12896;170937;34.04;552;03.51.02.097
12888;170947;34.04;553;03.51.02.097
12896;170952;34.04;554;03.51.02.097
12896;170946;34.04;555;03.51.02.097
12892;170950;34.04;556;03.51.02.097
12884;170962;34.04;557;03.51.02.097
12904;170963;34.04;558;03.51.02.097
12896;170957;34.04;559;03.51.02.097
12916;170957;34.04;560;03.51.02.097
12900;170952;34.04;561;03.51.02.097
12892;170959;34.04;562;03.51.02.097
12888;170959;34.04;563;03.51.02.097
12900;170954;34.04;564;03.51.02.097
12892;170952;34.04;565;03.51.02.109
12896;170958;34.04;566;03.51.02.109
12912;170946;34.04;567;03.51.02.131
12892;170948;34.04;568;03.51.02.131
12884;170952;34.04;569;03.51.02.142
12892;170951;34.04;570;03.51.02.142
12928;170948;34.04;571;03.51.02.142
12892;170941;34.04;572;03.51.02.142
12912;170947;34.04;573;03.51.02.142
12936;170945;34.04;574;03.51.02.142
12884;170944;34.04;575;03.51.02.219
12892;170933;34.04;576;03.51.02.219
12920;170936;34.04;577;03.51.02.219
12900;170933;34.04;578;03.51.02.219
12888;170928;34.04;579;03.51.02.219
12900;170926;34.04;580;03.51.02.219
12928;170913;34.04;581;03.51.02.219
12884;170914;34.04;582;03.51.02.219
12908;170916;34.04;583;03.51.02.219
12892;170913;34.04;584;03.51.02.219
12904;170909;34.04;585;03.51.02.219
12904;170910;34.04;586;03.51.02.219
12908;170917;34.04;587;03.51.02.230
12892;170916;34.04;588;03.51.02.230
12896;170915;34.04;589;03.51.02.230
12900;170912;34.04;590;03.51.02.230
12908;170919;34.04;591;03.51.02.230
12916;170919;34.04;592;03.51.02.230
12908;170915;34.04;593;03.51.02.230
12892;170919;34.04;594;03.51.02.230
12868;170919;34.04;595;03.51.02.230
12876;170925;34.04;596;03.51.02.230
12896;170921;34.04;597;03.51.02.230
12924;170925;34.04;598;03.51.02.230
12928;170923;34.04;599;03.51.02.231
12896;170939;34.04;600;03.51.02.356
12904;170924;34.04;601;03.51.02.356
12904;170926;34.04;602;03.51.02.367
12928;170917;34.04;603;03.51.02.367
12904;170917;34.04;604;03.51.02.367
12896;170919;34.04;605;03.51.02.367
12884;170919;34.04;606;03.51.02.367
12896;170908;34.04;607;03.51.02.367
12876;170919;34.04;608;03.51.02.367
12880;170911;34.04;609;03.51.02.367
12944;170910;34.04;610;03.51.02.367
12876;170908;34.04;611;03.51.02.367
12876;170904;34.04;612;03.51.02.367
12904;170901;34.04;613;03.51.02.367
12920;170897;34.04;614;03.51.02.367
12892;170908;34.04;615;03.51.02.378
12908;170909;34.04;616;03.51.02.378
12872;170905;34.04;617;03.51.02.378
12900;170902;34.04;618;03.51.02.378
12904;170904;34.04;619;03.51.02.378
12896;170912;34.04;620;03.51.02.390
12912;170899;34.04;621;03.51.02.390
12900;170911;34.04;622;03.51.02.390
12908;170903;34.04;623;03.51.02.390
12920;170908;34.04;624;03.51.02.390
12884;170909;34.04;625;03.51.02.463
12896;170909;34.04;626;03.51.02.463
12912;170910;34.04;627;03.51.02.463
12896;170915;34.04;628;03.51.02.463
12904;170913;34.04;629;03.51.02.463
12912;170908;34.04;630;03.51.02.463
12876;170913;34.04;631;03.51.02.463
12904;170912;34.04;632;03.51.02.463
12900;170923;34.04;633;03.51.02.497
12892;170924;34.04;634;03.51.02.497
12888;170924;34.04;635;03.51.02.497
12928;170921;34.04;636;03.51.02.497
12892;170917;34.04;637;03.51.02.497
12912;170921;34.04;638;03.51.02.497
12904;170926;34.04;639;03.51.02.497
12884;170920;34.04;640;03.51.02.497
12900;170917;34.04;641;03.51.02.497
12912;170923;34.04;642;03.51.02.497
12888;170916;34.04;643;03.51.02.509
12876;170913;34.04;644;03.51.02.509
12928;170921;34.04;645;03.51.02.509
12896;170917;34.04;646;03.51.02.509
12904;170921;34.04;647;03.51.02.509
12892;170934;34.04;648;03.51.02.509
12904;170929;34.04;649;03.51.02.509
12896;170924;34.04;650;03.51.02.587
12888;170927;34.04;651;03.51.02.587
12908;170930;34.04;652;03.51.02.587
12880;170928;34.04;653;03.51.02.587
12932;170927;34.04;654;03.51.02.587
12888;170933;34.04;655;03.51.02.587
12908;170926;34.04;656;03.51.02.587
12912;170927;34.04;657;03.51.02.587
12932;170924;34.04;658;03.51.02.598
12928;170921;34.04;659;03.51.02.598
12896;170919;34.04;660;03.51.02.598
12880;170916;34.04;661;03.51.02.598
12896;170920;34.04;662;03.51.02.598
12924;170910;34.04;663;03.51.02.598
12884;170896;34.04;664;03.51.02.598
12896;170891;34.04;665;03.51.02.598
12904;170887;34.04;666;03.51.02.598
12860;170891;34.04;667;03.51.02.598
12900;170882;34.04;668;03.51.02.598
12892;170886;34.04;669;03.51.02.598
12920;170886;34.04;670;03.51.02.598
12892;170876;34.04;671;03.51.02.609
12912;170874;34.04;672;03.51.02.609
12900;170870;34.04;673;03.51.02.609
12924;170877;34.04;674;03.51.02.609
12892;170881;34.04;675;03.51.02.729
12908;170879;34.04;676;03.51.02.729
12904;170871;34.04;677;03.51.02.729
12892;170875;34.04;678;03.51.02.729
12896;170876;34.04;679;03.51.02.730
12932;170875;34.04;680;03.51.02.730
12912;170888;34.04;681;03.51.02.741
12892;170883;34.04;682;03.51.02.741
12904;170889;34.04;683;03.51.02.741
12920;170886;34.04;684;03.51.02.741
12876;170896;34.04;685;03.51.02.741
12916;170891;34.04;686;03.51.02.741
12888;170887;34.04;687;03.51.02.741
12916;170891;34.04;688;03.51.02.741
12908;170882;34.04;689;03.51.02.752
12892;170896;34.04;690;03.51.02.752
12892;170899;34.04;691;03.51.02.752
12904;170898;34.04;692;03.51.02.774
12892;170903;34.04;693;03.51.02.774
12892;170898;34.04;694;03.51.02.774
12928;170909;34.04;695;03.51.02.774
12900;170911;34.04;696;03.51.02.774
12916;170905;34.04;697;03.51.02.785
12912;170911;34.04;698;03.51.02.785
12920;170917;34.04;699;03.51.02.785
12884;170922;34.04;700;03.51.02.840
12888;170919;34.04;701;03.51.02.840
12876;170918;34.04;702;03.51.02.851
12916;170913;34.04;703;03.51.02.851
12936;170923;34.04;704;03.51.02.851
12872;170924;34.04;705;03.51.02.851
12892;170919;34.04;706;03.51.02.851
12880;170916;34.04;707;03.51.02.851
12876;170918;34.04;708;03.51.02.851
12892;170922;34.04;709;03.51.02.851
12904;170923;34.04;710;03.51.02.851
12904;170918;34.04;711;03.51.02.851
12904;170914;34.04;712;03.51.02.851
12928;170918;34.04;713;03.51.02.851
12908;170916;34.04;714;03.51.02.851
12900;170912;34.04;715;03.51.02.862
12900;170907;34.04;716;03.51.02.862
12896;170903;34.04;717;03.51.02.862
12932;170904;34.04;718;03.51.02.862
12936;170903;34.04;719;03.51.02.862
12880;170896;34.04;720;03.51.02.862
12888;170892;34.04;721;03.51.02.862
12912;170895;34.04;722;03.51.02.862
12892;170891;34.04;723;03.51.02.862
12928;170888;34.04;724;03.51.02.862
12892;170895;34.04;725;03.51.02.991
12912;170904;34.04;726;03.51.02.991
12904;170902;34.04;727;03.51.02.991
12912;170900;34.04;728;03.51.02.991
12936;170912;34.04;729;03.51.02.991
12912;170902;34.04;730;03.51.02.991
12928;170917;34.04;731;03.51.02.991
12908;170927;34.04;732;03.51.02.991
12884;170931;34.04;733;03.51.03.001
12908;170930;34.04;734;03.51.03.001
12888;170942;34.04;735;03.51.03.001
12904;170943;34.04;736;03.51.03.001
12916;170939;34.04;737;03.51.03.001
12908;170937;34.04;738;03.51.03.001
12896;170945;34.04;739;03.51.03.001
12900;170938;34.04;740;03.51.03.001
12900;170954;34.04;741;03.51.03.001
12892;170947;34.04;742;03.51.03.001
12928;170947;34.04;743;03.51.03.001
12892;170950;34.04;744;03.51.03.001
12888;170945;34.04;745;03.51.03.001
12888;170936;34.04;746;03.51.03.012
12920;170941;34.04;747;03.51.03.012
12908;170943;34.04;748;03.51.03.012
12904;170949;34.04;749;03.51.03.012
12896;170942;34.04;750;03.51.03.089
12904;170960;34.04;751;03.51.03.089
12924;170964;34.04;752;03.51.03.089
12896;170955;34.04;753;03.51.03.089
12892;170964;34.04;754;03.51.03.100
12860;170961;34.04;755;03.51.03.100
12888;170973;34.04;756;03.51.03.100
12896;170974;34.04;757;03.51.03.100
12888;170985;34.04;758;03.51.03.100
12892;170986;34.04;759;03.51.03.100
12912;170990;34.04;760;03.51.03.100
12900;170993;34.04;761;03.51.03.100
12908;170990;34.04;762;03.51.03.100
12896;170993;34.04;763;03.51.03.111
12916;170996;34.04;764;03.51.03.111
12908;171005;34.04;765;03.51.03.111
12932;170999;34.04;766;03.51.03.111
12892;171000;34.04;767;03.51.03.122
12896;171003;34.04;768;03.51.03.122
12904;170998;34.04;769;03.51.03.122
12880;171003;34.04;770;03.51.03.122
12884;171004;34.04;771;03.51.03.123
12892;170996;34.04;772;03.51.03.134
12900;171000;34.04;773;03.51.03.134
12932;170988;34.04;774;03.51.03.134
12912;170987;34.08;775;03.51.03.211
12896;170987;34.08;776;03.51.03.222
12892;170984;34.08;777;03.51.03.222
12860;170978;34.08;778;03.51.03.222
12916;170970;34.08;779;03.51.03.222
12932;170968;34.08;780;03.51.03.222
12888;170958;34.08;781;03.51.03.222
12904;170957;34.08;782;03.51.03.222
12892;170949;34.08;783;03.51.03.222
12888;170941;34.08;784;03.51.03.222
12912;170941;34.08;785;03.51.03.222
12920;170932;34.08;786;03.51.03.222
12904;170929;34.08;787;03.51.03.222
12888;170919;34.08;788;03.51.03.222
12888;170914;34.08;789;03.51.03.233
12912;170918;34.08;790;03.51.03.233
12908;170909;34.08;791;03.51.03.233
12888;170900;34.08;792;03.51.03.233
12872;170905;34.08;793;03.51.03.233
12876;170895;34.08;794;03.51.03.233
12900;170897;34.08;795;03.51.03.233
12888;170894;34.08;796;03.51.03.233
12884;170889;34.08;797;03.51.03.233
12928;170886;34.08;798;03.51.03.233
12928;170888;34.08;799;03.51.03.233
12896;170895;34.08;800;03.51.03.353
12900;170896;34.08;801;03.51.03.353
12892;170898;34.08;802;03.51.03.353
12904;170905;34.08;803;03.51.03.353
12892;170906;34.08;804;03.51.03.353
12888;170911;34.08;805;03.51.03.353
12900;170909;34.08;806;03.51.03.353
12884;170906;34.08;807;03.51.03.353
12900;170911;34.08;808;03.51.03.353
12896;170920;34.08;809;03.51.03.353
12892;170924;34.08;810;03.51.03.353
12888;170923;34.08;811;03.51.03.364
12912;170921;34.08;812;03.51.03.364
12876;170919;34.08;813;03.51.03.364
12908;170910;34.08;814;03.51.03.364
12916;170915;34.08;815;03.51.03.364
12928;170915;34.08;816;03.51.03.364
12860;170905;34.08;817;03.51.03.364
12896;170903;34.08;818;03.51.03.364
12904;170900;34.08;819;03.51.03.364
12888;170894;34.08;820;03.51.03.364
12892;170891;34.08;821;03.51.03.364
12900;170889;34.08;822;03.51.03.364
12904;170880;34.08;823;03.51.03.364
12900;170882;34.08;824;03.51.03.375
12884;170876;34.04;825;03.51.03.463
12892;170868;34.04;826;03.51.03.463
12876;170866;34.04;827;03.51.03.463
12896;170860;34.04;828;03.51.03.463
12904;170856;34.04;829;03.51.03.463
12900;170842;34.04;830;03.51.03.463
12896;170836;34.04;831;03.51.03.474
12892;170835;34.04;832;03.51.03.474
12920;170831;34.04;833;03.51.03.485
12904;170821;34.04;834;03.51.03.485
12896;170820;34.04;835;03.51.03.485
12928;170824;34.04;836;03.51.03.485
12876;170812;34.04;837;03.51.03.485
12908;170823;34.04;838;03.51.03.485
12904;170830;34.04;839;03.51.03.485
12920;170834;34.04;840;03.51.03.496
12896;170844;34.04;841;03.51.03.496
12904;170850;34.04;842;03.51.03.496
12912;170868;34.04;843;03.51.03.496
12892;170866;34.04;844;03.51.03.496
12908;170874;34.04;845;03.51.03.496
12920;170889;34.04;846;03.51.03.507
12928;170895;34.04;847;03.51.03.507
12884;170901;34.04;848;03.51.03.507
12928;170904;34.04;849;03.51.03.507
12896;170913;34.04;850;03.51.03.582
12868;170909;34.04;851;03.51.03.582
12900;170925;34.04;852;03.51.03.593
12876;170927;34.04;853;03.51.03.593
12888;170927;34.04;854;03.51.03.593
12908;170918;34.04;855;03.51.03.593
12892;170919;34.04;856;03.51.03.593
12888;170919;34.04;857;03.51.03.593
12892;170912;34.04;858;03.51.03.593
12904;170909;34.04;859;03.51.03.593
12920;170908;34.04;860;03.51.03.593
12896;170908;34.04;861;03.51.03.604
12896;170908;34.04;862;03.51.03.604
12900;170897;34.04;863;03.51.03.604
12900;170889;34.04;864;03.51.03.604
12888;170896;34.04;865;03.51.03.604
12888;170882;34.04;866;03.51.03.604
12908;170875;34.04;867;03.51.03.615
12928;170872;34.04;868;03.51.03.615
12888;170868;34.04;869;03.51.03.626
12876;170860;34.04;870;03.51.03.626
12916;170864;34.04;871;03.51.03.626
12892;170847;34.04;872;03.51.03.626
12896;170853;34.04;873;03.51.03.626
12924;170847;34.04;874;03.51.03.626
12912;170853;34.04;875;03.51.03.714
12904;170848;34.04;876;03.51.03.714
12888;170844;34.04;877;03.51.03.714
12900;170853;34.04;878;03.51.03.714
12904;170849;34.04;879;03.51.03.714
12900;170855;34.04;880;03.51.03.714
12884;170860;34.04;881;03.51.03.714
12928;170868;34.04;882;03.51.03.714
12892;170870;34.04;883;03.51.03.714
12884;170880;34.04;884;03.51.03.714
12928;170894;34.04;885;03.51.03.714
12904;170899;34.04;886;03.51.03.725
12880;170905;34.04;887;03.51.03.725
12900;170906;34.04;888;03.51.03.725
12892;170920;34.04;889;03.51.03.725
12908;170931;34.04;890;03.51.03.725
12920;170937;34.04;891;03.51.03.725
12928;170940;34.04;892;03.51.03.725
12888;170944;34.04;893;03.51.03.725
12900;170937;34.04;894;03.51.03.725
12908;170941;34.04;895;03.51.03.725
12892;170936;34.04;896;03.51.03.725
12860;170938;34.04;897;03.51.03.725
12928;170938;34.04;898;03.51.03.736
12904;170940;34.04;899;03.51.03.736
12896;170936;34.04;900;03.51.03.846
12912;170929;34.04;901;03.51.03.846
12912;170927;34.04;902;03.51.03.846
12896;170921;34.04;903;03.51.03.846
12884;170919;34.04;904;03.51.03.846
12888;170918;34.04;905;03.51.03.846
12888;170913;34.04;906;03.51.03.846
12892;170909;34.04;907;03.51.03.857
12888;170901;34.04;908;03.51.03.857
12888;170895;34.04;909;03.51.03.857
12892;170892;34.04;910;03.51.03.857
12892;170894;34.04;911;03.51.03.857
12896;170896;34.04;912;03.51.03.857
12908;170890;34.04;913;03.51.03.857
12884;170892;34.04;914;03.51.03.857
12892;170881;34.04;915;03.51.03.857
12928;170891;34.04;916;03.51.03.857
12860;170897;34.04;917;03.51.03.857
12928;170903;34.04;918;03.51.03.857
12900;170906;34.04;919;03.51.03.857
12884;170918;34.04;920;03.51.03.868
12896;170914;34.04;921;03.51.03.868
12900;170920;34.04;922;03.51.03.868
12896;170921;34.04;923;03.51.03.868
12936;170943;34.04;924;03.51.03.868
12896;170947;34.08;925;03.51.03.977
12892;170952;34.08;926;03.51.03.977
12888;170964;34.08;927;03.51.03.977
12896;170969;34.08;928;03.51.03.988
12888;170975;34.08;929;03.51.03.988
12916;170970;34.08;930;03.51.03.988
12912;170963;34.08;931;03.51.03.988
12908;170965;34.08;932;03.51.03.988
12868;170977;34.08;933;03.51.03.988
12892;170967;34.08;934;03.51.03.988
12904;170964;34.08;935;03.51.03.988
12904;170959;34.08;936;03.51.03.988
12884;170962;34.08;937;03.51.03.999
12924;170959;34.08;938;03.51.03.999
12888;170943;34.08;939;03.51.03.999
12896;170936;34.08;940;03.51.03.999
12916;170929;34.08;941;03.51.03.999
12892;170919;34.08;942;03.51.03.999
12896;170916;34.08;943;03.51.03.999
12896;170911;34.08;944;03.51.03.999
12896;170899;34.08;945;03.51.03.999
12904;170894;34.08;946;03.51.03.999
12892;170887;34.08;947;03.51.03.999
12920;170878;34.08;948;03.51.03.999
12920;170882;34.08;949;03.51.03.999
12896;170875;34.08;950;03.51.04.119
12888;170868;34.08;951;03.51.04.119
12912;170867;34.08;952;03.51.04.119
12904;170860;34.08;953;03.51.04.119
12920;170869;34.08;954;03.51.04.119
12888;170863;34.08;955;03.51.04.119
12904;170864;34.08;956;03.51.04.119
12892;170871;34.08;957;03.51.04.119
12876;170880;34.08;958;03.51.04.119
12904;170884;34.08;959;03.51.04.119
12900;170873;34.08;960;03.51.04.119
12920;170890;34.08;961;03.51.04.130
12912;170899;34.08;962;03.51.04.130
12916;170910;34.08;963;03.51.04.130
12872;170908;34.08;964;03.51.04.130
12904;170909;34.08;965;03.51.04.130
12904;170919;34.08;966;03.51.04.130
12900;170916;34.08;967;03.51.04.130
12928;170922;34.08;968;03.51.04.130
12876;170925;34.08;969;03.51.04.130
12896;170928;34.08;970;03.51.04.130
12896;170933;34.08;971;03.51.04.130
12916;170930;34.08;972;03.51.04.130
12908;170932;34.08;973;03.51.04.130
12892;170932;34.08;974;03.51.04.130
12892;170932;34.04;975;03.51.04.218
12904;170922;34.04;976;03.51.04.218
12928;170929;34.04;977;03.51.04.218
12904;170924;34.04;978;03.51.04.218
12884;170918;34.04;979;03.51.04.218
12920;170910;34.04;980;03.51.04.218
12892;170913;34.04;981;03.51.04.218
12880;170906;34.04;982;03.51.04.218
12888;170898;34.04;983;03.51.04.229
12888;170902;34.04;984;03.51.04.229
12900;170903;34.04;985;03.51.04.229
12908;170896;34.04;986;03.51.04.229
12912;170886;34.04;987;03.51.04.229
12880;170885;34.04;988;03.51.04.229
12912;170877;34.04;989;03.51.04.229
12896;170879;34.04;990;03.51.04.229
12904;170885;34.04;991;03.51.04.229
12876;170883;34.04;992;03.51.04.251
12932;170887;34.04;993;03.51.04.251
12888;170891;34.04;994;03.51.04.251
12904;170894;34.04;995;03.51.04.251
12900;170904;34.04;996;03.51.04.251
12900;170906;34.04;997;03.51.04.251
12928;170917;34.04;998;03.51.04.251
12900;170921;34.04;999;03.51.04.251
12892;170937;34.04;000;03.51.04.338
12892;170943;34.04;001;03.51.04.338
12928;170949;34.04;002;03.51.04.338
12908;170950;34.04;003;03.51.04.338
12912;170953;34.04;004;03.51.04.349
12884;170950;34.04;005;03.51.04.349
12900;170962;34.04;006;03.51.04.349
12888;170951;34.04;007;03.51.04.349
12900;170955;34.04;008;03.51.04.349
12928;170957;34.04;009;03.51.04.349
12900;170952;34.04;010;03.51.04.349
12916;170947;34.04;011;03.51.04.349
12900;170958;34.04;012;03.51.04.349
12900;170958;34.04;013;03.51.04.349
12892;170950;34.04;014;03.51.04.349
12908;170956;34.04;015;03.51.04.349
12888;170946;34.04;016;03.51.04.349
12900;170942;34.04;017;03.51.04.360
12908;170936;34.04;018;03.51.04.360
12928;170928;34.04;019;03.51.04.360
12880;170929;34.04;020;03.51.04.360
12908;170924;34.04;021;03.51.04.360
12916;170914;34.04;022;03.51.04.361
12892;170915;34.04;023;03.51.04.372
12924;170909;34.04;024;03.51.04.372
12916;170912;34.04;025;03.51.04.471
12936;170907;34.04;026;03.51.04.482
12908;170905;34.04;027;03.51.04.482
12892;170901;34.04;028;03.51.04.482
12904;170900;34.04;029;03.51.04.482
12908;170913;34.04;030;03.51.04.482
12912;170910;34.04;031;03.51.04.482
12928;170921;34.04;032;03.51.04.482
12908;170918;34.04;033;03.51.04.482
12876;170925;34.04;034;03.51.04.482
12892;170935;34.04;035;03.51.04.482
12868;170946;34.04;036;03.51.04.482
12884;170955;34.04;037;03.51.04.482
12888;170962;34.04;038;03.51.04.482
12896;170978;34.04;039;03.51.04.493
12928;170985;34.04;040;03.51.04.493
12888;170992;34.04;041;03.51.04.493
12912;171000;34.04;042;03.51.04.493
12912;171001;34.04;043;03.51.04.493
12916;171012;34.04;044;03.51.04.493
12908;171026;34.04;045;03.51.04.493
12884;171012;34.04;046;03.51.04.493
12916;171011;34.04;047;03.51.04.493
12916;171017;34.04;048;03.51.04.493
12924;171015;34.04;049;03.51.04.493
12868;171009;34.04;050;03.51.04.592
12896;171025;34.04;051;03.51.04.592
12928;171009;34.04;052;03.51.04.592
12904;171011;34.04;053;03.51.04.592
12868;171009;34.04;054;03.51.04.592
12896;171001;34.04;055;03.51.04.592
12896;170999;34.04;056;03.51.04.592
12904;170988;34.04;057;03.51.04.592
12932;170971;34.04;058;03.51.04.603
12892;170970;34.04;059;03.51.04.603
12888;170960;34.04;060;03.51.04.603
12912;170959;34.04;061;03.51.04.603
12904;170948;34.04;062;03.51.04.603
12896;170934;34.04;063;03.51.04.603
12888;170925;34.04;064;03.51.04.603
12908;170919;34.04;065;03.51.04.603
12872;170918;34.04;066;03.51.04.603
12888;170908;34.04;067;03.51.04.614
12904;170906;34.04;068;03.51.04.614
12916;170906;34.04;069;03.51.04.614
12900;170911;34.04;070;03.51.04.614
12892;170912;34.04;071;03.51.04.614
12896;170905;34.04;072;03.51.04.614
12896;170908;34.04;073;03.51.04.614
12888;170901;34.04;074;03.51.04.614
12892;170916;34.04;075;03.51.04.712
12896;170906;34.04;076;03.51.04.712
12912;170918;34.04;077;03.51.04.712
12912;170921;34.04;078;03.51.04.712
12896;170913;34.04;079;03.51.04.712
12912;170927;34.04;080;03.51.04.723
12844;170916;34.04;081;03.51.04.723
12896;170928;34.04;082;03.51.04.723
12888;170930;34.04;083;03.51.04.723
12876;170925;34.04;084;03.51.04.723
12892;170928;34.04;085;03.51.04.723
12892;170930;34.04;086;03.51.04.723
12880;170931;34.04;087;03.51.04.723
12880;170933;34.04;088;03.51.04.723
12896;170939;34.04;089;03.51.04.723
12896;170927;34.04;090;03.51.04.723
12904;170935;34.04;091;03.51.04.723
12900;170934;34.04;092;03.51.04.723
12932;170935;34.04;093;03.51.04.723
12900;170934;34.04;094;03.51.04.723
12892;170927;34.04;095;03.51.04.723
12912;170923;34.04;096;03.51.04.734
12884;170919;34.04;097;03.51.04.734
12896;170921;34.04;098;03.51.04.734
12928;170919;34.04;099;03.51.04.734
12892;170908;34.04;100;03.51.04.833
12860;170906;34.04;101;03.51.04.833
12876;170911;34.04;102;03.51.04.833
12904;170916;34.04;103;03.51.04.833
12928;170921;34.04;104;03.51.04.834
12888;170906;34.04;105;03.51.04.845
12892;170914;34.04;106;03.51.04.845
12880;170911;34.04;107;03.51.04.845
12904;170903;34.04;108;03.51.04.845
12908;170909;34.04;109;03.51.04.845
12888;170908;34.04;110;03.51.04.845
12900;170908;34.04;111;03.51.04.845
12904;170902;34.04;112;03.51.04.845
12912;170909;34.04;113;03.51.04.845
12916;170902;34.04;114;03.51.04.845
12900;170913;34.04;115;03.51.04.845
12892;170915;34.04;116;03.51.04.845
12880;170912;34.04;117;03.51.04.845
12900;170914;34.04;118;03.51.04.856
12900;170908;34.04;119;03.51.04.856
12912;170910;34.04;120;03.51.04.856
12928;170919;34.04;121;03.51.04.856
12900;170906;34.04;122;03.51.04.856
12880;170910;34.04;123;03.51.04.856
12876;170914;34.04;124;03.51.04.856
12916;170918;34.04;125;03.51.04.976
12892;170912;34.04;126;03.51.04.976
12912;170924;34.04;127;03.51.04.976
12888;170922;34.04;128;03.51.04.976
12928;170917;34.04;129;03.51.04.976
12896;170924;34.04;130;03.51.04.976
12936;170920;34.04;131;03.51.04.976
12872;170924;34.04;132;03.51.04.976
12904;170931;34.04;133;03.51.04.976
12896;170933;34.04;134;03.51.04.976
12896;170940;34.04;135;03.51.04.976
12888;170936;34.04;136;03.51.04.976
12880;170940;34.04;137;03.51.04.976
12908;170947;34.04;138;03.51.04.987
12904;170949;34.04;139;03.51.04.987
12912;170949;34.04;140;03.51.04.987
12928;170955;34.04;141;03.51.04.987
12884;170950;34.04;142;03.51.04.987
12912;170953;34.04;143;03.51.04.987
12904;170954;34.04;144;03.51.04.987
12896;170960;34.04;145;03.51.04.987
12884;170963;34.04;146;03.51.04.987
12904;170967;34.04;147;03.51.04.987
12912;170966;34.04;148;03.51.04.987
12860;170960;34.04;149;03.51.04.987
12900;170962;34.04;150;03.51.05.118
12908;170961;34.04;151;03.51.05.118
12912;170966;34.04;152;03.51.05.118
12876;170966;34.04;153;03.51.05.118
12880;170970;34.04;154;03.51.05.118
12888;170969;34.04;155;03.51.05.118
12904;170976;34.04;156;03.51.05.118
12912;170981;34.04;157;03.51.05.118
12900;170977;34.04;158;03.51.05.129
12892;170976;34.04;159;03.51.05.129
12908;170972;34.04;160;03.51.05.129
12912;170978;34.04;161;03.51.05.129
12904;170968;34.04;162;03.51.05.129
12916;170977;34.04;163;03.51.05.129
12884;170974;34.04;164;03.51.05.129
12892;170978;34.04;165;03.51.05.129
12888;170972;34.04;166;03.51.05.129
12904;170974;34.04;167;03.51.05.129
12876;170980;34.04;168;03.51.05.129
12892;170977;34.04;169;03.51.05.129
12920;170979;34.04;170;03.51.05.129
12928;170979;34.04;171;03.51.05.139
12896;170973;34.04;172;03.51.05.139
12884;170973;34.04;173;03.51.05.139
12912;170971;34.04;174;03.51.05.139
12892;170983;34.08;175;03.51.05.216
12904;170984;34.08;176;03.51.05.216
12892;170982;34.08;177;03.51.05.216
12936;170985;34.08;178;03.51.05.216
12908;170993;34.08;179;03.51.05.227
12912;170988;34.08;180;03.51.05.227
12896;170990;34.08;181;03.51.05.227
12928;170988;34.08;182;03.51.05.227
12908;170990;34.08;183;03.51.05.227
12928;170987;34.08;184;03.51.05.227
12884;170994;34.08;185;03.51.05.227
12912;170994;34.08;186;03.51.05.238
12900;171002;34.08;187;03.51.05.238
12912;171000;34.08;188;03.51.05.238
12916;171005;34.08;189;03.51.05.238
12928;171008;34.08;190;03.51.05.238
12928;171007;34.08;191;03.51.05.238
12892;171006;34.08;192;03.51.05.238
12916;171019;34.08;193;03.51.05.238
12888;171015;34.08;194;03.51.05.238
12896;171009;34.08;195;03.51.05.238
12888;171015;34.08;196;03.51.05.238
12896;171020;34.08;197;03.51.05.238
12920;171016;34.08;198;03.51.05.238
12944;171024;34.08;199;03.51.05.248
12884;171019;34.08;200;03.51.05.346
12912;171023;34.08;201;03.51.05.346
12896;171020;34.08;202;03.51.05.346
12876;171025;34.08;203;03.51.05.346
12928;171020;34.08;204;03.51.05.346
12912;171020;34.08;205;03.51.05.346
12912;171021;34.08;206;03.51.05.346
12912;171012;34.08;207;03.51.05.346
12928;171016;34.08;208;03.51.05.346
12904;171008;34.08;209;03.51.05.346
12888;170999;34.08;210;03.51.05.346
12912;171004;34.08;211;03.51.05.346
12876;170990;34.08;212;03.51.05.357
12892;170990;34.08;213;03.51.05.357
12892;170983;34.08;214;03.51.05.357
12892;170983;34.08;215;03.51.05.357
12912;170969;34.08;216;03.51.05.357
12900;170966;34.08;217;03.51.05.357
12892;170970;34.08;218;03.51.05.357
12888;170957;34.08;219;03.51.05.357
12920;170966;34.08;220;03.51.05.357
12892;170964;34.08;221;03.51.05.357
12912;170957;34.08;222;03.51.05.357
12916;170944;34.08;223;03.51.05.357
12964;170943;34.08;224;03.51.05.357
12904;170939;34.04;225;03.51.05.467
12916;170932;34.04;226;03.51.05.467
12928;170943;34.04;227;03.51.05.467
12916;170943;34.04;228;03.51.05.467
12896;170938;34.04;229;03.51.05.467
12912;170941;34.04;230;03.51.05.467
12916;170940;34.04;231;03.51.05.467
12900;170939;34.04;232;03.51.05.467
12904;170939;34.04;233;03.51.05.477
12904;170937;34.04;234;03.51.05.477
12912;170943;34.04;235;03.51.05.477
12916;170944;34.04;236;03.51.05.477
12900;170946;34.04;237;03.51.05.477
12912;170944;34.04;238;03.51.05.477
12900;170946;34.04;239;03.51.05.477
12916;170945;34.04;240;03.51.05.477
12892;170938;34.04;241;03.51.05.477
12916;170945;34.04;242;03.51.05.488
12880;170948;34.04;243;03.51.05.488
12896;170953;34.04;244;03.51.05.488
12900;170951;34.04;245;03.51.05.488
12872;170955;34.04;246;03.51.05.488
12908;170956;34.04;247;03.51.05.488
12896;170956;34.04;248;03.51.05.488
12928;170965;34.04;249;03.51.05.488
12904;170963;34.04;250;03.51.05.598
12928;170963;34.04;251;03.51.05.598
12892;170970;34.04;252;03.51.05.598
12900;170969;34.04;253;03.51.05.609
12900;170969;34.04;254;03.51.05.609
12892;170972;34.04;255;03.51.05.609
12900;170964;34.04;256;03.51.05.609
12884;170974;34.04;257;03.51.05.609
12920;170980;34.04;258;03.51.05.609
12916;170983;34.04;259;03.51.05.609
12908;170975;34.04;260;03.51.05.609
12928;170980;34.04;261;03.51.05.609
12896;170975;34.04;262;03.51.05.609
12884;170989;34.04;263;03.51.05.609
12936;170980;34.04;264;03.51.05.609
12860;170977;34.04;265;03.51.05.609
12892;170978;34.04;266;03.51.05.620
12892;170977;34.04;267;03.51.05.620
12908;170982;34.04;268;03.51.05.620
12912;170980;34.04;269;03.51.05.620
12928;170985;34.04;270;03.51.05.620
12912;170982;34.04;271;03.51.05.620
12888;170977;34.04;272;03.51.05.620
12920;170984;34.04;273;03.51.05.620
12920;170989;34.04;274;03.51.05.620
12884;170985;34.04;275;03.51.05.718
12892;170978;34.04;276;03.51.05.718
12872;170993;34.04;277;03.51.05.718
12892;170995;34.04;278;03.51.05.718
12876;170988;34.04;279;03.51.05.718
12924;170980;34.04;280;03.51.05.718
12912;170986;34.04;281;03.51.05.718
12928;170984;34.04;282;03.51.05.718
12888;170989;34.04;283;03.51.05.740
12916;170979;34.04;284;03.51.05.740
12880;170992;34.04;285;03.51.05.740
12860;170985;34.04;286;03.51.05.740
12876;170991;34.04;287;03.51.05.740
12896;170996;34.04;288;03.51.05.740
12892;170988;34.04;289;03.51.05.740
12904;170995;34.04;290;03.51.05.740
12868;170989;34.04;291;03.51.05.740
12904;170991;34.04;292;03.51.05.740
12888;170993;34.04;293;03.51.05.740
12900;170997;34.04;294;03.51.05.740
12912;170987;34.04;295;03.51.05.740
12884;170993;34.04;296;03.51.05.751
12892;170988;34.04;297;03.51.05.751
12912;170990;34.04;298;03.51.05.751
12928;170998;34.04;299;03.51.05.751
12876;170998;34.04;300;03.51.05.839
12900;171004;34.04;301;03.51.05.839
12892;171005;34.04;302;03.51.05.839
12916;171005;34.04;303;03.51.05.839
12904;171007;34.04;304;03.51.05.839
12904;171003;34.04;305;03.51.05.839
12880;171005;34.04;306;03.51.05.839
12904;171009;34.04;307;03.51.05.839
12904;171003;34.04;308;03.51.05.849
12912;171004;34.04;309;03.51.05.849
12888;171006;34.04;310;03.51.05.849
12920;171011;34.04;311;03.51.05.849
12904;171023;34.04;312;03.51.05.849
12900;171013;34.04;313;03.51.05.849
12892;171011;34.04;314;03.51.05.849
12888;171020;34.04;315;03.51.05.849
12928;171019;34.04;316;03.51.05.849
12900;171025;34.04;317;03.51.05.871
12888;171026;34.04;318;03.51.05.871
12892;171027;34.04;319;03.51.05.871
12884;171030;34.04;320;03.51.05.871
12908;171035;34.04;321;03.51.05.871
12904;171035;34.04;322;03.51.05.871
12912;171032;34.04;323;03.51.05.871
12908;171038;34.04;324;03.51.05.871
12896;171038;34.04;325;03.51.05.960
12896;171033;34.04;326;03.51.05.960
12912;171042;34.04;327;03.51.05.960
12916;171050;34.04;328;03.51.05.960
12876;171044;34.04;329;03.51.05.960
12892;171048;34.04;330;03.51.05.960
12908;171047;34.04;331;03.51.05.971
12876;171051;34.04;332;03.51.05.971
12912;171055;34.04;333;03.51.05.971
12928;171052;34.04;334;03.51.05.971
12904;171058;34.04;335;03.51.05.971
12888;171057;34.04;336;03.51.05.971
12928;171049;34.04;337;03.51.05.971
12900;171056;34.04;338;03.51.05.971
12912;171054;34.04;339;03.51.05.971
12928;171059;34.04;340;03.51.05.971
12888;171055;34.04;341;03.51.05.971
12860;171062;34.04;342;03.51.05.971
12880;171059;34.04;343;03.51.05.971
12896;171070;34.04;344;03.51.05.982
12900;171064;34.04;345;03.51.05.982
12892;171068;34.04;346;03.51.05.982
12928;171069;34.04;347;03.51.05.982
12888;171065;34.04;348;03.51.05.982
12908;171075;34.04;349;03.51.05.982
12900;171078;34.04;350;03.51.06.102
12920;171078;34.04;351;03.51.06.113
12888;171073;34.04;352;03.51.06.113
12920;171071;34.04;353;03.51.06.113
12908;171064;34.04;354;03.51.06.113
12904;171060;34.04;355;03.51.06.113
12904;171058;34.04;356;03.51.06.113
12908;171057;34.04;357;03.51.06.113
12920;171051;34.04;358;03.51.06.113
12888;171048;34.04;359;03.51.06.113
12888;171043;34.04;360;03.51.06.113
12896;171043;34.04;361;03.51.06.113
12928;171039;34.04;362;03.51.06.113
12916;171031;34.04;363;03.51.06.113
12892;171029;34.04;364;03.51.06.124
12900;171014;34.04;365;03.51.06.124
12908;171027;34.04;366;03.51.06.124
12884;171019;34.04;367;03.51.06.124
12912;171020;34.04;368;03.51.06.124
12920;171006;34.04;369;03.51.06.124
12904;171012;34.04;370;03.51.06.124
12900;171020;34.04;371;03.51.06.124
12888;171002;34.04;372;03.51.06.124
12892;170997;34.04;373;03.51.06.124
12892;171009;34.04;374;03.51.06.124
12912;170999;34.04;375;03.51.06.234
12920;170992;34.04;376;03.51.06.234
12892;170992;34.04;377;03.51.06.234
12880;170993;34.04;378;03.51.06.234
12908;170998;34.04;379;03.51.06.234
12896;170986;34.04;380;03.51.06.234
12908;170988;34.04;381;03.51.06.234
12856;170989;34.04;382;03.51.06.234
12900;170993;34.04;383;03.51.06.234
12900;170989;34.04;384;03.51.06.234
12912;170995;34.04;385;03.51.06.234
12896;171000;34.04;386;03.51.06.234
12916;170994;34.04;387;03.51.06.246
12884;170996;34.04;388;03.51.06.246
12932;170995;34.04;389;03.51.06.246
12892;170993;34.04;390;03.51.06.246
12876;170992;34.04;391;03.51.06.246
12888;171003;34.04;392;03.51.06.246
12884;171002;34.04;393;03.51.06.246
12916;171004;34.04;394;03.51.06.246
12896;170999;34.04;395;03.51.06.246
12876;171005;34.04;396;03.51.06.246
12904;171002;34.04;397;03.51.06.246
12884;171006;34.04;398;03.51.06.246
12920;171005;34.04;399;03.51.06.246
12908;171011;34.04;400;03.51.06.345
12900;171010;34.04;401;03.51.06.345
12900;171009;34.04;402;03.51.06.345
12884;171015;34.04;403;03.51.06.345
12880;171005;34.04;404;03.51.06.345
12928;171013;34.04;405;03.51.06.345
12908;171021;34.04;406;03.51.06.345
12888;171014;34.04;407;03.51.06.345
12912;171020;34.04;408;03.51.06.356
12884;171003;34.04;409;03.51.06.356
12900;171010;34.04;410;03.51.06.356
12912;171013;34.04;411;03.51.06.356
12896;171008;34.04;412;03.51.06.356
12904;171010;34.04;413;03.51.06.356
12900;171015;34.04;414;03.51.06.356
12892;171004;34.04;415;03.51.06.356
12904;171005;34.04;416;03.51.06.367
12884;171010;34.04;417;03.51.06.367
12872;171010;34.04;418;03.51.06.367
12892;171007;34.04;419;03.51.06.367
12888;171001;34.04;420;03.51.06.367
12888;171009;34.04;421;03.51.06.367
12888;171007;34.04;422;03.51.06.367
12884;171007;34.04;423;03.51.06.367
12924;171006;34.04;424;03.51.06.367
12916;171001;34.04;425;03.51.06.465
12900;171010;34.04;426;03.51.06.465
12920;171010;34.04;427;03.51.06.465
12900;171009;34.04;428;03.51.06.465
12892;171010;34.04;429;03.51.06.465
12916;171009;34.04;430;03.51.06.465
12888;171004;34.04;431;03.51.06.476
12920;171014;34.04;432;03.51.06.476
12912;171006;34.04;433;03.51.06.476
12884;171001;34.04;434;03.51.06.476
12900;171006;34.04;435;03.51.06.476
12896;171006;34.04;436;03.51.06.476
12908;171009;34.04;437;03.51.06.476
12888;171007;34.04;438;03.51.06.476
12928;171012;34.04;439;03.51.06.476
12936;171010;34.04;440;03.51.06.476
12908;171015;34.04;441;03.51.06.476
12908;171018;34.04;442;03.51.06.476
12892;171005;34.04;443;03.51.06.476
12900;171016;34.04;444;03.51.06.487
12908;171010;34.04;445;03.51.06.487
12900;171013;34.04;446;03.51.06.487
12928;171011;34.04;447;03.51.06.487
12916;171018;34.04;448;03.51.06.487
12924;171017;34.04;449;03.51.06.487
12908;171009;34.04;450;03.51.06.586
12912;171011;34.04;451;03.51.06.597
12904;171019;34.04;452;03.51.06.597
12912;171017;34.04;453;03.51.06.597
12884;171019;34.04;454;03.51.06.597
12892;171016;34.04;455;03.51.06.597
12892;171017;34.04;456;03.51.06.597
12888;171015;34.04;457;03.51.06.597
12912;171025;34.04;458;03.51.06.597
12884;171029;34.04;459;03.51.06.597
12892;171031;34.04;460;03.51.06.597
12876;171021;34.04;461;03.51.06.597
12904;171037;34.04;462;03.51.06.597
12864;171033;34.04;463;03.51.06.597
12896;171034;34.04;464;03.51.06.597
12908;171032;34.04;465;03.51.06.608
12876;171033;34.04;466;03.51.06.608
12916;171040;34.04;467;03.51.06.608
12872;171032;34.04;468;03.51.06.608
12892;171030;34.04;469;03.51.06.608
12896;171031;34.04;470;03.51.06.608
12876;171030;34.04;471;03.51.06.608
12916;171032;34.04;472;03.51.06.608
12872;171043;34.04;473;03.51.06.608
12924;171040;34.04;474;03.51.06.608
12924;171043;34.08;475;03.51.06.729
12888;171044;34.08;476;03.51.06.729
12912;171034;34.08;477;03.51.06.729
12904;171042;34.08;478;03.51.06.729
12908;171045;34.08;479;03.51.06.729
12884;171039;34.08;480;03.51.06.729
12892;171043;34.08;481;03.51.06.729
12904;171053;34.08;482;03.51.06.729
12872;171043;34.08;483;03.51.06.729
12924;171042;34.08;484;03.51.06.729
12888;171044;34.08;485;03.51.06.729
12888;171049;34.08;486;03.51.06.740
12892;171042;34.08;487;03.51.06.740
12900;171043;34.08;488;03.51.06.740
12916;171042;34.08;489;03.51.06.740
12888;171054;34.08;490;03.51.06.740
12896;171044;34.08;491;03.51.06.740
12892;171062;34.08;492;03.51.06.740
12908;171056;34.08;493;03.51.06.740
12892;171044;34.08;494;03.51.06.740
12880;171044;34.08;495;03.51.06.740
12916;171040;34.08;496;03.51.06.740
12896;171033;34.08;497;03.51.06.740
12884;171034;34.08;498;03.51.06.740
12900;171030;34.08;499;03.51.06.751
12928;171021;34.08;500;03.51.06.838
12884;171021;34.08;501;03.51.06.838
12892;171019;34.08;502;03.51.06.838
12876;171011;34.08;503;03.51.06.838
12912;171007;34.08;504;03.51.06.838
12884;171002;34.08;505;03.51.06.838
12896;171001;34.08;506;03.51.06.838
12900;170985;34.08;507;03.51.06.849
12900;170996;34.08;508;03.51.06.849
12860;170986;34.08;509;03.51.06.849
12892;170987;34.08;510;03.51.06.849
12916;170983;34.08;511;03.51.06.849
12904;170985;34.08;512;03.51.06.849
12872;170979;34.08;513;03.51.06.849
12900;170977;34.08;514;03.51.06.849
12920;170978;34.08;515;03.51.06.849
12908;170977;34.08;516;03.51.06.849
12904;170977;34.08;517;03.51.06.849
12904;170981;34.08;518;03.51.06.849
12888;170978;34.08;519;03.51.06.849
12876;170983;34.08;520;03.51.06.861
12916;170983;34.08;521;03.51.06.861
12888;170983;34.08;522;03.51.06.861
12920;170975;34.08;523;03.51.06.861
12920;170984;34.08;524;03.51.06.861
12928;170977;34.04;525;03.51.06.961
12892;170992;34.04;526;03.51.06.961
12884;170986;34.04;527;03.51.06.961
12884;170981;34.04;528;03.51.06.961
12892;170982;34.04;529;03.51.06.961
12884;170985;34.04;530;03.51.06.961
12888;170987;34.04;531;03.51.06.972
12892;170989;34.04;532;03.51.06.972
12876;170990;34.04;533;03.51.06.972
12896;170999;34.04;534;03.51.06.972
12892;170987;34.04;535;03.51.06.972
12896;170993;34.04;536;03.51.06.972
12888;171001;34.04;537;03.51.06.972
12908;171000;34.04;538;03.51.06.972
12900;171002;34.04;539;03.51.06.972
12904;171001;34.04;540;03.51.06.972
12908;171001;34.04;541;03.51.06.972
12896;171011;34.04;542;03.51.06.972
12912;170996;34.04;543;03.51.06.972
12892;170997;34.04;544;03.51.06.983
12896;171000;34.04;545;03.51.06.983
12892;171004;34.04;546;03.51.06.983
12888;171008;34.04;547;03.51.06.983
12892;170993;34.04;548;03.51.06.983
12912;171002;34.04;549;03.51.06.983
12896;171005;34.04;550;03.51.07.093
12892;171003;34.04;551;03.51.07.093
12908;171004;34.04;552;03.51.07.104
12912;171004;34.04;553;03.51.07.104
12868;170999;34.04;554;03.51.07.104
12892;170998;34.04;555;03.51.07.104
12900;170996;34.04;556;03.51.07.104
12904;170994;34.04;557;03.51.07.104
12888;171000;34.04;558;03.51.07.104
12888;171013;34.04;559;03.51.07.104
12912;171005;34.04;560;03.51.07.104
12892;170999;34.04;561;03.51.07.115
12888;171005;34.04;562;03.51.07.115
12892;170991;34.04;563;03.51.07.115
12896;170999;34.04;564;03.51.07.115
12904;171000;34.04;565;03.51.07.115
12876;170997;34.04;566;03.51.07.115
12892;171000;34.04;567;03.51.07.115
12896;170995;34.04;568;03.51.07.115
12904;170997;34.04;569;03.51.07.115
12896;170999;34.04;570;03.51.07.115
12884;170999;34.04;571;03.51.07.115
12900;171009;34.04;572;03.51.07.115
12904;170999;34.04;573;03.51.07.115
12932;170998;34.04;574;03.51.07.126
12900;171000;34.04;575;03.51.07.224
12904;171011;34.04;576;03.51.07.224
12888;171009;34.04;577;03.51.07.224
12904;171007;34.04;578;03.51.07.224
12912;171015;34.04;579;03.51.07.224
12876;171015;34.04;580;03.51.07.224
12880;171015;34.04;581;03.51.07.224
12892;171009;34.04;582;03.51.07.224
12904;171012;34.04;583;03.51.07.235
12896;171013;34.04;584;03.51.07.235
12876;171018;34.04;585;03.51.07.235
12876;171019;34.04;586;03.51.07.235
12892;171021;34.04;587;03.51.07.235
12896;171018;34.04;588;03.51.07.235
12928;171026;34.04;589;03.51.07.235
12904;171026;34.04;590;03.51.07.235
12912;171019;34.04;591;03.51.07.235
12904;171028;34.04;592;03.51.07.246
12876;171030;34.04;593;03.51.07.246
12912;171027;34.04;594;03.51.07.246
12912;171028;34.04;595;03.51.07.246
12896;171035;34.04;596;03.51.07.246
12892;171039;34.04;597;03.51.07.246
12904;171037;34.04;598;03.51.07.246
12904;171036;34.04;599;03.51.07.246
12896;171036;34.04;600;03.51.07.345
12892;171042;34.04;601;03.51.07.345
12932;171036;34.04;602;03.51.07.345
12904;171036;34.04;603;03.51.07.345
12908;171035;34.04;604;03.51.07.345
12884;171034;34.04;605;03.51.07.345
12916;171036;34.04;606;03.51.07.345
12904;171038;34.04;607;03.51.07.345
12904;171036;34.04;608;03.51.07.367
12904;171039;34.04;609;03.51.07.367
12904;171045;34.04;610;03.51.07.367
12912;171043;34.04;611;03.51.07.367
12908;171034;34.04;612;03.51.07.367
12892;171032;34.04;613;03.51.07.367
12896;171044;34.04;614;03.51.07.367
12908;171043;34.04;615;03.51.07.378
12888;171035;34.04;616;03.51.07.378
12888;171035;34.04;617;03.51.07.378
12876;171039;34.04;618;03.51.07.378
12904;171033;34.04;619;03.51.07.378
12896;171027;34.04;620;03.51.07.378
12928;171037;34.04;621;03.51.07.378
12908;171030;34.04;622;03.51.07.378
12884;171029;34.04;623;03.51.07.378
12908;171031;34.04;624;03.51.07.389
12900;171030;34.08;625;03.51.07.465
12904;171019;34.08;626;03.51.07.465
12928;171006;34.08;627;03.51.07.465
12900;171013;34.08;628;03.51.07.465
12892;171009;34.08;629;03.51.07.476
12876;171011;34.08;630;03.51.07.476
12920;171000;34.08;631;03.51.07.476
12908;170995;34.08;632;03.51.07.476
12892;171000;34.08;633;03.51.07.476
12892;170991;34.08;634;03.51.07.476
12904;170987;34.08;635;03.51.07.476
12896;170990;34.08;636;03.51.07.476
12888;170981;34.08;637;03.51.07.476
12880;170978;34.08;638;03.51.07.476
12900;170978;34.08;639;03.51.07.476
12896;170974;34.08;640;03.51.07.476
12896;170971;34.08;641;03.51.07.487
12884;170972;34.08;642;03.51.07.498
12920;170976;34.08;643;03.51.07.498
12912;170971;34.08;644;03.51.07.498
12868;170975;34.08;645;03.51.07.509
12900;170978;34.08;646;03.51.07.509
12928;170977;34.08;647;03.51.07.509
12908;170978;34.08;648;03.51.07.509
12892;170978;34.08;649;03.51.07.509
12892;170983;34.08;650;03.51.07.640
12916;170975;34.08;651;03.51.07.640
12892;170985;34.08;652;03.51.07.640
12892;170977;34.08;653;03.51.07.640
12944;170980;34.08;654;03.51.07.640
12904;170978;34.08;655;03.51.07.640
12892;170967;34.08;656;03.51.07.640
12912;170976;34.08;657;03.51.07.640
12920;170978;34.08;658;03.51.07.651
12892;170968;34.08;659;03.51.07.651
12896;170968;34.08;660;03.51.07.651
12896;170970;34.08;661;03.51.07.651
12884;170968;34.08;662;03.51.07.651
12884;170968;34.08;663;03.51.07.651
12904;170969;34.08;664;03.51.07.651
12892;170972;34.08;665;03.51.07.651
12896;170962;34.08;666;03.51.07.651
12896;170962;34.08;667;03.51.07.651
12912;170961;34.08;668;03.51.07.651
12892;170959;34.08;669;03.51.07.651
12900;170963;34.08;670;03.51.07.651
12892;170957;34.08;671;03.51.07.651
12912;170962;34.08;672;03.51.07.651
12908;170950;34.08;673;03.51.07.651
12924;170958;34.08;674;03.51.07.662
12908;170953;34.04;675;03.51.07.728
12908;170959;34.04;676;03.51.07.728
12908;170953;34.04;677;03.51.07.728
12896;170951;34.04;678;03.51.07.728
12900;170954;34.04;679;03.51.07.728
12892;170960;34.04;680;03.51.07.728
12908;170948;34.04;681;03.51.07.728
12860;170951;34.04;682;03.51.07.728
12900;170952;34.04;683;03.51.07.728
12916;170951;34.04;684;03.51.07.739
12908;170952;34.04;685;03.51.07.739
12896;170947;34.04;686;03.51.07.739
12904;170944;34.04;687;03.51.07.739
12892;170944;34.04;688;03.51.07.739
12896;170944;34.04;689;03.51.07.739
12868;170943;34.04;690;03.51.07.739
12884;170935;34.04;691;03.51.07.739
12932;170947;34.04;692;03.51.07.750
12896;170948;34.04;693;03.51.07.750
12932;170949;34.04;694;03.51.07.750
12892;170948;34.04;695;03.51.07.750
12880;170948;34.04;696;03.51.07.750
12908;170952;34.04;697;03.51.07.750
12904;170956;34.04;698;03.51.07.750
12916;170961;34.04;699;03.51.07.750
12904;170958;34.04;700;03.51.07.838
12904;170966;34.04;701;03.51.07.838
12888;170960;34.04;702;03.51.07.838
12892;170963;34.04;703;03.51.07.838
12900;170965;34.04;704;03.51.07.838
12892;170970;34.04;705;03.51.07.849
12892;170971;34.04;706;03.51.07.849
12888;170971;34.04;707;03.51.07.849
12904;170977;34.04;708;03.51.07.860
12908;170978;34.04;709;03.51.07.860
12924;170972;34.04;710;03.51.07.860
12880;170977;34.04;711;03.51.07.860
12904;170970;34.04;712;03.51.07.860
12904;170982;34.04;713;03.51.07.871
12912;170971;34.04;714;03.51.07.871
12912;170970;34.04;715;03.51.07.871
12904;170972;34.04;716;03.51.07.871
12904;170976;34.04;717;03.51.07.871
12872;170976;34.04;718;03.51.07.871
12888;170979;34.04;719;03.51.07.871
12892;170978;34.04;720;03.51.07.871
12908;170975;34.04;721;03.51.07.871
12900;170975;34.04;722;03.51.07.871
12908;170983;34.04;723;03.51.07.871
12888;170982;34.04;724;03.51.07.871
12904;170982;34.04;725;03.51.07.959
12880;170979;34.04;726;03.51.07.970
12912;170971;34.04;727;03.51.07.970
12904;170979;34.04;728;03.51.07.970
12900;170973;34.04;729;03.51.07.970
12896;170976;34.04;730;03.51.07.970
12920;170977;34.04;731;03.51.07.970
12900;170977;34.04;732;03.51.07.970
12888;170980;34.04;733;03.51.07.970
12908;170975;34.04;734;03.51.07.970
12912;170972;34.04;735;03.51.07.970
12896;170970;34.04;736;03.51.07.981
12896;170975;34.04;737;03.51.07.981
12868;170977;34.04;738;03.51.07.981
12904;170976;34.04;739;03.51.07.981
12892;170970;34.04;740;03.51.07.981
12896;170974;34.04;741;03.51.07.981
12896;170963;34.04;742;03.51.07.992
12876;170961;34.04;743;03.51.07.992
12892;170970;34.04;744;03.51.07.992
12928;170967;34.04;745;03.51.08.003
12904;170963;34.04;746;03.51.08.003
12892;170965;34.04;747;03.51.08.003
12912;170962;34.04;748;03.51.08.003
12892;170965;34.04;749;03.51.08.003
12904;170967;34.04;750;03.51.08.091
12884;170964;34.04;751;03.51.08.091
12900;170956;34.04;752;03.51.08.091
12868;170955;34.04;753;03.51.08.091
12912;170948;34.04;754;03.51.08.091
12900;170951;34.04;755;03.51.08.091
12896;170946;34.04;756;03.51.08.091
12876;170934;34.04;757;03.51.08.091
12892;170938;34.04;758;03.51.08.102
12912;170931;34.04;759;03.51.08.102
12916;170928;34.04;760;03.51.08.102
12876;170927;34.04;761;03.51.08.102
12892;170923;34.04;762;03.51.08.102
12912;170921;34.04;763;03.51.08.102
12868;170911;34.04;764;03.51.08.102
12908;170903;34.04;765;03.51.08.102
12912;170907;34.04;766;03.51.08.102
12904;170907;34.04;767;03.51.08.102
12860;170909;34.04;768;03.51.08.102
12896;170895;34.04;769;03.51.08.102
12884;170897;34.04;770;03.51.08.113
12892;170901;34.04;771;03.51.08.113
12928;170895;34.04;772;03.51.08.113
12912;170892;34.04;773;03.51.08.113
12912;170900;34.04;774;03.51.08.113
12908;170890;34.04;775;03.51.08.223
12888;170900;34.04;776;03.51.08.223
12876;170896;34.04;777;03.51.08.223
12888;170900;34.04;778;03.51.08.223
12896;170899;34.04;779;03.51.08.223
12896;170901;34.04;780;03.51.08.223
12892;170902;34.04;781;03.51.08.223
12880;170911;34.04;782;03.51.08.223
12904;170915;34.04;783;03.51.08.235
12868;170905;34.04;784;03.51.08.235
12904;170920;34.04;785;03.51.08.235
12928;170922;34.04;786;03.51.08.235
12892;170918;34.04;787;03.51.08.235
12896;170929;34.04;788;03.51.08.235
12896;170934;34.04;789;03.51.08.235
12904;170936;34.04;790;03.51.08.235
12912;170946;34.04;791;03.51.08.235
12896;170945;34.04;792;03.51.08.235
12912;170949;34.04;793;03.51.08.235
12920;170947;34.04;794;03.51.08.235
12892;170956;34.04;795;03.51.08.235
12904;170948;34.04;796;03.51.08.246
12884;170958;34.04;797;03.51.08.246
12880;170953;34.04;798;03.51.08.246
12920;170954;34.04;799;03.51.08.246
12876;170964;34.04;800;03.51.08.355
12888;170963;34.04;801;03.51.08.355
12892;170964;34.04;802;03.51.08.355
12932;170961;34.04;803;03.51.08.355
12908;170967;34.04;804;03.51.08.355
12892;170965;34.04;805;03.51.08.366
12912;170959;34.04;806;03.51.08.366
12876;170966;34.04;807;03.51.08.366
12876;170962;34.04;808;03.51.08.366
12880;170962;34.04;809;03.51.08.366
12888;170957;34.04;810;03.51.08.366
12904;170964;34.04;811;03.51.08.366
12896;170966;34.04;812;03.51.08.366
12892;170968;34.04;813;03.51.08.366
12904;170964;34.04;814;03.51.08.366
12916;170968;34.04;815;03.51.08.366
12884;170963;34.04;816;03.51.08.366
12892;170962;34.04;817;03.51.08.377
12868;170960;34.04;818;03.51.08.377
12904;170962;34.04;819;03.51.08.377
12928;170966;34.04;820;03.51.08.377
12928;170964;34.04;821;03.51.08.377
12884;170975;34.04;822;03.51.08.377
12896;170964;34.04;823;03.51.08.377
12888;170958;34.04;824;03.51.08.377
12860;170960;34.08;825;03.51.08.474
12928;170963;34.08;826;03.51.08.474
12896;170957;34.08;827;03.51.08.474
12892;170955;34.08;828;03.51.08.474
12888;170955;34.08;829;03.51.08.474
12896;170960;34.08;830;03.51.08.474
12884;170961;34.08;831;03.51.08.474
12876;170964;34.08;832;03.51.08.474
12900;170964;34.08;833;03.51.08.485
12920;170961;34.08;834;03.51.08.485
12908;170961;34.08;835;03.51.08.485
12880;170956;34.08;836;03.51.08.485
12876;170954;34.08;837;03.51.08.485
12900;170941;34.08;838;03.51.08.485
12912;170950;34.08;839;03.51.08.485
12928;170950;34.08;840;03.51.08.485
12892;170946;34.08;841;03.51.08.485
12908;170951;34.08;842;03.51.08.496
12916;170951;34.08;843;03.51.08.496
12892;170953;34.08;844;03.51.08.496
12900;170956;34.08;845;03.51.08.496
12900;170957;34.08;846;03.51.08.496
12884;170955;34.08;847;03.51.08.496
12880;170960;34.08;848;03.51.08.496
12932;170956;34.08;849;03.51.08.496
12916;170963;34.08;850;03.51.08.606
12936;170953;34.08;851;03.51.08.606
12876;170978;34.08;852;03.51.08.606
12892;170971;34.08;853;03.51.08.606
12880;170977;34.08;854;03.51.08.606
12904;170978;34.08;855;03.51.08.606
12904;170980;34.08;856;03.51.08.606
12900;170987;34.08;857;03.51.08.606
12908;171000;34.08;858;03.51.08.638
12900;170994;34.08;859;03.51.08.638
12892;170998;34.08;860;03.51.08.638
12888;171005;34.08;861;03.51.08.638
12876;171017;34.08;862;03.51.08.638
12900;171020;34.08;863;03.51.08.638
12904;171023;34.08;864;03.51.08.638
12904;171022;34.08;865;03.51.08.638
12924;171035;34.08;866;03.51.08.638
12928;171029;34.08;867;03.51.08.649
12888;171037;34.08;868;03.51.08.649
12888;171037;34.08;869;03.51.08.649
12912;171048;34.08;870;03.51.08.649
12912;171057;34.08;871;03.51.08.649
12888;171051;34.08;872;03.51.08.649
12884;171058;34.08;873;03.51.08.649
12928;171062;34.08;874;03.51.08.649
12896;171054;34.04;875;03.51.08.715
12864;171069;34.04;876;03.51.08.715
12892;171070;34.04;877;03.51.08.715
12888;171073;34.04;878;03.51.08.715
12900;171077;34.04;879;03.51.08.715
12876;171071;34.04;880;03.51.08.726
12860;171078;34.04;881;03.51.08.726
12912;171084;34.04;882;03.51.08.726
12928;171081;34.04;883;03.51.08.726
12920;171087;34.04;884;03.51.08.726
12892;171077;34.04;885;03.51.08.726
12904;171083;34.04;886;03.51.08.726
12908;171075;34.04;887;03.51.08.726
12884;171084;34.04;888;03.51.08.726
12928;171079;34.04;889;03.51.08.726
12880;171085;34.04;890;03.51.08.726
12912;171079;34.04;891;03.51.08.726
12928;171076;34.04;892;03.51.08.726
12876;171081;34.04;893;03.51.08.737
12888;171078;34.04;894;03.51.08.737
12884;171080;34.04;895;03.51.08.737
12884;171069;34.04;896;03.51.08.737
12928;171064;34.04;897;03.51.08.737
12904;171072;34.04;898;03.51.08.737
12908;171064;34.04;899;03.51.08.737
12880;171057;34.04;900;03.51.08.847
12900;171052;34.04;901;03.51.08.858
12876;171055;34.04;902;03.51.08.858
12904;171055;34.04;903;03.51.08.858
12892;171039;34.04;904;03.51.08.858
12876;171032;34.04;905;03.51.08.858
12928;171034;34.04;906;03.51.08.858
12912;171029;34.04;907;03.51.08.858
12888;171027;34.04;908;03.51.08.858
12912;171022;34.04;909;03.51.08.858
12912;171020;34.04;910;03.51.08.858
12912;171016;34.04;911;03.51.08.858
12884;171001;34.04;912;03.51.08.858
12904;171003;34.04;913;03.51.08.858
12912;170984;34.04;914;03.51.08.869
12896;170981;34.04;915;03.51.08.869
12896;170962;34.04;916;03.51.08.869
12916;170957;34.04;917;03.51.08.869
12888;170947;34.04;918;03.51.08.869
12900;170939;34.04;919;03.51.08.869
12936;170925;34.04;920;03.51.08.869
12896;170908;34.04;921;03.51.08.869
12892;170904;34.04;922;03.51.08.869
12888;170898;34.04;923;03.51.08.869
12876;170891;34.04;924;03.51.08.869
12888;170881;34.04;925;03.51.08.968
12900;170877;34.04;926;03.51.08.968
12892;170869;34.04;927;03.51.08.968
12904;170869;34.04;928;03.51.08.968
12884;170866;34.04;929;03.51.08.968
12900;170864;34.04;930;03.51.08.968
12884;170851;34.04;931;03.51.08.968
12920;170848;34.04;932;03.51.08.968
12888;170855;34.04;933;03.51.08.990
12872;170861;34.04;934;03.51.08.990
12908;170865;34.04;935;03.51.08.990
12928;170879;34.04;936;03.51.08.990
12880;170872;34.04;937;03.51.08.990
12912;170887;34.04;938;03.51.08.990
12860;170891;34.04;939;03.51.08.990
12876;170910;34.04;940;03.51.08.990
12896;170909;34.04;941;03.51.08.990
12892;170928;34.04;942;03.51.08.990
12912;170928;34.04;943;03.51.08.990
12896;170942;34.04;944;03.51.09.000
12900;170956;34.04;945;03.51.09.000
12904;170961;34.04;946;03.51.09.000
12912;170970;34.04;947;03.51.09.000
12888;170974;34.04;948;03.51.09.000
12896;170982;34.04;949;03.51.09.000
12888;170989;34.04;950;03.51.09.088
12896;170997;34.04;951;03.51.09.088
12928;171008;34.04;952;03.51.09.088
12904;171018;34.04;953;03.51.09.088
12912;171024;34.04;954;03.51.09.088
12944;171033;34.04;955;03.51.09.088
12892;171031;34.04;956;03.51.09.099
12912;171044;34.04;957;03.51.09.099
12884;171051;34.04;958;03.51.09.099
12884;171059;34.04;959;03.51.09.099
12920;171064;34.04;960;03.51.09.099
12892;171075;34.04;961;03.51.09.099
12908;171076;34.04;962;03.51.09.099
12900;171083;34.04;963;03.51.09.099
12932;171090;34.04;964;03.51.09.099
12920;171102;34.04;965;03.51.09.110
12900;171104;34.04;966;03.51.09.110
12928;171106;34.04;967;03.51.09.121
12904;171122;34.04;968;03.51.09.121
12916;171124;34.04;969;03.51.09.121
12912;171125;34.04;970;03.51.09.121
12904;171131;34.04;971;03.51.09.121
12892;171130;34.04;972;03.51.09.121
12892;171124;34.04;973;03.51.09.121
12928;171138;34.04;974;03.51.09.132
12904;171132;34.04;975;03.51.09.208
12900;171128;34.04;976;03.51.09.208
12892;171128;34.04;977;03.51.09.208
12912;171127;34.04;978;03.51.09.219
12884;171133;34.04;979;03.51.09.219
12884;171127;34.04;980;03.51.09.219
12888;171126;34.04;981;03.51.09.219
12888;171113;34.04;982;03.51.09.219
12892;171119;34.04;983;03.51.09.219
12892;171112;34.04;984;03.51.09.219
12924;171108;34.04;985;03.51.09.219
12872;171100;34.04;986;03.51.09.219
12888;171103;34.04;987;03.51.09.219
12916;171096;34.04;988;03.51.09.219
12908;171097;34.04;989;03.51.09.219
12896;171093;34.04;990;03.51.09.219
12892;171110;34.04;991;03.51.09.230
12888;171095;34.04;992;03.51.09.230
12904;171100;34.04;993;03.51.09.230
12876;171106;34.04;994;03.51.09.230
12904;171100;34.04;995;03.51.09.230
12900;171100;34.04;996;03.51.09.230
12904;171111;34.04;997;03.51.09.230
12904;171115;34.04;998;03.51.09.230
12904;171101;34.04;999;03.51.09.230
12896;171108;34.04;000;03.51.09.351
12896;171110;34.04;001;03.51.09.351
12896;171114;34.04;002;03.51.09.351
12900;171115;34.04;003;03.51.09.351
12904;171122;34.04;004;03.51.09.351
12896;171121;34.04;005;03.51.09.351
12876;171129;34.04;006;03.51.09.351
12916;171136;34.04;007;03.51.09.351
12892;171136;34.04;008;03.51.09.351
12888;171144;34.04;009;03.51.09.351
12912;171151;34.04;010;03.51.09.351
12896;171160;34.04;011;03.51.09.362
12900;171160;34.04;012;03.51.09.362
12880;171162;34.04;013;03.51.09.362
12928;171168;34.04;014;03.51.09.362
12884;171163;34.04;015;03.51.09.362
12888;171159;34.04;016;03.51.09.362
12876;171160;34.04;017;03.51.09.362
12884;171162;34.04;018;03.51.09.362
12888;171149;34.04;019;03.51.09.362
12932;171146;34.04;020;03.51.09.362
12888;171140;34.04;021;03.51.09.362
12896;171139;34.04;022;03.51.09.362
12912;171125;34.04;023;03.51.09.362
12908;171130;34.04;024;03.51.09.362
12920;171129;34.04;025;03.51.09.483
12888;171124;34.04;026;03.51.09.483
12916;171121;34.04;027;03.51.09.483
12900;171120;34.04;028;03.51.09.483
12892;171118;34.04;029;03.51.09.483
12928;171120;34.04;030;03.51.09.483
12884;171115;34.04;031;03.51.09.483
12880;171112;34.04;032;03.51.09.483
12928;171110;34.04;033;03.51.09.494
12924;171119;34.04;034;03.51.09.494
12928;171104;34.04;035;03.51.09.494
12884;171108;34.04;036;03.51.09.494
12868;171108;34.04;037;03.51.09.494
12928;171102;34.04;038;03.51.09.494
12904;171104;34.04;039;03.51.09.494
12872;171104;34.04;040;03.51.09.494
12864;171100;34.04;041;03.51.09.494
12908;171095;34.04;042;03.51.09.494
12928;171101;34.04;043;03.51.09.494
12900;171088;34.04;044;03.51.09.494
12896;171081;34.04;045;03.51.09.494
12896;171078;34.04;046;03.51.09.505
12904;171072;34.04;047;03.51.09.505
12904;171060;34.04;048;03.51.09.505
12892;171055;34.04;049;03.51.09.505
12896;171050;34.04;050;03.51.09.592
12892;171045;34.04;051;03.51.09.592
12884;171040;34.04;052;03.51.09.592
12900;171028;34.04;053;03.51.09.592
12872;171029;34.04;054;03.51.09.592
12896;171022;34.04;055;03.51.09.603
12912;171026;34.04;056;03.51.09.603
