gsr; bvp; skt; skt2; Cont; time
12908;171141;34.80;125;03.38.31.551
12900;171134;34.80;126;03.38.31.551
12920;171147;34.80;127;03.38.31.551
12928;171141;34.80;128;03.38.31.551
12916;171143;34.80;129;03.38.31.551
12928;171148;34.80;130;03.38.31.551
12904;171136;34.80;131;03.38.31.551
12928;171138;34.80;132;03.38.31.551
12900;171136;34.80;133;03.38.31.551
12924;171139;34.80;134;03.38.31.551
12900;171144;34.80;135;03.38.31.551
12928;171142;34.80;136;03.38.31.551
12916;171133;34.80;137;03.38.31.551
12900;171139;34.80;138;03.38.31.551
12932;171136;34.80;139;03.38.31.551
12936;171147;34.80;140;03.38.31.551
12928;171139;34.80;141;03.38.31.551
12888;171146;34.80;142;03.38.31.551
12892;171141;34.80;143;03.38.31.551
12904;171138;34.80;144;03.38.31.551
12928;171137;34.80;145;03.38.31.551
12904;171136;34.80;146;03.38.31.551
12892;171138;34.80;147;03.38.31.552
12908;171136;34.80;148;03.38.31.552
12896;171139;34.80;149;03.38.31.552
12916;171138;34.80;150;03.38.31.667
12912;171144;34.80;151;03.38.31.667
12920;171137;34.80;152;03.38.31.667
12892;171139;34.80;153;03.38.31.667
12908;171141;34.80;154;03.38.31.678
12892;171140;34.80;155;03.38.31.678
12892;171141;34.80;156;03.38.31.678
12900;171133;34.80;157;03.38.31.678
12896;171140;34.80;158;03.38.31.678
12928;171135;34.80;159;03.38.31.678
12900;171138;34.80;160;03.38.31.678
12892;171147;34.80;161;03.38.31.689
12884;171145;34.80;162;03.38.31.689
12916;171153;34.80;163;03.38.31.689
12920;171149;34.80;164;03.38.31.689
12900;171152;34.80;165;03.38.31.689
12936;171145;34.80;166;03.38.31.689
12936;171151;34.80;167;03.38.31.689
12916;171143;34.80;168;03.38.31.689
12920;171137;34.80;169;03.38.31.689
12900;171142;34.80;170;03.38.31.689
12912;171144;34.80;171;03.38.31.700
12912;171148;34.80;172;03.38.31.700
12892;171156;34.80;173;03.38.31.700
12936;171150;34.80;174;03.38.31.700
12912;171165;34.84;175;03.38.31.809
12928;171148;34.84;176;03.38.31.809
12912;171156;34.84;177;03.38.31.809
12904;171158;34.84;178;03.38.31.809
12912;171165;34.84;179;03.38.31.809
12912;171162;34.84;180;03.38.31.809
12892;171166;34.84;181;03.38.31.809
12904;171157;34.84;182;03.38.31.809
12932;171169;34.84;183;03.38.31.809
12912;171176;34.84;184;03.38.31.809
12860;171168;34.84;185;03.38.31.809
12920;171173;34.84;186;03.38.31.809
12928;171173;34.84;187;03.38.31.809
12904;171172;34.84;188;03.38.31.821
12892;171168;34.84;189;03.38.31.821
12900;171178;34.84;190;03.38.31.821
12920;171182;34.84;191;03.38.31.821
12924;171181;34.84;192;03.38.31.821
12892;171177;34.84;193;03.38.31.821
12928;171174;34.84;194;03.38.31.821
12904;171178;34.84;195;03.38.31.821
12928;171175;34.84;196;03.38.31.821
12932;171176;34.84;197;03.38.31.821
12904;171179;34.84;198;03.38.31.821
12900;171179;34.84;199;03.38.31.821
12900;171187;34.84;200;03.38.31.909
12904;171193;34.84;201;03.38.31.909
12920;171185;34.84;202;03.38.31.909
12936;171193;34.84;203;03.38.31.909
12928;171197;34.84;204;03.38.31.909
12908;171191;34.84;205;03.38.31.909
12928;171188;34.84;206;03.38.31.909
12892;171189;34.84;207;03.38.31.909
12932;171193;34.84;208;03.38.31.920
12908;171197;34.84;209;03.38.31.920
12928;171201;34.84;210;03.38.31.920
12912;171200;34.84;211;03.38.31.920
12912;171198;34.84;212;03.38.31.920
12904;171196;34.84;213;03.38.31.920
12908;171192;34.84;214;03.38.31.920
12960;171204;34.84;215;03.38.31.920
12928;171203;34.84;216;03.38.31.920
12892;171201;34.84;217;03.38.31.953
12884;171186;34.84;218;03.38.31.953
12916;171193;34.84;219;03.38.31.953
12928;171187;34.84;220;03.38.31.953
12924;171182;34.84;221;03.38.31.953
12908;171173;34.84;222;03.38.31.953
12952;171173;34.84;223;03.38.31.953
12928;171164;34.84;224;03.38.31.953
12912;171163;34.84;225;03.38.32.029
12924;171162;34.84;226;03.38.32.029
12944;171160;34.84;227;03.38.32.029
12892;171156;34.84;228;03.38.32.029
12900;171147;34.84;229;03.38.32.029
12916;171145;34.84;230;03.38.32.029
12884;171148;34.84;231;03.38.32.040
12900;171139;34.84;232;03.38.32.040
12892;171131;34.84;233;03.38.32.040
12884;171124;34.84;234;03.38.32.040
12916;171123;34.84;235;03.38.32.040
12920;171117;34.84;236;03.38.32.040
12892;171116;34.84;237;03.38.32.040
12896;171114;34.84;238;03.38.32.040
12912;171108;34.84;239;03.38.32.040
12896;171101;34.84;240;03.38.32.040
12912;171102;34.84;241;03.38.32.040
12908;171099;34.84;242;03.38.32.051
12920;171110;34.84;243;03.38.32.051
12908;171101;34.84;244;03.38.32.051
12904;171090;34.84;245;03.38.32.051
12880;171100;34.84;246;03.38.32.051
12908;171082;34.84;247;03.38.32.051
12908;171094;34.84;248;03.38.32.051
12936;171085;34.84;249;03.38.32.062
12928;171084;34.84;250;03.38.32.161
12916;171087;34.84;251;03.38.32.161
12876;171084;34.84;252;03.38.32.161
12928;171090;34.84;253;03.38.32.172
12908;171082;34.84;254;03.38.32.172
12888;171091;34.84;255;03.38.32.172
12904;171094;34.84;256;03.38.32.172
12884;171093;34.84;257;03.38.32.172
12892;171087;34.84;258;03.38.32.172
12908;171096;34.84;259;03.38.32.172
12916;171091;34.84;260;03.38.32.172
12960;171082;34.84;261;03.38.32.172
12900;171084;34.84;262;03.38.32.172
12924;171083;34.84;263;03.38.32.172
12904;171089;34.84;264;03.38.32.172
12908;171085;34.84;265;03.38.32.172
12892;171088;34.84;266;03.38.32.173
12900;171090;34.84;267;03.38.32.184
12896;171090;34.84;268;03.38.32.184
12932;171097;34.84;269;03.38.32.184
12892;171096;34.84;270;03.38.32.184
12912;171092;34.84;271;03.38.32.184
12920;171094;34.84;272;03.38.32.184
12900;171085;34.84;273;03.38.32.184
12884;171096;34.84;274;03.38.32.184
12884;171092;34.84;275;03.38.32.271
12916;171100;34.84;276;03.38.32.282
12912;171091;34.84;277;03.38.32.282
12900;171095;34.84;278;03.38.32.282
12904;171100;34.84;279;03.38.32.282
12884;171110;34.84;280;03.38.32.282
12892;171097;34.84;281;03.38.32.282
12908;171092;34.84;282;03.38.32.282
12908;171098;34.84;283;03.38.32.293
12896;171096;34.84;284;03.38.32.304
12920;171087;34.84;285;03.38.32.304
12892;171092;34.84;286;03.38.32.304
12900;171091;34.84;287;03.38.32.304
12920;171096;34.84;288;03.38.32.304
12892;171086;34.84;289;03.38.32.304
12860;171091;34.84;290;03.38.32.304
12904;171090;34.84;291;03.38.32.304
12900;171086;34.84;292;03.38.32.304
12892;171090;34.84;293;03.38.32.304
12892;171087;34.84;294;03.38.32.304
12908;171091;34.84;295;03.38.32.304
12884;171089;34.84;296;03.38.32.304
12892;171097;34.84;297;03.38.32.304
12908;171094;34.84;298;03.38.32.315
12924;171093;34.84;299;03.38.32.315
12908;171096;34.84;300;03.38.32.413
12892;171097;34.84;301;03.38.32.413
12904;171098;34.84;302;03.38.32.413
12908;171092;34.84;303;03.38.32.413
12904;171097;34.84;304;03.38.32.413
12892;171097;34.84;305;03.38.32.413
12884;171107;34.84;306;03.38.32.413
12920;171101;34.84;307;03.38.32.413
12884;171099;34.84;308;03.38.32.424
12904;171102;34.84;309;03.38.32.424
12888;171101;34.84;310;03.38.32.424
12884;171099;34.84;311;03.38.32.424
12916;171100;34.84;312;03.38.32.424
12932;171109;34.84;313;03.38.32.424
12904;171104;34.84;314;03.38.32.424
12912;171109;34.84;315;03.38.32.424
12904;171106;34.84;316;03.38.32.424
12896;171106;34.84;317;03.38.32.435
12912;171104;34.84;318;03.38.32.435
12900;171114;34.84;319;03.38.32.435
12928;171108;34.84;320;03.38.32.435
12904;171107;34.84;321;03.38.32.435
12928;171119;34.84;322;03.38.32.435
12908;171121;34.84;323;03.38.32.435
12916;171120;34.84;324;03.38.32.435
12920;171119;34.80;325;03.38.32.523
12920;171121;34.80;326;03.38.32.523
12916;171123;34.80;327;03.38.32.523
12916;171127;34.80;328;03.38.32.523
12912;171125;34.80;329;03.38.32.523
12884;171128;34.80;330;03.38.32.534
12936;171132;34.80;331;03.38.32.534
12928;171135;34.80;332;03.38.32.534
12900;171140;34.80;333;03.38.32.534
12932;171136;34.80;334;03.38.32.534
12900;171138;34.80;335;03.38.32.534
12912;171138;34.80;336;03.38.32.534
12912;171144;34.80;337;03.38.32.534
12904;171143;34.80;338;03.38.32.534
12920;171146;34.80;339;03.38.32.534
12920;171148;34.80;340;03.38.32.534
12932;171146;34.80;341;03.38.32.534
12912;171149;34.80;342;03.38.32.534
12908;171149;34.80;343;03.38.32.545
12908;171141;34.80;344;03.38.32.545
12904;171151;34.80;345;03.38.32.545
12896;171150;34.80;346;03.38.32.545
12920;171164;34.80;347;03.38.32.545
12928;171161;34.80;348;03.38.32.545
12904;171162;34.80;349;03.38.32.545
12904;171161;34.80;350;03.38.32.654
12908;171165;34.80;351;03.38.32.665
12912;171168;34.80;352;03.38.32.665
12888;171168;34.80;353;03.38.32.665
12896;171162;34.80;354;03.38.32.665
12920;171158;34.80;355;03.38.32.665
12932;171179;34.80;356;03.38.32.665
12928;171177;34.80;357;03.38.32.665
12900;171169;34.80;358;03.38.32.665
12920;171164;34.80;359;03.38.32.665
12860;171178;34.80;360;03.38.32.665
12908;171168;34.80;361;03.38.32.665
12888;171171;34.80;362;03.38.32.665
12904;171177;34.80;363;03.38.32.665
12936;171170;34.80;364;03.38.32.676
12912;171175;34.80;365;03.38.32.676
12900;171171;34.80;366;03.38.32.676
12928;171173;34.80;367;03.38.32.676
12920;171171;34.80;368;03.38.32.676
12896;171165;34.80;369;03.38.32.676
12892;171162;34.80;370;03.38.32.676
12896;171159;34.80;371;03.38.32.676
12912;171150;34.80;372;03.38.32.676
12908;171139;34.80;373;03.38.32.676
12936;171136;34.80;374;03.38.32.676
12928;171135;34.84;375;03.38.32.807
12888;171127;34.84;376;03.38.32.807
12896;171125;34.84;377;03.38.32.807
12912;171107;34.84;378;03.38.32.807
12916;171116;34.84;379;03.38.32.807
12920;171113;34.84;380;03.38.32.807
12920;171101;34.84;381;03.38.32.807
12912;171106;34.84;382;03.38.32.807
12896;171105;34.84;383;03.38.32.807
12888;171099;34.84;384;03.38.32.819
12892;171091;34.84;385;03.38.32.819
12932;171088;34.84;386;03.38.32.819
12916;171085;34.84;387;03.38.32.819
12912;171087;34.84;388;03.38.32.819
12928;171086;34.84;389;03.38.32.819
12912;171088;34.84;390;03.38.32.819
12904;171087;34.84;391;03.38.32.819
12908;171083;34.84;392;03.38.32.819
12904;171089;34.84;393;03.38.32.819
12884;171084;34.84;394;03.38.32.819
12884;171093;34.84;395;03.38.32.819
12908;171089;34.84;396;03.38.32.819
12900;171095;34.84;397;03.38.32.830
12908;171090;34.84;398;03.38.32.830
12928;171090;34.84;399;03.38.32.830
12888;171088;34.84;400;03.38.32.907
12912;171092;34.84;401;03.38.32.907
12908;171084;34.84;402;03.38.32.907
12900;171088;34.84;403;03.38.32.907
12944;171082;34.84;404;03.38.32.907
12928;171092;34.84;405;03.38.32.907
12908;171086;34.84;406;03.38.32.907
12876;171087;34.84;407;03.38.32.918
12892;171083;34.84;408;03.38.32.929
12892;171091;34.84;409;03.38.32.929
12936;171082;34.84;410;03.38.32.929
12928;171090;34.84;411;03.38.32.929
12916;171086;34.84;412;03.38.32.929
12896;171098;34.84;413;03.38.32.929
12904;171095;34.84;414;03.38.32.929
12900;171091;34.84;415;03.38.32.940
12928;171079;34.84;416;03.38.32.940
12900;171095;34.84;417;03.38.32.940
12892;171093;34.84;418;03.38.32.940
12900;171092;34.84;419;03.38.32.940
12916;171089;34.84;420;03.38.32.940
12932;171094;34.84;421;03.38.32.940
12920;171100;34.84;422;03.38.32.940
12904;171084;34.84;423;03.38.32.940
12920;171083;34.84;424;03.38.32.940
12924;171090;34.84;425;03.38.33.027
12876;171089;34.84;426;03.38.33.027
12900;171093;34.84;427;03.38.33.027
12888;171090;34.84;428;03.38.33.038
12916;171092;34.84;429;03.38.33.038
12932;171096;34.84;430;03.38.33.038
12904;171094;34.84;431;03.38.33.038
12900;171090;34.84;432;03.38.33.038
12908;171095;34.84;433;03.38.33.038
12904;171090;34.84;434;03.38.33.038
12896;171091;34.84;435;03.38.33.038
12888;171089;34.84;436;03.38.33.038
12900;171088;34.84;437;03.38.33.038
12896;171089;34.84;438;03.38.33.038
12916;171089;34.84;439;03.38.33.049
12936;171086;34.84;440;03.38.33.049
12928;171094;34.84;441;03.38.33.049
12916;171084;34.84;442;03.38.33.049
12912;171088;34.84;443;03.38.33.049
12928;171089;34.84;444;03.38.33.049
12944;171097;34.84;445;03.38.33.049
12908;171096;34.84;446;03.38.33.049
12896;171096;34.84;447;03.38.33.049
12908;171099;34.84;448;03.38.33.049
12904;171093;34.84;449;03.38.33.049
12908;171096;34.84;450;03.38.33.159
12944;171104;34.84;451;03.38.33.159
12908;171104;34.84;452;03.38.33.159
12892;171107;34.84;453;03.38.33.159
12900;171108;34.84;454;03.38.33.159
12904;171111;34.84;455;03.38.33.159
12920;171111;34.84;456;03.38.33.159
12928;171106;34.84;457;03.38.33.159
12936;171108;34.84;458;03.38.33.159
12928;171103;34.84;459;03.38.33.159
12904;171113;34.84;460;03.38.33.159
12908;171115;34.84;461;03.38.33.159
12916;171110;34.84;462;03.38.33.159
12888;171123;34.84;463;03.38.33.170
12884;171115;34.84;464;03.38.33.170
12900;171121;34.84;465;03.38.33.170
12916;171125;34.84;466;03.38.33.170
12944;171122;34.84;467;03.38.33.170
12928;171126;34.84;468;03.38.33.170
12912;171127;34.84;469;03.38.33.170
12892;171126;34.84;470;03.38.33.170
12904;171124;34.84;471;03.38.33.170
12916;171138;34.84;472;03.38.33.170
12904;171138;34.84;473;03.38.33.170
12912;171137;34.84;474;03.38.33.170
12892;171136;34.80;475;03.38.33.291
12908;171147;34.80;476;03.38.33.291
12904;171143;34.80;477;03.38.33.291
12912;171148;34.80;478;03.38.33.291
12904;171145;34.80;479;03.38.33.291
12900;171146;34.80;480;03.38.33.291
12928;171155;34.80;481;03.38.33.291
12904;171156;34.80;482;03.38.33.291
12912;171152;34.80;483;03.38.33.302
12916;171158;34.80;484;03.38.33.302
12908;171155;34.80;485;03.38.33.302
12928;171158;34.80;486;03.38.33.302
12908;171157;34.80;487;03.38.33.302
12928;171160;34.80;488;03.38.33.302
12916;171165;34.80;489;03.38.33.302
12892;171165;34.80;490;03.38.33.302
12900;171174;34.80;491;03.38.33.302
12908;171164;34.80;492;03.38.33.302
12904;171174;34.80;493;03.38.33.313
12904;171179;34.80;494;03.38.33.313
12908;171171;34.80;495;03.38.33.313
12896;171173;34.80;496;03.38.33.313
12916;171180;34.80;497;03.38.33.313
12928;171178;34.80;498;03.38.33.313
12916;171171;34.80;499;03.38.33.313
12916;171178;34.80;500;03.38.33.423
12892;171179;34.80;501;03.38.33.423
12892;171179;34.80;502;03.38.33.423
12920;171186;34.80;503;03.38.33.423
12912;171190;34.80;504;03.38.33.423
12900;171194;34.80;505;03.38.33.423
12892;171193;34.80;506;03.38.33.434
12932;171198;34.80;507;03.38.33.434
12912;171195;34.80;508;03.38.33.434
12912;171198;34.80;509;03.38.33.434
12912;171193;34.80;510;03.38.33.434
12888;171193;34.80;511;03.38.33.434
12920;171197;34.80;512;03.38.33.434
12928;171203;34.80;513;03.38.33.434
12912;171203;34.80;514;03.38.33.434
12896;171206;34.80;515;03.38.33.434
12916;171204;34.80;516;03.38.33.434
12876;171209;34.80;517;03.38.33.434
12920;171200;34.80;518;03.38.33.445
12928;171206;34.80;519;03.38.33.445
12908;171203;34.80;520;03.38.33.445
12920;171202;34.80;521;03.38.33.445
12928;171207;34.80;522;03.38.33.445
12916;171203;34.80;523;03.38.33.445
12892;171203;34.80;524;03.38.33.445
12892;171199;34.84;525;03.38.33.522
12908;171194;34.84;526;03.38.33.522
12928;171195;34.84;527;03.38.33.533
12928;171183;34.84;528;03.38.33.533
12888;171181;34.84;529;03.38.33.533
12912;171171;34.84;530;03.38.33.533
12928;171168;34.84;531;03.38.33.533
12892;171160;34.84;532;03.38.33.533
12884;171161;34.84;533;03.38.33.533
12916;171156;34.84;534;03.38.33.533
12896;171151;34.84;535;03.38.33.533
12916;171163;34.84;536;03.38.33.533
12904;171154;34.84;537;03.38.33.533
12900;171148;34.84;538;03.38.33.533
12872;171149;34.84;539;03.38.33.533
12912;171135;34.84;540;03.38.33.544
12928;171142;34.84;541;03.38.33.544
12928;171138;34.84;542;03.38.33.555
12936;171133;34.84;543;03.38.33.555
12900;171128;34.84;544;03.38.33.566
12912;171139;34.84;545;03.38.33.566
12928;171125;34.84;546;03.38.33.566
12860;171121;34.84;547;03.38.33.566
12916;171131;34.84;548;03.38.33.566
12928;171132;34.84;549;03.38.33.566
12928;171125;34.84;550;03.38.33.653
12920;171122;34.84;551;03.38.33.653
12896;171114;34.84;552;03.38.33.653
12928;171111;34.84;553;03.38.33.653
12892;171113;34.84;554;03.38.33.653
12912;171115;34.84;555;03.38.33.653
12920;171120;34.84;556;03.38.33.653
12904;171120;34.84;557;03.38.33.653
12904;171122;34.84;558;03.38.33.653
12928;171120;34.84;559;03.38.33.653
12900;171122;34.84;560;03.38.33.653
12892;171128;34.84;561;03.38.33.653
12928;171122;34.84;562;03.38.33.664
12900;171127;34.84;563;03.38.33.664
12928;171125;34.84;564;03.38.33.664
12928;171122;34.84;565;03.38.33.664
12932;171125;34.84;566;03.38.33.664
12928;171128;34.84;567;03.38.33.664
12928;171127;34.84;568;03.38.33.664
12900;171121;34.84;569;03.38.33.664
12928;171131;34.84;570;03.38.33.664
12896;171125;34.84;571;03.38.33.664
12908;171127;34.84;572;03.38.33.664
12912;171127;34.84;573;03.38.33.664
12908;171135;34.84;574;03.38.33.675
12900;171138;34.80;575;03.38.33.785
12908;171132;34.80;576;03.38.33.785
12896;171131;34.80;577;03.38.33.785
12892;171131;34.80;578;03.38.33.785
12916;171135;34.80;579;03.38.33.785
12896;171138;34.80;580;03.38.33.785
12900;171133;34.80;581;03.38.33.785
12912;171129;34.80;582;03.38.33.796
12912;171128;34.80;583;03.38.33.796
12928;171132;34.80;584;03.38.33.796
12920;171139;34.80;585;03.38.33.796
12900;171129;34.80;586;03.38.33.796
12896;171138;34.80;587;03.38.33.796
12892;171132;34.80;588;03.38.33.796
12932;171135;34.80;589;03.38.33.796
12908;171136;34.80;590;03.38.33.796
12916;171138;34.80;591;03.38.33.796
12900;171127;34.80;592;03.38.33.796
12928;171132;34.80;593;03.38.33.796
12904;171134;34.80;594;03.38.33.796
12912;171127;34.80;595;03.38.33.796
12888;171127;34.80;596;03.38.33.807
12924;171135;34.80;597;03.38.33.807
12908;171128;34.80;598;03.38.33.807
12944;171131;34.80;599;03.38.33.807
12928;171134;34.80;600;03.38.33.916
12888;171138;34.80;601;03.38.33.916
12888;171126;34.80;602;03.38.33.916
12860;171135;34.80;603;03.38.33.927
12892;171133;34.80;604;03.38.33.927
12912;171131;34.80;605;03.38.33.927
12892;171132;34.80;606;03.38.33.927
12912;171132;34.80;607;03.38.33.927
12920;171141;34.80;608;03.38.33.927
12900;171140;34.80;609;03.38.33.927
12920;171139;34.80;610;03.38.33.927
12952;171136;34.80;611;03.38.33.927
12932;171141;34.80;612;03.38.33.927
12920;171149;34.80;613;03.38.33.927
12940;171151;34.80;614;03.38.33.927
12892;171148;34.80;615;03.38.33.927
12932;171157;34.80;616;03.38.33.928
12896;171156;34.80;617;03.38.33.939
12916;171161;34.80;618;03.38.33.939
12916;171150;34.80;619;03.38.33.939
12928;171166;34.80;620;03.38.33.939
12888;171165;34.80;621;03.38.33.939
12916;171172;34.80;622;03.38.33.939
12912;171165;34.80;623;03.38.33.939
12928;171175;34.80;624;03.38.33.939
12900;171171;34.84;625;03.38.34.027
12908;171174;34.84;626;03.38.34.027
12912;171173;34.84;627;03.38.34.038
12908;171177;34.84;628;03.38.34.038
12928;171172;34.84;629;03.38.34.038
12916;171173;34.84;630;03.38.34.038
12904;171178;34.84;631;03.38.34.038
12912;171173;34.84;632;03.38.34.038
12924;171177;34.84;633;03.38.34.038
12924;171179;34.84;634;03.38.34.039
12892;171181;34.84;635;03.38.34.050
12892;171184;34.84;636;03.38.34.050
12928;171188;34.84;637;03.38.34.050
12912;171187;34.84;638;03.38.34.050
12888;171179;34.84;639;03.38.34.050
12908;171186;34.84;640;03.38.34.050
12896;171191;34.84;641;03.38.34.050
12888;171188;34.84;642;03.38.34.050
12916;171180;34.84;643;03.38.34.050
12916;171190;34.84;644;03.38.34.050
12912;171192;34.84;645;03.38.34.050
12928;171196;34.84;646;03.38.34.061
12928;171194;34.84;647;03.38.34.061
12920;171198;34.84;648;03.38.34.061
12928;171198;34.84;649;03.38.34.061
12904;171196;34.84;650;03.38.34.160
12928;171197;34.84;651;03.38.34.160
12912;171202;34.84;652;03.38.34.160
12928;171203;34.84;653;03.38.34.160
12884;171205;34.84;654;03.38.34.160
12892;171199;34.84;655;03.38.34.160
12932;171204;34.84;656;03.38.34.160
12884;171211;34.84;657;03.38.34.160
12916;171203;34.84;658;03.38.34.160
12912;171210;34.84;659;03.38.34.160
12900;171208;34.84;660;03.38.34.160
12904;171206;34.84;661;03.38.34.160
12892;171210;34.84;662;03.38.34.171
12912;171211;34.84;663;03.38.34.171
12912;171208;34.84;664;03.38.34.171
12916;171222;34.84;665;03.38.34.171
12912;171220;34.84;666;03.38.34.171
12892;171210;34.84;667;03.38.34.171
12904;171224;34.84;668;03.38.34.171
12892;171219;34.84;669;03.38.34.171
12920;171217;34.84;670;03.38.34.171
12912;171225;34.84;671;03.38.34.171
12904;171219;34.84;672;03.38.34.171
12908;171224;34.84;673;03.38.34.171
12912;171218;34.84;674;03.38.34.171
12876;171212;34.84;675;03.38.34.281
12928;171211;34.84;676;03.38.34.281
12900;171212;34.84;677;03.38.34.281
12892;171209;34.84;678;03.38.34.281
12920;171205;34.84;679;03.38.34.281
12904;171198;34.84;680;03.38.34.281
12884;171195;34.84;681;03.38.34.281
12928;171197;34.84;682;03.38.34.281
12928;171186;34.84;683;03.38.34.281
12916;171188;34.84;684;03.38.34.292
12908;171177;34.84;685;03.38.34.292
12928;171179;34.84;686;03.38.34.292
12916;171173;34.84;687;03.38.34.292
12924;171174;34.84;688;03.38.34.292
12912;171165;34.84;689;03.38.34.292
12900;171170;34.84;690;03.38.34.292
12916;171159;34.84;691;03.38.34.292
12960;171159;34.84;692;03.38.34.292
12900;171162;34.84;693;03.38.34.292
12876;171157;34.84;694;03.38.34.292
12892;171158;34.84;695;03.38.34.292
12904;171168;34.84;696;03.38.34.303
12892;171155;34.84;697;03.38.34.303
12904;171148;34.84;698;03.38.34.303
12904;171154;34.84;699;03.38.34.303
12924;171160;34.84;700;03.38.34.422
12916;171146;34.84;701;03.38.34.422
12900;171152;34.84;702;03.38.34.422
12924;171145;34.84;703;03.38.34.433
12888;171150;34.84;704;03.38.34.433
12876;171147;34.84;705;03.38.34.433
12912;171153;34.84;706;03.38.34.433
12936;171143;34.84;707;03.38.34.433
12920;171144;34.84;708;03.38.34.433
12904;171140;34.84;709;03.38.34.433
12892;171147;34.84;710;03.38.34.433
12916;171149;34.84;711;03.38.34.433
12916;171145;34.84;712;03.38.34.433
12916;171148;34.84;713;03.38.34.433
12904;171148;34.84;714;03.38.34.433
12916;171147;34.84;715;03.38.34.433
12896;171142;34.84;716;03.38.34.444
12888;171151;34.84;717;03.38.34.455
12896;171146;34.84;718;03.38.34.455
12908;171148;34.84;719;03.38.34.455
12936;171153;34.84;720;03.38.34.455
12892;171151;34.84;721;03.38.34.467
12908;171145;34.84;722;03.38.34.467
12900;171152;34.84;723;03.38.34.467
12940;171149;34.84;724;03.38.34.467
12904;171151;34.84;725;03.38.34.522
12900;171150;34.84;726;03.38.34.533
12900;171147;34.84;727;03.38.34.533
12900;171150;34.84;728;03.38.34.533
12884;171154;34.84;729;03.38.34.533
12908;171146;34.84;730;03.38.34.533
12932;171160;34.84;731;03.38.34.533
12936;171157;34.84;732;03.38.34.533
12896;171150;34.84;733;03.38.34.533
12924;171156;34.84;734;03.38.34.533
12932;171153;34.84;735;03.38.34.533
12884;171156;34.84;736;03.38.34.533
12892;171156;34.84;737;03.38.34.533
12924;171162;34.84;738;03.38.34.533
12928;171162;34.84;739;03.38.34.544
12928;171163;34.84;740;03.38.34.544
12892;171162;34.84;741;03.38.34.544
12888;171150;34.84;742;03.38.34.544
12936;171160;34.84;743;03.38.34.555
12904;171158;34.84;744;03.38.34.555
12912;171160;34.84;745;03.38.34.555
12908;171156;34.84;746;03.38.34.555
12884;171163;34.84;747;03.38.34.555
12900;171157;34.84;748;03.38.34.555
12908;171162;34.84;749;03.38.34.555
12896;171157;34.84;750;03.38.34.665
12904;171152;34.84;751;03.38.34.665
12892;171158;34.84;752;03.38.34.665
12900;171163;34.84;753;03.38.34.665
12928;171161;34.84;754;03.38.34.665
12928;171158;34.84;755;03.38.34.665
12912;171162;34.84;756;03.38.34.665
12924;171160;34.84;757;03.38.34.665
12928;171153;34.84;758;03.38.34.687
12912;171162;34.84;759;03.38.34.687
12904;171178;34.84;760;03.38.34.687
12896;171172;34.84;761;03.38.34.687
12928;171175;34.84;762;03.38.34.687
12908;171176;34.84;763;03.38.34.687
12892;171173;34.84;764;03.38.34.687
12924;171170;34.84;765;03.38.34.687
12900;171167;34.84;766;03.38.34.687
12916;171165;34.84;767;03.38.34.698
12892;171172;34.84;768;03.38.34.698
12880;171162;34.84;769;03.38.34.698
12896;171172;34.84;770;03.38.34.698
12912;171175;34.84;771;03.38.34.698
12920;171173;34.84;772;03.38.34.698
12884;171173;34.84;773;03.38.34.698
12920;171176;34.84;774;03.38.34.698
12900;171179;34.84;775;03.38.34.784
12940;171178;34.84;776;03.38.34.784
12912;171179;34.84;777;03.38.34.784
12944;171177;34.84;778;03.38.34.784
12892;171186;34.84;779;03.38.34.784
12912;171184;34.84;780;03.38.34.795
12892;171185;34.84;781;03.38.34.795
12896;171183;34.84;782;03.38.34.795
12900;171191;34.84;783;03.38.34.795
12928;171189;34.84;784;03.38.34.795
12912;171194;34.84;785;03.38.34.795
12928;171189;34.84;786;03.38.34.795
12900;171187;34.84;787;03.38.34.795
12892;171196;34.84;788;03.38.34.795
12924;171204;34.84;789;03.38.34.795
12892;171201;34.84;790;03.38.34.795
12928;171208;34.84;791;03.38.34.795
12904;171203;34.84;792;03.38.34.795
12916;171198;34.84;793;03.38.34.795
12928;171200;34.84;794;03.38.34.807
12928;171203;34.84;795;03.38.34.807
12892;171206;34.84;796;03.38.34.807
12912;171205;34.84;797;03.38.34.807
12912;171207;34.84;798;03.38.34.807
12944;171207;34.84;799;03.38.34.807
12944;171213;34.84;800;03.38.34.916
12892;171210;34.84;801;03.38.34.927
12904;171216;34.84;802;03.38.34.927
12904;171217;34.84;803;03.38.34.927
12920;171217;34.84;804;03.38.34.927
12928;171225;34.84;805;03.38.34.927
12908;171222;34.84;806;03.38.34.927
12908;171223;34.84;807;03.38.34.927
12912;171222;34.84;808;03.38.34.927
12936;171219;34.84;809;03.38.34.927
12888;171229;34.84;810;03.38.34.927
12944;171234;34.84;811;03.38.34.927
12888;171230;34.84;812;03.38.34.938
12892;171236;34.84;813;03.38.34.938
12872;171236;34.84;814;03.38.34.938
12900;171242;34.84;815;03.38.34.938
12908;171233;34.84;816;03.38.34.938
12896;171244;34.84;817;03.38.34.938
12908;171240;34.84;818;03.38.34.938
12908;171241;34.84;819;03.38.34.938
12928;171245;34.84;820;03.38.34.938
12916;171239;34.84;821;03.38.34.938
12904;171233;34.84;822;03.38.34.938
12928;171248;34.84;823;03.38.34.938
12932;171255;34.84;824;03.38.34.938
12896;171247;34.84;825;03.38.35.059
12936;171254;34.84;826;03.38.35.059
12916;171252;34.84;827;03.38.35.059
12884;171255;34.84;828;03.38.35.059
12928;171261;34.84;829;03.38.35.059
12896;171248;34.84;830;03.38.35.059
12904;171255;34.84;831;03.38.35.059
12904;171260;34.84;832;03.38.35.059
12912;171262;34.84;833;03.38.35.059
12912;171269;34.84;834;03.38.35.059
12896;171263;34.84;835;03.38.35.059
12916;171261;34.84;836;03.38.35.070
12912;171260;34.84;837;03.38.35.070
12936;171250;34.84;838;03.38.35.070
12904;171247;34.84;839;03.38.35.070
12920;171243;34.84;840;03.38.35.070
12892;171233;34.84;841;03.38.35.070
12908;171228;34.84;842;03.38.35.081
12908;171225;34.84;843;03.38.35.081
12928;171225;34.84;844;03.38.35.081
12928;171219;34.84;845;03.38.35.081
12908;171216;34.84;846;03.38.35.081
12904;171213;34.84;847;03.38.35.081
12892;171208;34.84;848;03.38.35.081
12920;171201;34.84;849;03.38.35.081
12892;171197;34.84;850;03.38.35.158
12916;171192;34.84;851;03.38.35.158
12892;171190;34.84;852;03.38.35.158
12900;171180;34.84;853;03.38.35.158
12896;171180;34.84;854;03.38.35.158
12908;171177;34.84;855;03.38.35.158
12928;171170;34.84;856;03.38.35.158
12900;171173;34.84;857;03.38.35.158
12928;171177;34.84;858;03.38.35.169
12892;171178;34.84;859;03.38.35.169
12900;171171;34.84;860;03.38.35.169
12904;171164;34.84;861;03.38.35.169
12904;171170;34.84;862;03.38.35.169
12904;171166;34.84;863;03.38.35.169
12908;171159;34.84;864;03.38.35.169
12908;171168;34.84;865;03.38.35.169
12884;171165;34.84;866;03.38.35.169
12904;171161;34.84;867;03.38.35.191
12920;171159;34.84;868;03.38.35.191
12932;171158;34.84;869;03.38.35.191
12908;171154;34.84;870;03.38.35.191
12908;171156;34.84;871;03.38.35.191
12908;171163;34.84;872;03.38.35.191
12888;171153;34.84;873;03.38.35.191
12912;171161;34.84;874;03.38.35.191
12912;171159;34.80;875;03.38.35.279
12904;171152;34.80;876;03.38.35.279
12916;171147;34.80;877;03.38.35.279
12908;171156;34.80;878;03.38.35.279
12924;171148;34.80;879;03.38.35.279
12896;171155;34.80;880;03.38.35.280
12920;171158;34.80;881;03.38.35.291
12928;171154;34.80;882;03.38.35.291
12900;171153;34.80;883;03.38.35.323
12900;171153;34.80;884;03.38.35.323
12880;171150;34.80;885;03.38.35.323
12892;171153;34.80;886;03.38.35.323
12932;171162;34.80;887;03.38.35.323
12928;171157;34.80;888;03.38.35.323
12908;171153;34.80;889;03.38.35.334
12928;171158;34.80;890;03.38.35.334
12908;171162;34.80;891;03.38.35.334
12912;171161;34.80;892;03.38.35.334
12892;171159;34.80;893;03.38.35.334
12932;171167;34.80;894;03.38.35.334
12904;171159;34.80;895;03.38.35.334
12892;171158;34.80;896;03.38.35.334
12928;171160;34.80;897;03.38.35.334
12892;171159;34.80;898;03.38.35.334
12928;171158;34.80;899;03.38.35.334
12920;171162;34.80;900;03.38.35.401
12892;171153;34.80;901;03.38.35.401
12908;171161;34.80;902;03.38.35.401
12884;171157;34.80;903;03.38.35.402
12928;171159;34.80;904;03.38.35.413
12912;171156;34.80;905;03.38.35.413
12912;171162;34.80;906;03.38.35.413
12948;171158;34.80;907;03.38.35.413
12884;171154;34.80;908;03.38.35.413
12908;171159;34.80;909;03.38.35.413
12932;171160;34.80;910;03.38.35.413
12904;171159;34.80;911;03.38.35.413
12916;171159;34.80;912;03.38.35.413
12908;171159;34.80;913;03.38.35.413
12904;171154;34.80;914;03.38.35.413
12888;171159;34.80;915;03.38.35.413
12908;171161;34.80;916;03.38.35.413
12896;171162;34.80;917;03.38.35.414
12892;171163;34.80;918;03.38.35.425
12904;171163;34.80;919;03.38.35.425
12892;171161;34.80;920;03.38.35.425
12892;171166;34.80;921;03.38.35.425
12912;171168;34.80;922;03.38.35.425
12900;171159;34.80;923;03.38.35.425
12928;171171;34.80;924;03.38.35.425
12928;171176;34.80;925;03.38.35.525
12916;171171;34.80;926;03.38.35.525
12916;171171;34.80;927;03.38.35.525
12916;171182;34.80;928;03.38.35.525
12904;171171;34.80;929;03.38.35.536
12892;171182;34.80;930;03.38.35.536
12904;171177;34.80;931;03.38.35.536
12932;171179;34.80;932;03.38.35.536
12904;171182;34.80;933;03.38.35.548
12928;171176;34.80;934;03.38.35.548
12916;171175;34.80;935;03.38.35.548
12916;171174;34.80;936;03.38.35.548
12916;171173;34.80;937;03.38.35.559
12892;171178;34.80;938;03.38.35.559
12916;171175;34.80;939;03.38.35.559
12920;171177;34.80;940;03.38.35.559
12892;171181;34.80;941;03.38.35.559
12916;171181;34.80;942;03.38.35.559
12908;171180;34.80;943;03.38.35.559
12916;171187;34.80;944;03.38.35.559
12908;171177;34.80;945;03.38.35.559
12928;171188;34.80;946;03.38.35.559
12920;171189;34.80;947;03.38.35.559
12892;171191;34.80;948;03.38.35.559
12944;171192;34.80;949;03.38.35.559
12884;171206;34.80;950;03.38.35.658
12884;171203;34.80;951;03.38.35.658
12900;171198;34.80;952;03.38.35.658
12928;171209;34.80;953;03.38.35.658
12908;171194;34.80;954;03.38.35.658
12908;171203;34.80;955;03.38.35.658
12920;171201;34.80;956;03.38.35.658
12932;171214;34.80;957;03.38.35.658
12876;171205;34.80;958;03.38.35.658
12896;171213;34.80;959;03.38.35.668
12892;171208;34.80;960;03.38.35.668
12900;171211;34.80;961;03.38.35.668
12932;171210;34.80;962;03.38.35.668
12908;171216;34.80;963;03.38.35.668
12928;171225;34.80;964;03.38.35.668
12928;171220;34.80;965;03.38.35.668
12892;171215;34.80;966;03.38.35.668
12920;171217;34.80;967;03.38.35.701
12912;171213;34.80;968;03.38.35.701
12920;171218;34.80;969;03.38.35.701
12892;171229;34.80;970;03.38.35.701
12892;171229;34.80;971;03.38.35.701
12916;171224;34.80;972;03.38.35.701
12904;171232;34.80;973;03.38.35.701
12924;171225;34.80;974;03.38.35.701
12920;171227;34.80;975;03.38.35.778
12912;171235;34.80;976;03.38.35.778
12888;171237;34.80;977;03.38.35.778
12912;171237;34.80;978;03.38.35.778
12936;171240;34.80;979;03.38.35.778
12904;171242;34.80;980;03.38.35.778
12908;171239;34.80;981;03.38.35.778
12900;171243;34.80;982;03.38.35.778
12904;171242;34.80;983;03.38.35.778
12936;171254;34.80;984;03.38.35.778
12892;171245;34.80;985;03.38.35.789
12920;171252;34.80;986;03.38.35.789
12928;171256;34.80;987;03.38.35.789
12912;171252;34.80;988;03.38.35.789
12900;171255;34.80;989;03.38.35.789
12912;171262;34.80;990;03.38.35.789
12920;171255;34.80;991;03.38.35.789
12888;171258;34.80;992;03.38.35.789
12928;171265;34.80;993;03.38.35.789
12900;171269;34.80;994;03.38.35.789
12888;171266;34.80;995;03.38.35.789
12896;171270;34.80;996;03.38.35.789
12928;171274;34.80;997;03.38.35.800
12928;171273;34.80;998;03.38.35.800
12960;171290;34.80;999;03.38.35.800
12888;171278;34.80;000;03.38.35.910
12900;171278;34.80;001;03.38.35.910
12936;171275;34.80;002;03.38.35.910
12904;171279;34.80;003;03.38.35.910
12892;171278;34.80;004;03.38.35.910
12920;171267;34.80;005;03.38.35.910
12896;171266;34.80;006;03.38.35.921
12928;171259;34.80;007;03.38.35.921
12904;171258;34.80;008;03.38.35.921
12904;171261;34.80;009;03.38.35.921
12912;171256;34.80;010;03.38.35.921
12908;171241;34.80;011;03.38.35.921
12916;171247;34.80;012;03.38.35.921
12920;171233;34.80;013;03.38.35.921
12892;171240;34.80;014;03.38.35.921
12928;171223;34.80;015;03.38.35.921
12908;171223;34.80;016;03.38.35.921
12896;171219;34.80;017;03.38.35.921
12908;171217;34.80;018;03.38.35.921
12904;171209;34.80;019;03.38.35.932
12904;171205;34.80;020;03.38.35.932
12912;171199;34.80;021;03.38.35.932
12932;171201;34.80;022;03.38.35.932
12904;171202;34.80;023;03.38.35.932
12928;171198;34.80;024;03.38.35.932
12904;171191;34.80;025;03.38.36.042
12888;171181;34.80;026;03.38.36.042
12940;171186;34.80;027;03.38.36.052
12936;171188;34.80;028;03.38.36.052
12928;171184;34.80;029;03.38.36.052
12896;171173;34.80;030;03.38.36.052
12908;171182;34.80;031;03.38.36.052
12904;171181;34.80;032;03.38.36.052
12920;171181;34.80;033;03.38.36.052
12908;171191;34.80;034;03.38.36.052
12936;171189;34.80;035;03.38.36.052
12904;171184;34.80;036;03.38.36.052
12912;171187;34.80;037;03.38.36.052
12920;171189;34.80;038;03.38.36.052
12900;171190;34.80;039;03.38.36.052
12932;171180;34.80;040;03.38.36.063
12892;171176;34.80;041;03.38.36.063
12928;171175;34.80;042;03.38.36.063
12896;171177;34.80;043;03.38.36.063
12928;171174;34.80;044;03.38.36.063
12928;171175;34.80;045;03.38.36.063
12928;171178;34.80;046;03.38.36.063
12900;171175;34.80;047;03.38.36.063
12912;171182;34.80;048;03.38.36.063
12904;171191;34.80;049;03.38.36.063
12896;171185;34.80;050;03.38.36.162
12904;171184;34.80;051;03.38.36.162
12892;171179;34.80;052;03.38.36.162
12904;171188;34.80;053;03.38.36.162
12916;171190;34.80;054;03.38.36.162
12904;171190;34.80;055;03.38.36.162
12908;171194;34.80;056;03.38.36.162
12932;171204;34.80;057;03.38.36.162
12920;171196;34.80;058;03.38.36.173
12904;171196;34.80;059;03.38.36.173
12904;171203;34.80;060;03.38.36.173
12904;171200;34.80;061;03.38.36.173
12892;171206;34.80;062;03.38.36.173
12904;171203;34.80;063;03.38.36.173
12888;171208;34.80;064;03.38.36.173
12920;171209;34.80;065;03.38.36.173
12892;171206;34.80;066;03.38.36.173
12896;171209;34.80;067;03.38.36.184
12908;171215;34.80;068;03.38.36.184
12884;171210;34.80;069;03.38.36.184
12896;171213;34.80;070;03.38.36.184
12920;171212;34.80;071;03.38.36.184
12892;171217;34.80;072;03.38.36.184
12884;171206;34.80;073;03.38.36.184
12936;171207;34.80;074;03.38.36.184
12900;171218;34.80;075;03.38.36.282
12900;171210;34.80;076;03.38.36.282
12900;171212;34.80;077;03.38.36.282
12916;171207;34.80;078;03.38.36.282
12888;171203;34.80;079;03.38.36.282
12900;171210;34.80;080;03.38.36.282
12892;171205;34.80;081;03.38.36.282
12892;171210;34.80;082;03.38.36.293
12936;171205;34.80;083;03.38.36.315
12928;171207;34.80;084;03.38.36.315
12896;171208;34.80;085;03.38.36.315
12908;171209;34.80;086;03.38.36.315
12908;171195;34.80;087;03.38.36.315
12884;171204;34.80;088;03.38.36.315
12928;171208;34.80;089;03.38.36.315
12928;171210;34.80;090;03.38.36.315
12920;171221;34.80;091;03.38.36.326
12908;171210;34.80;092;03.38.36.326
12920;171219;34.80;093;03.38.36.326
12924;171219;34.80;094;03.38.36.326
12892;171212;34.80;095;03.38.36.326
12900;171216;34.80;096;03.38.36.326
12928;171212;34.80;097;03.38.36.326
12924;171219;34.80;098;03.38.36.326
12912;171218;34.80;099;03.38.36.337
12904;171213;34.80;100;03.38.36.403
12892;171217;34.80;101;03.38.36.403
12892;171223;34.80;102;03.38.36.403
12896;171222;34.80;103;03.38.36.403
12904;171214;34.80;104;03.38.36.414
12912;171219;34.80;105;03.38.36.414
12936;171217;34.80;106;03.38.36.414
12892;171216;34.80;107;03.38.36.414
12932;171219;34.80;108;03.38.36.414
12888;171221;34.80;109;03.38.36.414
12904;171220;34.80;110;03.38.36.414
12900;171216;34.80;111;03.38.36.414
12916;171226;34.80;112;03.38.36.414
12888;171229;34.80;113;03.38.36.414
12920;171231;34.80;114;03.38.36.414
12908;171228;34.80;115;03.38.36.425
12904;171241;34.80;116;03.38.36.425
12928;171241;34.80;117;03.38.36.425
12928;171240;34.80;118;03.38.36.425
12944;171241;34.80;119;03.38.36.425
12936;171245;34.80;120;03.38.36.436
12912;171251;34.80;121;03.38.36.436
12904;171256;34.80;122;03.38.36.436
12892;171256;34.80;123;03.38.36.436
12892;171254;34.80;124;03.38.36.436
12888;171257;34.84;125;03.38.36.545
12916;171256;34.84;126;03.38.36.545
12908;171258;34.84;127;03.38.36.545
12900;171269;34.84;128;03.38.36.545
12912;171258;34.84;129;03.38.36.545
12904;171258;34.84;130;03.38.36.545
12884;171276;34.84;131;03.38.36.545
12892;171268;34.84;132;03.38.36.545
12916;171269;34.84;133;03.38.36.545
12908;171266;34.84;134;03.38.36.545
12896;171265;34.84;135;03.38.36.545
12888;171261;34.84;136;03.38.36.545
12900;171271;34.84;137;03.38.36.556
12896;171267;34.84;138;03.38.36.556
12908;171274;34.84;139;03.38.36.556
12916;171274;34.84;140;03.38.36.556
12880;171272;34.84;141;03.38.36.556
12892;171280;34.84;142;03.38.36.556
12892;171281;34.84;143;03.38.36.556
12900;171273;34.84;144;03.38.36.556
12928;171274;34.84;145;03.38.36.556
12920;171284;34.84;146;03.38.36.556
12908;171289;34.84;147;03.38.36.556
12932;171291;34.84;148;03.38.36.556
12920;171285;34.84;149;03.38.36.556
12904;171280;34.84;150;03.38.36.677
12916;171295;34.84;151;03.38.36.677
12904;171292;34.84;152;03.38.36.677
12900;171292;34.84;153;03.38.36.677
12912;171291;34.84;154;03.38.36.677
12928;171298;34.84;155;03.38.36.677
12880;171298;34.84;156;03.38.36.677
12928;171298;34.84;157;03.38.36.677
12908;171303;34.84;158;03.38.36.677
12924;171301;34.84;159;03.38.36.687
12892;171312;34.84;160;03.38.36.687
12900;171302;34.84;161;03.38.36.687
12888;171304;34.84;162;03.38.36.687
12920;171309;34.84;163;03.38.36.687
12916;171306;34.84;164;03.38.36.687
12908;171309;34.84;165;03.38.36.687
12928;171307;34.84;166;03.38.36.687
12920;171320;34.84;167;03.38.36.687
12912;171321;34.84;168;03.38.36.687
12896;171320;34.84;169;03.38.36.687
12916;171318;34.84;170;03.38.36.687
12936;171315;34.84;171;03.38.36.687
12896;171314;34.84;172;03.38.36.698
12944;171317;34.84;173;03.38.36.698
12948;171306;34.84;174;03.38.36.698
12916;171300;34.80;175;03.38.36.775
12900;171296;34.80;176;03.38.36.775
12892;171299;34.80;177;03.38.36.775
12928;171289;34.80;178;03.38.36.775
12928;171286;34.80;179;03.38.36.775
12900;171282;34.80;180;03.38.36.786
12900;171279;34.80;181;03.38.36.786
12928;171279;34.80;182;03.38.36.786
12944;171272;34.80;183;03.38.36.786
12900;171275;34.80;184;03.38.36.786
12912;171263;34.80;185;03.38.36.786
12944;171264;34.80;186;03.38.36.786
12928;171255;34.80;187;03.38.36.786
12928;171262;34.80;188;03.38.36.786
12928;171250;34.80;189;03.38.36.786
12892;171250;34.80;190;03.38.36.786
12916;171246;34.80;191;03.38.36.786
12896;171234;34.80;192;03.38.36.797
12904;171243;34.80;193;03.38.36.797
12908;171238;34.80;194;03.38.36.797
12892;171229;34.80;195;03.38.36.797
12884;171235;34.80;196;03.38.36.797
12908;171231;34.80;197;03.38.36.797
12908;171220;34.80;198;03.38.36.797
12928;171230;34.80;199;03.38.36.797
12892;171234;34.80;200;03.38.36.896
12932;171233;34.80;201;03.38.36.907
12908;171229;34.80;202;03.38.36.907
12892;171233;34.80;203;03.38.36.907
12928;171228;34.80;204;03.38.36.907
12872;171233;34.80;205;03.38.36.907
12916;171227;34.80;206;03.38.36.907
12904;171225;34.80;207;03.38.36.907
12896;171221;34.80;208;03.38.36.907
12860;171226;34.80;209;03.38.36.907
12908;171225;34.80;210;03.38.36.907
12908;171223;34.80;211;03.38.36.907
12928;171225;34.80;212;03.38.36.907
12928;171228;34.80;213;03.38.36.907
12908;171238;34.80;214;03.38.36.918
12928;171224;34.80;215;03.38.36.918
12912;171234;34.80;216;03.38.36.918
12936;171227;34.80;217;03.38.36.918
12936;171234;34.80;218;03.38.36.918
12892;171228;34.80;219;03.38.36.929
12892;171233;34.80;220;03.38.36.929
12892;171235;34.80;221;03.38.36.929
12900;171236;34.80;222;03.38.36.929
12908;171233;34.80;223;03.38.36.929
12904;171240;34.80;224;03.38.36.929
12928;171239;34.84;225;03.38.37.039
12908;171239;34.84;226;03.38.37.039
12908;171246;34.84;227;03.38.37.039
12892;171236;34.84;228;03.38.37.039
12880;171240;34.84;229;03.38.37.039
12896;171245;34.84;230;03.38.37.039
12936;171249;34.84;231;03.38.37.039
12928;171242;34.84;232;03.38.37.039
12892;171240;34.84;233;03.38.37.039
12896;171235;34.84;234;03.38.37.039
12928;171233;34.84;235;03.38.37.039
12880;171234;34.84;236;03.38.37.050
12916;171248;34.84;237;03.38.37.050
12904;171242;34.84;238;03.38.37.050
12932;171237;34.84;239;03.38.37.050
12896;171243;34.84;240;03.38.37.050
12920;171232;34.84;241;03.38.37.050
12932;171239;34.84;242;03.38.37.060
12900;171236;34.84;243;03.38.37.060
12920;171235;34.84;244;03.38.37.060
12920;171240;34.84;245;03.38.37.060
12892;171237;34.84;246;03.38.37.060
12892;171238;34.84;247;03.38.37.060
12904;171230;34.84;248;03.38.37.060
12916;171234;34.84;249;03.38.37.060
12892;171234;34.84;250;03.38.37.192
12896;171244;34.84;251;03.38.37.192
12920;171239;34.84;252;03.38.37.192
12928;171249;34.84;253;03.38.37.192
12908;171240;34.84;254;03.38.37.192
12900;171247;34.84;255;03.38.37.192
12916;171248;34.84;256;03.38.37.203
12912;171241;34.84;257;03.38.37.203
12892;171249;34.84;258;03.38.37.203
12904;171252;34.84;259;03.38.37.203
12900;171252;34.84;260;03.38.37.203
12916;171249;34.84;261;03.38.37.203
12892;171256;34.84;262;03.38.37.203
12928;171255;34.84;263;03.38.37.214
12928;171256;34.84;264;03.38.37.214
12888;171253;34.84;265;03.38.37.214
12912;171258;34.84;266;03.38.37.214
12912;171257;34.84;267;03.38.37.214
12920;171260;34.84;268;03.38.37.214
12888;171261;34.84;269;03.38.37.214
12936;171270;34.84;270;03.38.37.214
12916;171258;34.84;271;03.38.37.214
12888;171266;34.84;272;03.38.37.214
12900;171272;34.84;273;03.38.37.225
12912;171271;34.84;274;03.38.37.225
12916;171269;34.84;275;03.38.37.280
12928;171277;34.84;276;03.38.37.280
12904;171273;34.84;277;03.38.37.280
12900;171278;34.84;278;03.38.37.280
12928;171276;34.84;279;03.38.37.291
12916;171288;34.84;280;03.38.37.291
12884;171289;34.84;281;03.38.37.291
12920;171288;34.84;282;03.38.37.291
12908;171294;34.84;283;03.38.37.291
12888;171287;34.84;284;03.38.37.291
12900;171286;34.84;285;03.38.37.291
12892;171287;34.84;286;03.38.37.291
12912;171290;34.84;287;03.38.37.291
12912;171292;34.84;288;03.38.37.302
12904;171293;34.84;289;03.38.37.302
12904;171284;34.84;290;03.38.37.302
12916;171297;34.84;291;03.38.37.302
12896;171291;34.84;292;03.38.37.302
12872;171293;34.84;293;03.38.37.302
12892;171295;34.84;294;03.38.37.302
12912;171302;34.84;295;03.38.37.313
12916;171290;34.84;296;03.38.37.313
12904;171307;34.84;297;03.38.37.313
12900;171301;34.84;298;03.38.37.313
12940;171303;34.84;299;03.38.37.313
12880;171310;34.84;300;03.38.37.412
12900;171308;34.84;301;03.38.37.412
12904;171312;34.84;302;03.38.37.412
12900;171309;34.84;303;03.38.37.412
12924;171310;34.84;304;03.38.37.412
12920;171308;34.84;305;03.38.37.412
12916;171313;34.84;306;03.38.37.412
12904;171317;34.84;307;03.38.37.412
12884;171317;34.84;308;03.38.37.412
12892;171312;34.84;309;03.38.37.412
12920;171318;34.84;310;03.38.37.412
12932;171309;34.84;311;03.38.37.412
12872;171316;34.84;312;03.38.37.423
12904;171319;34.84;313;03.38.37.423
12888;171322;34.84;314;03.38.37.423
12928;171323;34.84;315;03.38.37.423
12892;171317;34.84;316;03.38.37.423
12876;171330;34.84;317;03.38.37.423
12896;171327;34.84;318;03.38.37.423
12928;171330;34.84;319;03.38.37.423
12924;171334;34.84;320;03.38.37.423
12888;171342;34.84;321;03.38.37.423
12908;171336;34.84;322;03.38.37.423
12892;171332;34.84;323;03.38.37.423
12944;171337;34.84;324;03.38.37.423
12916;171334;34.80;325;03.38.37.532
12908;171336;34.80;326;03.38.37.532
12892;171332;34.80;327;03.38.37.532
12892;171343;34.80;328;03.38.37.532
12892;171333;34.80;329;03.38.37.532
12936;171348;34.80;330;03.38.37.532
12912;171345;34.80;331;03.38.37.532
12944;171348;34.80;332;03.38.37.532
12904;171345;34.80;333;03.38.37.532
12912;171354;34.80;334;03.38.37.543
12904;171354;34.80;335;03.38.37.543
12912;171354;34.80;336;03.38.37.543
12912;171352;34.80;337;03.38.37.543
12896;171340;34.80;338;03.38.37.543
12892;171345;34.80;339;03.38.37.543
12888;171345;34.80;340;03.38.37.543
12892;171341;34.80;341;03.38.37.543
12912;171339;34.80;342;03.38.37.543
12904;171323;34.80;343;03.38.37.543
12916;171321;34.80;344;03.38.37.543
12908;171328;34.80;345;03.38.37.543
12892;171315;34.80;346;03.38.37.543
12940;171310;34.80;347;03.38.37.554
12892;171317;34.80;348;03.38.37.554
12932;171317;34.80;349;03.38.37.554
12896;171297;34.80;350;03.38.37.664
12896;171297;34.80;351;03.38.37.664
12936;171297;34.80;352;03.38.37.664
12876;171300;34.80;353;03.38.37.664
12920;171286;34.80;354;03.38.37.675
12928;171293;34.80;355;03.38.37.675
12900;171282;34.80;356;03.38.37.675
12916;171272;34.80;357;03.38.37.675
12884;171279;34.80;358;03.38.37.675
12928;171278;34.80;359;03.38.37.675
12900;171273;34.80;360;03.38.37.675
12920;171276;34.80;361;03.38.37.675
12900;171266;34.80;362;03.38.37.675
12916;171266;34.80;363;03.38.37.675
12896;171268;34.80;364;03.38.37.675
12908;171267;34.80;365;03.38.37.675
12888;171263;34.80;366;03.38.37.675
12928;171268;34.80;367;03.38.37.686
12900;171259;34.80;368;03.38.37.686
12912;171261;34.80;369;03.38.37.686
12916;171267;34.80;370;03.38.37.686
12896;171254;34.80;371;03.38.37.686
12920;171261;34.80;372;03.38.37.686
12892;171263;34.80;373;03.38.37.686
12912;171254;34.80;374;03.38.37.686
12888;171247;34.84;375;03.38.37.785
12920;171253;34.84;376;03.38.37.785
12892;171260;34.84;377;03.38.37.785
12912;171260;34.84;378;03.38.37.785
12916;171256;34.84;379;03.38.37.785
12892;171257;34.84;380;03.38.37.785
12932;171259;34.84;381;03.38.37.785
12904;171266;34.84;382;03.38.37.785
12928;171256;34.84;383;03.38.37.796
12880;171259;34.84;384;03.38.37.796
12876;171265;34.84;385;03.38.37.796
12944;171262;34.84;386;03.38.37.796
12912;171260;34.84;387;03.38.37.796
12916;171264;34.84;388;03.38.37.796
12892;171258;34.84;389;03.38.37.796
12908;171265;34.84;390;03.38.37.796
12916;171257;34.84;391;03.38.37.796
12908;171258;34.84;392;03.38.37.796
12896;171258;34.84;393;03.38.37.796
12928;171266;34.84;394;03.38.37.807
12916;171276;34.84;395;03.38.37.807
12912;171268;34.84;396;03.38.37.807
12904;171271;34.84;397;03.38.37.807
12908;171263;34.84;398;03.38.37.807
12908;171267;34.84;399;03.38.37.807
12888;171265;34.84;400;03.38.37.916
12904;171266;34.84;401;03.38.37.916
12896;171268;34.84;402;03.38.37.916
12900;171268;34.84;403;03.38.37.916
12928;171264;34.84;404;03.38.37.916
12928;171263;34.84;405;03.38.37.916
12888;171262;34.84;406;03.38.37.916
12912;171266;34.84;407;03.38.37.916
12892;171250;34.84;408;03.38.37.927
12896;171255;34.84;409;03.38.37.927
12916;171267;34.84;410;03.38.37.927
12904;171262;34.84;411;03.38.37.927
12860;171257;34.84;412;03.38.37.927
12908;171257;34.84;413;03.38.37.927
12872;171258;34.84;414;03.38.37.927
12908;171263;34.84;415;03.38.37.927
12900;171258;34.84;416;03.38.37.927
12888;171258;34.84;417;03.38.37.938
12888;171260;34.84;418;03.38.37.938
12912;171267;34.84;419;03.38.37.938
12884;171267;34.84;420;03.38.37.938
12928;171257;34.84;421;03.38.37.938
12900;171262;34.84;422;03.38.37.938
12892;171265;34.84;423;03.38.37.938
12916;171256;34.84;424;03.38.37.938
12912;171264;34.84;425;03.38.38.025
12892;171268;34.84;426;03.38.38.025
12900;171259;34.84;427;03.38.38.025
12912;171258;34.84;428;03.38.38.025
12908;171260;34.84;429;03.38.38.025
12928;171261;34.84;430;03.38.38.025
12908;171266;34.84;431;03.38.38.025
12908;171262;34.84;432;03.38.38.036
12932;171277;34.84;433;03.38.38.036
12884;171267;34.84;434;03.38.38.036
12908;171278;34.84;435;03.38.38.036
12936;171270;34.84;436;03.38.38.036
12908;171273;34.84;437;03.38.38.036
12912;171269;34.84;438;03.38.38.036
12928;171267;34.84;439;03.38.38.036
12920;171276;34.84;440;03.38.38.036
12904;171272;34.84;441;03.38.38.036
12916;171278;34.84;442;03.38.38.036
12900;171277;34.84;443;03.38.38.036
12876;171275;34.84;444;03.38.38.047
12916;171278;34.84;445;03.38.38.047
12904;171279;34.84;446;03.38.38.047
12908;171277;34.84;447;03.38.38.047
12892;171287;34.84;448;03.38.38.047
12904;171287;34.84;449;03.38.38.047
12904;171278;34.84;450;03.38.38.157
12908;171296;34.84;451;03.38.38.157
12920;171282;34.84;452;03.38.38.168
12928;171290;34.84;453;03.38.38.168
12904;171288;34.84;454;03.38.38.168
12912;171294;34.84;455;03.38.38.168
12892;171288;34.84;456;03.38.38.168
12900;171293;34.84;457;03.38.38.168
12884;171293;34.84;458;03.38.38.168
12928;171296;34.84;459;03.38.38.168
12904;171299;34.84;460;03.38.38.168
12892;171297;34.84;461;03.38.38.168
12924;171296;34.84;462;03.38.38.168
12896;171305;34.84;463;03.38.38.168
12912;171314;34.84;464;03.38.38.168
12916;171314;34.84;465;03.38.38.179
12932;171307;34.84;466;03.38.38.179
12908;171311;34.84;467;03.38.38.179
12872;171318;34.84;468;03.38.38.179
12908;171311;34.84;469;03.38.38.179
12904;171317;34.84;470;03.38.38.179
12920;171314;34.84;471;03.38.38.179
12912;171315;34.84;472;03.38.38.179
12904;171320;34.84;473;03.38.38.179
12916;171323;34.84;474;03.38.38.179
12928;171326;34.80;475;03.38.38.299
12888;171320;34.80;476;03.38.38.299
12908;171323;34.80;477;03.38.38.299
12916;171334;34.80;478;03.38.38.299
12948;171328;34.80;479;03.38.38.299
12924;171324;34.80;480;03.38.38.299
12900;171331;34.80;481;03.38.38.299
12912;171333;34.80;482;03.38.38.299
12892;171331;34.80;483;03.38.38.299
12904;171328;34.80;484;03.38.38.299
12920;171333;34.80;485;03.38.38.299
12908;171331;34.80;486;03.38.38.310
12928;171335;34.80;487;03.38.38.310
12892;171337;34.80;488;03.38.38.310
12904;171335;34.80;489;03.38.38.310
12892;171340;34.80;490;03.38.38.310
12916;171347;34.80;491;03.38.38.310
12892;171340;34.80;492;03.38.38.310
12892;171338;34.80;493;03.38.38.310
12944;171341;34.80;494;03.38.38.310
12912;171347;34.80;495;03.38.38.310
12928;171351;34.80;496;03.38.38.310
12932;171350;34.80;497;03.38.38.310
12916;171349;34.80;498;03.38.38.310
12928;171347;34.80;499;03.38.38.321
12916;171341;34.80;500;03.38.38.409
12900;171355;34.80;501;03.38.38.409
12912;171350;34.80;502;03.38.38.409
12892;171357;34.80;503;03.38.38.409
12920;171360;34.80;504;03.38.38.409
12916;171361;34.80;505;03.38.38.409
12928;171361;34.80;506;03.38.38.409
12904;171365;34.80;507;03.38.38.409
12908;171357;34.80;508;03.38.38.431
12904;171368;34.80;509;03.38.38.431
12908;171373;34.80;510;03.38.38.431
12924;171362;34.80;511;03.38.38.431
12944;171364;34.80;512;03.38.38.431
12908;171372;34.80;513;03.38.38.431
12908;171362;34.80;514;03.38.38.431
12904;171367;34.80;515;03.38.38.431
12936;171363;34.80;516;03.38.38.442
12896;171355;34.80;517;03.38.38.442
12888;171352;34.80;518;03.38.38.442
12936;171341;34.80;519;03.38.38.442
12908;171348;34.80;520;03.38.38.442
12912;171340;34.80;521;03.38.38.442
12896;171332;34.80;522;03.38.38.442
12896;171332;34.80;523;03.38.38.442
12944;171335;34.80;524;03.38.38.442
12892;171320;34.80;525;03.38.38.530
12916;171316;34.80;526;03.38.38.530
12908;171316;34.80;527;03.38.38.530
12908;171310;34.80;528;03.38.38.530
12924;171305;34.80;529;03.38.38.541
12916;171314;34.80;530;03.38.38.541
12916;171301;34.80;531;03.38.38.541
12904;171297;34.80;532;03.38.38.541
12920;171287;34.80;533;03.38.38.541
12908;171293;34.80;534;03.38.38.541
12916;171289;34.80;535;03.38.38.541
12884;171295;34.80;536;03.38.38.541
12904;171298;34.80;537;03.38.38.541
12908;171291;34.80;538;03.38.38.552
12908;171288;34.80;539;03.38.38.552
12912;171284;34.80;540;03.38.38.552
12904;171282;34.80;541;03.38.38.552
12892;171289;34.80;542;03.38.38.563
12944;171290;34.80;543;03.38.38.563
12912;171286;34.80;544;03.38.38.563
12884;171283;34.80;545;03.38.38.563
12912;171282;34.80;546;03.38.38.574
12900;171285;34.80;547;03.38.38.574
12928;171286;34.80;548;03.38.38.574
12892;171284;34.80;549;03.38.38.574
12908;171288;34.80;550;03.38.38.672
12928;171282;34.80;551;03.38.38.672
12916;171295;34.80;552;03.38.38.672
12912;171286;34.80;553;03.38.38.672
12944;171289;34.80;554;03.38.38.672
12888;171291;34.80;555;03.38.38.672
12884;171293;34.80;556;03.38.38.672
12896;171288;34.80;557;03.38.38.672
12928;171285;34.80;558;03.38.38.672
12904;171282;34.80;559;03.38.38.672
12912;171294;34.80;560;03.38.38.672
12920;171287;34.80;561;03.38.38.672
12904;171288;34.80;562;03.38.38.672
12924;171288;34.80;563;03.38.38.683
12896;171294;34.80;564;03.38.38.683
12912;171297;34.80;565;03.38.38.683
12912;171300;34.80;566;03.38.38.683
12920;171285;34.80;567;03.38.38.683
12944;171293;34.80;568;03.38.38.683
12904;171286;34.80;569;03.38.38.683
12928;171291;34.80;570;03.38.38.683
12916;171288;34.80;571;03.38.38.683
12928;171288;34.80;572;03.38.38.683
12908;171289;34.80;573;03.38.38.683
12932;171292;34.80;574;03.38.38.683
12908;171287;34.84;575;03.38.38.793
12896;171284;34.84;576;03.38.38.793
12904;171287;34.84;577;03.38.38.793
12916;171287;34.84;578;03.38.38.793
12892;171280;34.84;579;03.38.38.793
12892;171289;34.84;580;03.38.38.793
12904;171284;34.84;581;03.38.38.793
12916;171283;34.84;582;03.38.38.793
12912;171284;34.84;583;03.38.38.793
12896;171284;34.84;584;03.38.38.804
12920;171281;34.84;585;03.38.38.804
12908;171277;34.84;586;03.38.38.804
12920;171276;34.84;587;03.38.38.804
12928;171282;34.84;588;03.38.38.804
12924;171288;34.84;589;03.38.38.804
12920;171282;34.84;590;03.38.38.804
12924;171286;34.84;591;03.38.38.804
12920;171289;34.84;592;03.38.38.848
12928;171288;34.84;593;03.38.38.848
12920;171286;34.84;594;03.38.38.848
12916;171283;34.84;595;03.38.38.848
12900;171287;34.84;596;03.38.38.848
12924;171287;34.84;597;03.38.38.848
12892;171276;34.84;598;03.38.38.848
12928;171294;34.84;599;03.38.38.848
12908;171281;34.84;600;03.38.38.903
12908;171287;34.84;601;03.38.38.903
12924;171291;34.84;602;03.38.38.903
12896;171282;34.84;603;03.38.38.903
12908;171294;34.84;604;03.38.38.903
12916;171293;34.84;605;03.38.38.903
12900;171281;34.84;606;03.38.38.914
12928;171294;34.84;607;03.38.38.914
12916;171300;34.84;608;03.38.38.925
12908;171293;34.84;609;03.38.38.925
12908;171298;34.84;610;03.38.38.925
12920;171299;34.84;611;03.38.38.925
12912;171306;34.84;612;03.38.38.925
12908;171306;34.84;613;03.38.38.925
12912;171303;34.84;614;03.38.38.936
12900;171299;34.84;615;03.38.38.936
12908;171299;34.84;616;03.38.38.936
12892;171302;34.84;617;03.38.38.936
12908;171302;34.84;618;03.38.38.936
12904;171310;34.84;619;03.38.38.936
12916;171314;34.84;620;03.38.38.936
12912;171313;34.84;621;03.38.38.936
12920;171311;34.84;622;03.38.38.936
12920;171315;34.84;623;03.38.38.936
12952;171324;34.84;624;03.38.38.936
12884;171319;34.84;625;03.38.39.023
12904;171327;34.84;626;03.38.39.023
12884;171319;34.84;627;03.38.39.023
12916;171318;34.84;628;03.38.39.034
12896;171324;34.84;629;03.38.39.034
12928;171324;34.84;630;03.38.39.034
12900;171324;34.84;631;03.38.39.034
12908;171330;34.84;632;03.38.39.034
12904;171324;34.84;633;03.38.39.034
12908;171322;34.84;634;03.38.39.034
12912;171334;34.84;635;03.38.39.034
12908;171326;34.84;636;03.38.39.034
12900;171334;34.84;637;03.38.39.034
12904;171335;34.84;638;03.38.39.034
12932;171343;34.84;639;03.38.39.034
12908;171344;34.84;640;03.38.39.034
12876;171341;34.84;641;03.38.39.045
12892;171344;34.84;642;03.38.39.045
12916;171341;34.84;643;03.38.39.045
12884;171354;34.84;644;03.38.39.045
12916;171347;34.84;645;03.38.39.045
12892;171349;34.84;646;03.38.39.045
12920;171349;34.84;647;03.38.39.045
12876;171350;34.84;648;03.38.39.045
12900;171342;34.84;649;03.38.39.045
12904;171353;34.84;650;03.38.39.155
12880;171348;34.84;651;03.38.39.155
12928;171349;34.84;652;03.38.39.155
12904;171353;34.84;653;03.38.39.155
12912;171357;34.84;654;03.38.39.155
12924;171360;34.84;655;03.38.39.155
12912;171358;34.84;656;03.38.39.155
12900;171350;34.84;657;03.38.39.155
12916;171357;34.84;658;03.38.39.155
12892;171360;34.84;659;03.38.39.155
12908;171352;34.84;660;03.38.39.155
12896;171360;34.84;661;03.38.39.155
12936;171354;34.84;662;03.38.39.166
12900;171360;34.84;663;03.38.39.166
12892;171365;34.84;664;03.38.39.166
12924;171360;34.84;665;03.38.39.166
12904;171359;34.84;666;03.38.39.166
12928;171371;34.84;667;03.38.39.166
12924;171376;34.84;668;03.38.39.166
12928;171377;34.84;669;03.38.39.166
12892;171382;34.84;670;03.38.39.166
12904;171372;34.84;671;03.38.39.166
12912;171367;34.84;672;03.38.39.166
12912;171375;34.84;673;03.38.39.166
12944;171367;34.84;674;03.38.39.166
12900;171379;34.84;675;03.38.39.286
12904;171377;34.84;676;03.38.39.286
12904;171373;34.84;677;03.38.39.286
12884;171387;34.84;678;03.38.39.286
12912;171385;34.84;679;03.38.39.286
12916;171392;34.84;680;03.38.39.286
12908;171383;34.84;681;03.38.39.286
12928;171382;34.84;682;03.38.39.286
12908;171379;34.84;683;03.38.39.297
12912;171376;34.84;684;03.38.39.297
12932;171376;34.84;685;03.38.39.297
12888;171372;34.84;686;03.38.39.297
12888;171375;34.84;687;03.38.39.297
12924;171367;34.84;688;03.38.39.297
12920;171358;34.84;689;03.38.39.297
12912;171358;34.84;690;03.38.39.297
12928;171350;34.84;691;03.38.39.297
12912;171356;34.84;692;03.38.39.297
12908;171348;34.84;693;03.38.39.297
12916;171344;34.84;694;03.38.39.297
12924;171332;34.84;695;03.38.39.297
12892;171337;34.84;696;03.38.39.308
12920;171329;34.84;697;03.38.39.308
12916;171327;34.84;698;03.38.39.308
12920;171320;34.84;699;03.38.39.308
12912;171317;34.84;700;03.38.39.418
12908;171313;34.84;701;03.38.39.418
12912;171312;34.84;702;03.38.39.418
12888;171317;34.84;703;03.38.39.418
12912;171317;34.84;704;03.38.39.429
12892;171311;34.84;705;03.38.39.429
12924;171312;34.84;706;03.38.39.429
12900;171305;34.84;707;03.38.39.429
12872;171306;34.84;708;03.38.39.429
12888;171307;34.84;709;03.38.39.429
12924;171304;34.84;710;03.38.39.429
12936;171309;34.84;711;03.38.39.429
12928;171303;34.84;712;03.38.39.429
12912;171300;34.84;713;03.38.39.429
12920;171305;34.84;714;03.38.39.429
12892;171301;34.84;715;03.38.39.429
12920;171302;34.84;716;03.38.39.429
12924;171301;34.84;717;03.38.39.439
12912;171310;34.84;718;03.38.39.439
12928;171309;34.84;719;03.38.39.439
12916;171312;34.84;720;03.38.39.439
12892;171303;34.84;721;03.38.39.439
12920;171306;34.84;722;03.38.39.439
12928;171305;34.84;723;03.38.39.439
12936;171301;34.84;724;03.38.39.439
12912;171308;34.80;725;03.38.39.537
12916;171304;34.80;726;03.38.39.537
12900;171314;34.80;727;03.38.39.537
12888;171306;34.80;728;03.38.39.537
12908;171310;34.80;729;03.38.39.537
12920;171309;34.80;730;03.38.39.537
12880;171307;34.80;731;03.38.39.537
12928;171312;34.80;732;03.38.39.547
12904;171302;34.80;733;03.38.39.547
12904;171297;34.80;734;03.38.39.547
12944;171300;34.80;735;03.38.39.547
12908;171303;34.80;736;03.38.39.547
12896;171313;34.80;737;03.38.39.547
12916;171316;34.80;738;03.38.39.547
12896;171317;34.80;739;03.38.39.547
12932;171315;34.80;740;03.38.39.547
12888;171310;34.80;741;03.38.39.547
12928;171309;34.80;742;03.38.39.547
12892;171304;34.80;743;03.38.39.547
12900;171313;34.80;744;03.38.39.547
12904;171313;34.80;745;03.38.39.547
12920;171312;34.80;746;03.38.39.547
12892;171307;34.80;747;03.38.39.547
12888;171300;34.80;748;03.38.39.547
12924;171306;34.80;749;03.38.39.549
12900;171304;34.80;750;03.38.39.654
12888;171317;34.80;751;03.38.39.654
12900;171307;34.80;752;03.38.39.654
12904;171310;34.80;753;03.38.39.668
12892;171318;34.80;754;03.38.39.668
12900;171314;34.80;755;03.38.39.668
12900;171311;34.80;756;03.38.39.668
12908;171304;34.80;757;03.38.39.668
12904;171306;34.80;758;03.38.39.668
12924;171301;34.80;759;03.38.39.668
12892;171302;34.80;760;03.38.39.668
12904;171313;34.80;761;03.38.39.668
12904;171312;34.80;762;03.38.39.668
12896;171309;34.80;763;03.38.39.668
12900;171309;34.80;764;03.38.39.668
12896;171310;34.80;765;03.38.39.668
12888;171309;34.80;766;03.38.39.668
12900;171316;34.80;767;03.38.39.668
12944;171311;34.80;768;03.38.39.668
12892;171309;34.80;769;03.38.39.668
12896;171311;34.80;770;03.38.39.669
12912;171306;34.80;771;03.38.39.683
12884;171321;34.80;772;03.38.39.683
12892;171313;34.80;773;03.38.39.683
12896;171313;34.80;774;03.38.39.683
12920;171315;34.80;775;03.38.39.795
12876;171312;34.80;776;03.38.39.795
12928;171316;34.80;777;03.38.39.795
12892;171314;34.80;778;03.38.39.795
12912;171325;34.80;779;03.38.39.795
12916;171323;34.80;780;03.38.39.795
12912;171323;34.80;781;03.38.39.795
12932;171320;34.80;782;03.38.39.795
12896;171325;34.80;783;03.38.39.795
12900;171319;34.80;784;03.38.39.795
12900;171326;34.80;785;03.38.39.806
12900;171322;34.80;786;03.38.39.806
12892;171318;34.80;787;03.38.39.806
12920;171320;34.80;788;03.38.39.806
12904;171327;34.80;789;03.38.39.806
12936;171325;34.80;790;03.38.39.806
12860;171318;34.80;791;03.38.39.806
12888;171321;34.80;792;03.38.39.806
12892;171325;34.80;793;03.38.39.806
12912;171321;34.80;794;03.38.39.806
12912;171324;34.80;795;03.38.39.806
12900;171325;34.80;796;03.38.39.806
12900;171320;34.80;797;03.38.39.806
12904;171325;34.80;798;03.38.39.817
12912;171320;34.80;799;03.38.39.817
12924;171328;34.80;800;03.38.39.904
12884;171332;34.80;801;03.38.39.904
12876;171343;34.80;802;03.38.39.904
12936;171340;34.80;803;03.38.39.904
12928;171345;34.80;804;03.38.39.904
12892;171340;34.80;805;03.38.39.904
12928;171348;34.80;806;03.38.39.915
12900;171333;34.80;807;03.38.39.915
12936;171346;34.80;808;03.38.39.915
12924;171347;34.80;809;03.38.39.915
12876;171338;34.80;810;03.38.39.915
12932;171338;34.80;811;03.38.39.915
12892;171347;34.80;812;03.38.39.915
12892;171353;34.80;813;03.38.39.915
12908;171351;34.80;814;03.38.39.915
12916;171351;34.80;815;03.38.39.915
12908;171359;34.80;816;03.38.39.915
12896;171352;34.80;817;03.38.39.915
12900;171349;34.80;818;03.38.39.926
12928;171359;34.80;819;03.38.39.926
12912;171355;34.80;820;03.38.39.926
12904;171361;34.80;821;03.38.39.926
12908;171368;34.80;822;03.38.39.926
12900;171357;34.80;823;03.38.39.926
12908;171366;34.80;824;03.38.39.926
12896;171365;34.84;825;03.38.40.025
12912;171365;34.84;826;03.38.40.025
12896;171370;34.84;827;03.38.40.025
12908;171366;34.84;828;03.38.40.025
12928;171375;34.84;829;03.38.40.036
12912;171376;34.84;830;03.38.40.036
12920;171376;34.84;831;03.38.40.036
12884;171378;34.84;832;03.38.40.036
12908;171372;34.84;833;03.38.40.036
12900;171374;34.84;834;03.38.40.036
12916;171373;34.84;835;03.38.40.036
12912;171371;34.84;836;03.38.40.036
12892;171381;34.84;837;03.38.40.036
12896;171384;34.84;838;03.38.40.036
12908;171380;34.84;839;03.38.40.036
12908;171382;34.84;840;03.38.40.036
12896;171385;34.84;841;03.38.40.047
12916;171383;34.84;842;03.38.40.058
12888;171378;34.84;843;03.38.40.058
12904;171382;34.84;844;03.38.40.058
12948;171379;34.84;845;03.38.40.058
12892;171375;34.84;846;03.38.40.069
12948;171371;34.84;847;03.38.40.069
12908;171368;34.84;848;03.38.40.069
12940;171361;34.84;849;03.38.40.069
12892;171362;34.84;850;03.38.40.157
12928;171365;34.84;851;03.38.40.157
12904;171355;34.84;852;03.38.40.157
12900;171345;34.84;853;03.38.40.157
12900;171343;34.84;854;03.38.40.157
12908;171339;34.84;855;03.38.40.157
12920;171332;34.84;856;03.38.40.157
12908;171324;34.84;857;03.38.40.157
12904;171328;34.84;858;03.38.40.157
12884;171327;34.84;859;03.38.40.157
12944;171325;34.84;860;03.38.40.157
12928;171316;34.84;861;03.38.40.157
12920;171312;34.84;862;03.38.40.157
12912;171308;34.84;863;03.38.40.168
12904;171300;34.84;864;03.38.40.168
12916;171305;34.84;865;03.38.40.168
12912;171303;34.84;866;03.38.40.168
12928;171305;34.84;867;03.38.40.168
12900;171296;34.84;868;03.38.40.168
12908;171298;34.84;869;03.38.40.168
12916;171296;34.84;870;03.38.40.168
12896;171287;34.84;871;03.38.40.168
12908;171297;34.84;872;03.38.40.168
12920;171289;34.84;873;03.38.40.168
12940;171287;34.84;874;03.38.40.168
12888;171282;34.84;875;03.38.40.288
12896;171296;34.84;876;03.38.40.288
12896;171287;34.84;877;03.38.40.288
12876;171291;34.84;878;03.38.40.288
12912;171282;34.84;879;03.38.40.288
12884;171285;34.84;880;03.38.40.288
12912;171287;34.84;881;03.38.40.288
12916;171289;34.84;882;03.38.40.288
12892;171286;34.84;883;03.38.40.288
12920;171281;34.84;884;03.38.40.299
12904;171288;34.84;885;03.38.40.299
12924;171291;34.84;886;03.38.40.299
12884;171286;34.84;887;03.38.40.299
12904;171281;34.84;888;03.38.40.299
12944;171293;34.84;889;03.38.40.299
12900;171281;34.84;890;03.38.40.299
12928;171290;34.84;891;03.38.40.299
12900;171285;34.84;892;03.38.40.310
12912;171284;34.84;893;03.38.40.310
12928;171278;34.84;894;03.38.40.310
12896;171274;34.84;895;03.38.40.310
12904;171289;34.84;896;03.38.40.310
12892;171275;34.84;897;03.38.40.310
12928;171286;34.84;898;03.38.40.310
12928;171284;34.84;899;03.38.40.310
12904;171288;34.84;900;03.38.40.420
12908;171281;34.84;901;03.38.40.420
12900;171277;34.84;902;03.38.40.420
12892;171286;34.84;903;03.38.40.420
12904;171278;34.84;904;03.38.40.420
12896;171286;34.84;905;03.38.40.431
12936;171280;34.84;906;03.38.40.431
12904;171287;34.84;907;03.38.40.431
12912;171285;34.84;908;03.38.40.431
12920;171279;34.84;909;03.38.40.431
12892;171283;34.84;910;03.38.40.431
12944;171271;34.84;911;03.38.40.431
12900;171280;34.84;912;03.38.40.431
12920;171280;34.84;913;03.38.40.431
12904;171281;34.84;914;03.38.40.431
12952;171283;34.84;915;03.38.40.431
12908;171284;34.84;916;03.38.40.431
12884;171280;34.84;917;03.38.40.431
12920;171276;34.84;918;03.38.40.442
12892;171281;34.84;919;03.38.40.442
12892;171275;34.84;920;03.38.40.442
12920;171284;34.84;921;03.38.40.442
12904;171282;34.84;922;03.38.40.442
12892;171278;34.84;923;03.38.40.442
12920;171278;34.84;924;03.38.40.442
12900;171281;34.84;925;03.38.40.530
12944;171279;34.84;926;03.38.40.530
12912;171285;34.84;927;03.38.40.541
12916;171282;34.84;928;03.38.40.541
12908;171271;34.84;929;03.38.40.541
12900;171288;34.84;930;03.38.40.541
12908;171285;34.84;931;03.38.40.541
12928;171284;34.84;932;03.38.40.541
12904;171288;34.84;933;03.38.40.552
12884;171284;34.84;934;03.38.40.563
12888;171288;34.84;935;03.38.40.563
12912;171286;34.84;936;03.38.40.563
12904;171285;34.84;937;03.38.40.563
12928;171286;34.84;938;03.38.40.563
12912;171288;34.84;939;03.38.40.563
12912;171287;34.84;940;03.38.40.563
12908;171285;34.84;941;03.38.40.563
12892;171285;34.84;942;03.38.40.563
12900;171288;34.84;943;03.38.40.563
12916;171289;34.84;944;03.38.40.563
12892;171296;34.84;945;03.38.40.563
12912;171290;34.84;946;03.38.40.563
12924;171298;34.84;947;03.38.40.573
12900;171295;34.84;948;03.38.40.573
12908;171292;34.84;949;03.38.40.573
12928;171291;34.84;950;03.38.40.661
12916;171296;34.84;951;03.38.40.661
12920;171295;34.84;952;03.38.40.661
12912;171287;34.84;953;03.38.40.661
12920;171290;34.84;954;03.38.40.661
12932;171298;34.84;955;03.38.40.661
12908;171298;34.84;956;03.38.40.661
12860;171299;34.84;957;03.38.40.661
12900;171305;34.84;958;03.38.40.672
12904;171304;34.84;959;03.38.40.672
12928;171313;34.84;960;03.38.40.672
12916;171305;34.84;961;03.38.40.672
12928;171301;34.84;962;03.38.40.672
12884;171301;34.84;963;03.38.40.672
12904;171300;34.84;964;03.38.40.672
12900;171306;34.84;965;03.38.40.672
12896;171311;34.84;966;03.38.40.672
12932;171317;34.84;967;03.38.40.694
12892;171308;34.84;968;03.38.40.694
12888;171317;34.84;969;03.38.40.694
12928;171325;34.84;970;03.38.40.694
12920;171326;34.84;971;03.38.40.694
12920;171321;34.84;972;03.38.40.694
12908;171326;34.84;973;03.38.40.694
12908;171317;34.84;974;03.38.40.694
12900;171331;34.80;975;03.38.40.781
12892;171314;34.80;976;03.38.40.781
12912;171329;34.80;977;03.38.40.781
12928;171324;34.80;978;03.38.40.781
12916;171331;34.80;979;03.38.40.781
12884;171328;34.80;980;03.38.40.792
12908;171336;34.80;981;03.38.40.792
12912;171336;34.80;982;03.38.40.792
12928;171330;34.80;983;03.38.40.792
12928;171341;34.80;984;03.38.40.792
12912;171344;34.80;985;03.38.40.792
12912;171340;34.80;986;03.38.40.792
12928;171341;34.80;987;03.38.40.792
12900;171341;34.80;988;03.38.40.792
12908;171341;34.80;989;03.38.40.792
12936;171341;34.80;990;03.38.40.792
12912;171348;34.80;991;03.38.40.792
12936;171344;34.80;992;03.38.40.825
12904;171335;34.80;993;03.38.40.825
12884;171341;34.80;994;03.38.40.825
12912;171345;34.80;995;03.38.40.825
12912;171339;34.80;996;03.38.40.825
12900;171352;34.80;997;03.38.40.836
12888;171350;34.80;998;03.38.40.836
12928;171341;34.80;999;03.38.40.836
12904;171348;34.80;000;03.38.40.923
12936;171354;34.80;001;03.38.40.923
12900;171356;34.80;002;03.38.40.923
12920;171356;34.80;003;03.38.40.923
12888;171359;34.80;004;03.38.40.923
12912;171349;34.80;005;03.38.40.923
12944;171358;34.80;006;03.38.40.923
12912;171355;34.80;007;03.38.40.923
12892;171358;34.80;008;03.38.40.923
12900;171364;34.80;009;03.38.40.923
12904;171362;34.80;010;03.38.40.923
12904;171350;34.80;011;03.38.40.923
12912;171352;34.80;012;03.38.40.923
12928;171345;34.80;013;03.38.40.934
12892;171348;34.80;014;03.38.40.934
12900;171341;34.80;015;03.38.40.934
12908;171345;34.80;016;03.38.40.934
12900;171324;34.80;017;03.38.40.934
12888;171330;34.80;018;03.38.40.934
12928;171332;34.80;019;03.38.40.934
12908;171315;34.80;020;03.38.40.934
12920;171321;34.80;021;03.38.40.934
12928;171321;34.80;022;03.38.40.934
12908;171303;34.80;023;03.38.40.934
12944;171306;34.80;024;03.38.40.934
12892;171305;34.84;025;03.38.41.054
12900;171300;34.84;026;03.38.41.054
12912;171296;34.84;027;03.38.41.054
12916;171287;34.84;028;03.38.41.054
12916;171287;34.84;029;03.38.41.054
12928;171279;34.84;030;03.38.41.054
12916;171280;34.84;031;03.38.41.054
12928;171284;34.84;032;03.38.41.054
12928;171273;34.84;033;03.38.41.054
12912;171273;34.84;034;03.38.41.065
12900;171267;34.84;035;03.38.41.065
12888;171269;34.84;036;03.38.41.065
12912;171266;34.84;037;03.38.41.065
12928;171269;34.84;038;03.38.41.065
12892;171261;34.84;039;03.38.41.065
12928;171273;34.84;040;03.38.41.065
12912;171260;34.84;041;03.38.41.065
12892;171264;34.84;042;03.38.41.065
12872;171254;34.84;043;03.38.41.065
12900;171258;34.84;044;03.38.41.065
12908;171263;34.84;045;03.38.41.065
12908;171262;34.84;046;03.38.41.065
12888;171260;34.84;047;03.38.41.076
12920;171259;34.84;048;03.38.41.076
12928;171267;34.84;049;03.38.41.076
12916;171259;34.84;050;03.38.41.164
12892;171260;34.84;051;03.38.41.164
12900;171253;34.84;052;03.38.41.164
12884;171253;34.84;053;03.38.41.164
12936;171251;34.84;054;03.38.41.164
12940;171255;34.84;055;03.38.41.164
12908;171259;34.84;056;03.38.41.175
12920;171261;34.84;057;03.38.41.175
12924;171263;34.84;058;03.38.41.175
12928;171265;34.84;059;03.38.41.175
12916;171267;34.84;060;03.38.41.175
12928;171258;34.84;061;03.38.41.175
12904;171258;34.84;062;03.38.41.175
12928;171258;34.84;063;03.38.41.186
12920;171275;34.84;064;03.38.41.186
12916;171269;34.84;065;03.38.41.186
12904;171274;34.84;066;03.38.41.186
12924;171268;34.84;067;03.38.41.186
12876;171260;34.84;068;03.38.41.186
12928;171259;34.84;069;03.38.41.186
12948;171264;34.84;070;03.38.41.186
12892;171267;34.84;071;03.38.41.186
12940;171269;34.84;072;03.38.41.186
12920;171267;34.84;073;03.38.41.197
12936;171268;34.84;074;03.38.41.197
12928;171272;34.84;075;03.38.41.273
12928;171266;34.84;076;03.38.41.273
12920;171268;34.84;077;03.38.41.284
12904;171272;34.84;078;03.38.41.284
12928;171272;34.84;079;03.38.41.284
12920;171268;34.84;080;03.38.41.284
12932;171262;34.84;081;03.38.41.284
12892;171266;34.84;082;03.38.41.284
12892;171262;34.84;083;03.38.41.284
12908;171256;34.84;084;03.38.41.284
12928;171268;34.84;085;03.38.41.284
12912;171266;34.84;086;03.38.41.284
12928;171275;34.84;087;03.38.41.284
12896;171260;34.84;088;03.38.41.284
12916;171252;34.84;089;03.38.41.284
12916;171262;34.84;090;03.38.41.284
12912;171261;34.84;091;03.38.41.303
12920;171268;34.84;092;03.38.41.303
12904;171261;34.84;093;03.38.41.303
12908;171263;34.84;094;03.38.41.303
12908;171260;34.84;095;03.38.41.303
12884;171255;34.84;096;03.38.41.303
12940;171267;34.84;097;03.38.41.303
12892;171260;34.84;098;03.38.41.303
12920;171267;34.84;099;03.38.41.303
12904;171268;34.84;100;03.38.41.411
12932;171261;34.84;101;03.38.41.411
12912;171263;34.84;102;03.38.41.411
12924;171263;34.84;103;03.38.41.411
12912;171270;34.84;104;03.38.41.411
12916;171268;34.84;105;03.38.41.411
12928;171279;34.84;106;03.38.41.422
12904;171269;34.84;107;03.38.41.422
12912;171271;34.84;108;03.38.41.422
12896;171262;34.84;109;03.38.41.422
12936;171265;34.84;110;03.38.41.422
12916;171271;34.84;111;03.38.41.422
12904;171272;34.84;112;03.38.41.422
12884;171276;34.84;113;03.38.41.422
12912;171274;34.84;114;03.38.41.422
12936;171282;34.84;115;03.38.41.422
12928;171285;34.84;116;03.38.41.422
12884;171280;34.84;117;03.38.41.422
12908;171272;34.84;118;03.38.41.422
12928;171273;34.84;119;03.38.41.433
12884;171277;34.84;120;03.38.41.433
12892;171289;34.84;121;03.38.41.433
12904;171289;34.84;122;03.38.41.433
12916;171282;34.84;123;03.38.41.433
12936;171285;34.84;124;03.38.41.433
12928;171289;34.84;125;03.38.41.543
12896;171285;34.84;126;03.38.41.543
12912;171290;34.84;127;03.38.41.554
12900;171293;34.84;128;03.38.41.554
12884;171296;34.84;129;03.38.41.554
12908;171298;34.84;130;03.38.41.554
12920;171295;34.84;131;03.38.41.554
12908;171297;34.84;132;03.38.41.554
12904;171311;34.84;133;03.38.41.554
12892;171298;34.84;134;03.38.41.554
12924;171302;34.84;135;03.38.41.554
12908;171310;34.84;136;03.38.41.554
12912;171315;34.84;137;03.38.41.554
12892;171316;34.84;138;03.38.41.554
12904;171312;34.84;139;03.38.41.565
12884;171308;34.84;140;03.38.41.565
12912;171310;34.84;141;03.38.41.565
12904;171313;34.84;142;03.38.41.565
12896;171311;34.84;143;03.38.41.565
12896;171314;34.84;144;03.38.41.565
12912;171323;34.84;145;03.38.41.565
12904;171323;34.84;146;03.38.41.565
12896;171317;34.84;147;03.38.41.565
12888;171309;34.84;148;03.38.41.565
12928;171321;34.84;149;03.38.41.565
12900;171322;34.84;150;03.38.41.662
12904;171322;34.84;151;03.38.41.662
12892;171316;34.84;152;03.38.41.662
12904;171322;34.84;153;03.38.41.662
12888;171317;34.84;154;03.38.41.662
12908;171329;34.84;155;03.38.41.662
12916;171326;34.84;156;03.38.41.662
12916;171329;34.84;157;03.38.41.662
12928;171331;34.84;158;03.38.41.684
12928;171323;34.84;159;03.38.41.684
12912;171333;34.84;160;03.38.41.684
12888;171344;34.84;161;03.38.41.684
12904;171341;34.84;162;03.38.41.684
12896;171340;34.84;163;03.38.41.684
12896;171351;34.84;164;03.38.41.684
12912;171346;34.84;165;03.38.41.684
12960;171347;34.84;166;03.38.41.684
12916;171347;34.84;167;03.38.41.684
12884;171350;34.84;168;03.38.41.695
12916;171352;34.84;169;03.38.41.695
12888;171353;34.84;170;03.38.41.695
12888;171352;34.84;171;03.38.41.695
12908;171354;34.84;172;03.38.41.695
12896;171348;34.84;173;03.38.41.695
12912;171350;34.84;174;03.38.41.695
12928;171349;34.80;175;03.38.41.783
12924;171350;34.80;176;03.38.41.783
12924;171355;34.80;177;03.38.41.783
12904;171361;34.80;178;03.38.41.783
12912;171360;34.80;179;03.38.41.783
12892;171354;34.80;180;03.38.41.783
12904;171361;34.80;181;03.38.41.794
12928;171361;34.80;182;03.38.41.794
12888;171352;34.80;183;03.38.41.794
12900;171357;34.80;184;03.38.41.794
12884;171351;34.80;185;03.38.41.794
12904;171344;34.80;186;03.38.41.794
12888;171339;34.80;187;03.38.41.794
12928;171346;34.80;188;03.38.41.794
12896;171334;34.80;189;03.38.41.794
12928;171320;34.80;190;03.38.41.794
12908;171328;34.80;191;03.38.41.794
12892;171324;34.80;192;03.38.41.794
12932;171312;34.80;193;03.38.41.794
12924;171316;34.80;194;03.38.41.805
12908;171309;34.80;195;03.38.41.805
12896;171294;34.80;196;03.38.41.805
12904;171301;34.80;197;03.38.41.805
12908;171294;34.80;198;03.38.41.805
12932;171282;34.80;199;03.38.41.805
12904;171288;34.80;200;03.38.41.903
12912;171289;34.80;201;03.38.41.903
12944;171284;34.80;202;03.38.41.914
12892;171282;34.80;203;03.38.41.914
12900;171277;34.80;204;03.38.41.914
12892;171279;34.80;205;03.38.41.914
12908;171275;34.80;206;03.38.41.914
12900;171273;34.80;207;03.38.41.914
12900;171270;34.80;208;03.38.41.914
12912;171273;34.80;209;03.38.41.914
12928;171272;34.80;210;03.38.41.914
12928;171275;34.80;211;03.38.41.914
12896;171276;34.80;212;03.38.41.914
12928;171268;34.80;213;03.38.41.914
12920;171274;34.80;214;03.38.41.914
12928;171276;34.80;215;03.38.41.925
12912;171278;34.80;216;03.38.41.925
12896;171270;34.80;217;03.38.41.925
12892;171274;34.80;218;03.38.41.925
12932;171273;34.80;219;03.38.41.925
12888;171275;34.80;220;03.38.41.925
12916;171279;34.80;221;03.38.41.925
12896;171278;34.80;222;03.38.41.925
12892;171274;34.80;223;03.38.41.925
12916;171273;34.80;224;03.38.41.925
12912;171270;34.80;225;03.38.42.046
12900;171270;34.80;226;03.38.42.046
12908;171273;34.80;227;03.38.42.046
12928;171269;34.80;228;03.38.42.046
12912;171274;34.80;229;03.38.42.046
12916;171276;34.80;230;03.38.42.046
12884;171279;34.80;231;03.38.42.046
12904;171276;34.80;232;03.38.42.046
12912;171270;34.80;233;03.38.42.046
12900;171279;34.80;234;03.38.42.046
12908;171282;34.80;235;03.38.42.057
12924;171276;34.80;236;03.38.42.057
12928;171274;34.80;237;03.38.42.057
12900;171276;34.80;238;03.38.42.057
12908;171279;34.80;239;03.38.42.057
12904;171274;34.80;240;03.38.42.057
12924;171269;34.80;241;03.38.42.057
12904;171275;34.80;242;03.38.42.057
12912;171272;34.80;243;03.38.42.057
12932;171281;34.80;244;03.38.42.057
12904;171275;34.80;245;03.38.42.057
12884;171277;34.80;246;03.38.42.057
12912;171277;34.80;247;03.38.42.057
12900;171275;34.80;248;03.38.42.057
12904;171274;34.80;249;03.38.42.057
12896;171268;34.80;250;03.38.42.155
12908;171268;34.80;251;03.38.42.155
12904;171270;34.80;252;03.38.42.155
12912;171276;34.80;253;03.38.42.155
12880;171271;34.80;254;03.38.42.155
12908;171267;34.80;255;03.38.42.155
12896;171267;34.80;256;03.38.42.155
12884;171268;34.80;257;03.38.42.155
12928;171271;34.80;258;03.38.42.166
12888;171276;34.80;259;03.38.42.166
12884;171273;34.80;260;03.38.42.166
12876;171267;34.80;261;03.38.42.166
12912;171270;34.80;262;03.38.42.166
12908;171280;34.80;263;03.38.42.166
12880;171279;34.80;264;03.38.42.166
12928;171274;34.80;265;03.38.42.177
12900;171276;34.80;266;03.38.42.177
12908;171272;34.80;267;03.38.42.177
12880;171271;34.80;268;03.38.42.177
12932;171273;34.80;269;03.38.42.177
12916;171277;34.80;270;03.38.42.177
12920;171276;34.80;271;03.38.42.177
12900;171277;34.80;272;03.38.42.177
12908;171281;34.80;273;03.38.42.177
12928;171281;34.80;274;03.38.42.177
12900;171275;34.84;275;03.38.42.287
12944;171275;34.84;276;03.38.42.287
12928;171278;34.84;277;03.38.42.298
12904;171283;34.84;278;03.38.42.298
12904;171278;34.84;279;03.38.42.298
12892;171279;34.84;280;03.38.42.298
12920;171281;34.84;281;03.38.42.298
12916;171274;34.84;282;03.38.42.298
12928;171280;34.84;283;03.38.42.298
12920;171274;34.84;284;03.38.42.298
12916;171284;34.84;285;03.38.42.298
12908;171275;34.84;286;03.38.42.298
12916;171283;34.84;287;03.38.42.298
12904;171286;34.84;288;03.38.42.309
12916;171280;34.84;289;03.38.42.309
12908;171284;34.84;290;03.38.42.309
12920;171285;34.84;291;03.38.42.309
12908;171295;34.84;292;03.38.42.309
12912;171295;34.84;293;03.38.42.309
12904;171283;34.84;294;03.38.42.309
12896;171296;34.84;295;03.38.42.309
12912;171300;34.84;296;03.38.42.320
12888;171303;34.84;297;03.38.42.320
12896;171299;34.84;298;03.38.42.320
12908;171299;34.84;299;03.38.42.320
12884;171299;34.84;300;03.38.42.408
12904;171293;34.84;301;03.38.42.408
12900;171297;34.84;302;03.38.42.408
12904;171297;34.84;303;03.38.42.408
12896;171291;34.84;304;03.38.42.408
12924;171295;34.84;305;03.38.42.408
12920;171307;34.84;306;03.38.42.408
12928;171299;34.84;307;03.38.42.408
12920;171306;34.84;308;03.38.42.408
12936;171297;34.84;309;03.38.42.408
12916;171297;34.84;310;03.38.42.408
12904;171306;34.84;311;03.38.42.408
12892;171304;34.84;312;03.38.42.408
12928;171303;34.84;313;03.38.42.408
12900;171304;34.84;314;03.38.42.418
12928;171305;34.84;315;03.38.42.418
12912;171307;34.84;316;03.38.42.418
12928;171311;34.84;317;03.38.42.418
12936;171306;34.84;318;03.38.42.418
12908;171303;34.84;319;03.38.42.418
12904;171310;34.84;320;03.38.42.418
12904;171304;34.84;321;03.38.42.418
12924;171312;34.84;322;03.38.42.418
12892;171307;34.84;323;03.38.42.418
12920;171308;34.84;324;03.38.42.418
12896;171311;34.84;325;03.38.42.539
12908;171313;34.84;326;03.38.42.539
12924;171313;34.84;327;03.38.42.539
12896;171314;34.84;328;03.38.42.539
12892;171307;34.84;329;03.38.42.539
12892;171317;34.84;330;03.38.42.539
12900;171309;34.84;331;03.38.42.539
12900;171318;34.84;332;03.38.42.539
12936;171320;34.84;333;03.38.42.539
12944;171327;34.84;334;03.38.42.550
12908;171317;34.84;335;03.38.42.550
12912;171325;34.84;336;03.38.42.550
12888;171320;34.84;337;03.38.42.550
12912;171330;34.84;338;03.38.42.550
12912;171322;34.84;339;03.38.42.550
12872;171321;34.84;340;03.38.42.550
12912;171324;34.84;341;03.38.42.550
12916;171326;34.84;342;03.38.42.550
12912;171323;34.84;343;03.38.42.550
12908;171321;34.84;344;03.38.42.550
12908;171321;34.84;345;03.38.42.550
12912;171311;34.84;346;03.38.42.550
12904;171313;34.84;347;03.38.42.561
12904;171305;34.84;348;03.38.42.561
12916;171301;34.84;349;03.38.42.561
12912;171297;34.84;350;03.38.42.670
12904;171295;34.84;351;03.38.42.670
12920;171291;34.84;352;03.38.42.670
12944;171281;34.84;353;03.38.42.681
12900;171285;34.84;354;03.38.42.681
12900;171268;34.84;355;03.38.42.681
12920;171271;34.84;356;03.38.42.681
12892;171268;34.84;357;03.38.42.681
12912;171262;34.84;358;03.38.42.681
12920;171258;34.84;359;03.38.42.681
12908;171260;34.84;360;03.38.42.681
12928;171251;34.84;361;03.38.42.681
12928;171251;34.84;362;03.38.42.681
12928;171247;34.84;363;03.38.42.681
12892;171241;34.84;364;03.38.42.681
12896;171243;34.84;365;03.38.42.681
12900;171238;34.84;366;03.38.42.681
12884;171234;34.84;367;03.38.42.692
12928;171238;34.84;368;03.38.42.692
12904;171236;34.84;369;03.38.42.692
12912;171235;34.84;370;03.38.42.692
12884;171230;34.84;371;03.38.42.692
12904;171235;34.84;372;03.38.42.692
12924;171232;34.84;373;03.38.42.692
12948;171233;34.84;374;03.38.42.692
12900;171231;34.84;375;03.38.42.780
12904;171235;34.84;376;03.38.42.790
12900;171229;34.84;377;03.38.42.790
12912;171234;34.84;378;03.38.42.790
12920;171240;34.84;379;03.38.42.790
12904;171225;34.84;380;03.38.42.790
12908;171231;34.84;381;03.38.42.790
12888;171233;34.84;382;03.38.42.790
12920;171230;34.84;383;03.38.42.801
12928;171228;34.84;384;03.38.42.801
12892;171237;34.84;385;03.38.42.801
12928;171230;34.84;386;03.38.42.801
12892;171237;34.84;387;03.38.42.801
12920;171231;34.84;388;03.38.42.801
12900;171243;34.84;389;03.38.42.801
12920;171238;34.84;390;03.38.42.801
12904;171236;34.84;391;03.38.42.801
12884;171238;34.84;392;03.38.42.801
12904;171234;34.84;393;03.38.42.812
12900;171238;34.84;394;03.38.42.812
12916;171229;34.84;395;03.38.42.812
12896;171237;34.84;396;03.38.42.812
12936;171238;34.84;397;03.38.42.812
12932;171233;34.84;398;03.38.42.812
12916;171235;34.84;399;03.38.42.812
12904;171235;34.84;400;03.38.42.911
12916;171233;34.84;401;03.38.42.911
12912;171231;34.84;402;03.38.42.911
12920;171231;34.84;403;03.38.42.911
12908;171233;34.84;404;03.38.42.911
12912;171238;34.84;405;03.38.42.911
12916;171239;34.84;406;03.38.42.911
12904;171244;34.84;407;03.38.42.911
12892;171230;34.84;408;03.38.42.922
12900;171236;34.84;409;03.38.42.922
12912;171230;34.84;410;03.38.42.922
12896;171226;34.84;411;03.38.42.922
12920;171229;34.84;412;03.38.42.922
12920;171230;34.84;413;03.38.42.922
12884;171230;34.84;414;03.38.42.922
12892;171228;34.84;415;03.38.42.922
12912;171226;34.84;416;03.38.42.922
12908;171222;34.84;417;03.38.42.944
12900;171226;34.84;418;03.38.42.944
12920;171219;34.84;419;03.38.42.944
12928;171224;34.84;420;03.38.42.944
12908;171225;34.84;421;03.38.42.944
12908;171223;34.84;422;03.38.42.944
12920;171232;34.84;423;03.38.42.944
12912;171225;34.84;424;03.38.42.944
12908;171220;34.80;425;03.38.43.043
12900;171225;34.80;426;03.38.43.043
12928;171220;34.80;427;03.38.43.043
12932;171231;34.80;428;03.38.43.043
12932;171226;34.80;429;03.38.43.043
12920;171229;34.80;430;03.38.43.043
12908;171220;34.80;431;03.38.43.043
12900;171221;34.80;432;03.38.43.054
12884;171230;34.80;433;03.38.43.054
12908;171232;34.80;434;03.38.43.054
12912;171216;34.80;435;03.38.43.054
12912;171221;34.80;436;03.38.43.054
12916;171226;34.80;437;03.38.43.054
12916;171233;34.80;438;03.38.43.054
12920;171230;34.80;439;03.38.43.054
12912;171233;34.80;440;03.38.43.065
12876;171235;34.80;441;03.38.43.065
12932;171222;34.80;442;03.38.43.065
12896;171222;34.80;443;03.38.43.065
12928;171229;34.80;444;03.38.43.065
12912;171226;34.80;445;03.38.43.065
12908;171235;34.80;446;03.38.43.065
12920;171230;34.80;447;03.38.43.065
12888;171227;34.80;448;03.38.43.065
12936;171240;34.80;449;03.38.43.076
12928;171237;34.80;450;03.38.43.218
12904;171231;34.80;451;03.38.43.229
12932;171238;34.80;452;03.38.43.229
12892;171242;34.80;453;03.38.43.229
12904;171242;34.80;454;03.38.43.229
12944;171234;34.80;455;03.38.43.229
12900;171240;34.80;456;03.38.43.229
12928;171243;34.80;457;03.38.43.229
12932;171236;34.80;458;03.38.43.229
12920;171244;34.80;459;03.38.43.229
12928;171247;34.80;460;03.38.43.229
12904;171242;34.80;461;03.38.43.229
12912;171244;34.80;462;03.38.43.229
12928;171245;34.80;463;03.38.43.240
12916;171246;34.80;464;03.38.43.240
12928;171243;34.80;465;03.38.43.240
12892;171251;34.80;466;03.38.43.240
12904;171250;34.80;467;03.38.43.240
12928;171246;34.80;468;03.38.43.240
12920;171248;34.80;469;03.38.43.240
12908;171254;34.80;470;03.38.43.240
12904;171253;34.80;471;03.38.43.240
12908;171254;34.80;472;03.38.43.240
12908;171252;34.80;473;03.38.43.240
12908;171263;34.80;474;03.38.43.240
12928;171251;34.84;475;03.38.43.284
12920;171259;34.84;476;03.38.43.284
12884;171261;34.84;477;03.38.43.284
12912;171259;34.84;478;03.38.43.284
12936;171262;34.84;479;03.38.43.284
12924;171260;34.84;480;03.38.43.284
12928;171262;34.84;481;03.38.43.284
12904;171272;34.84;482;03.38.43.284
12912;171272;34.84;483;03.38.43.284
12892;171268;34.84;484;03.38.43.284
12916;171274;34.84;485;03.38.43.295
12892;171279;34.84;486;03.38.43.295
12928;171272;34.84;487;03.38.43.295
12904;171273;34.84;488;03.38.43.295
12928;171271;34.84;489;03.38.43.295
12916;171275;34.84;490;03.38.43.295
12912;171281;34.84;491;03.38.43.295
12912;171276;34.84;492;03.38.43.317
12928;171283;34.84;493;03.38.43.317
12904;171282;34.84;494;03.38.43.317
12912;171289;34.84;495;03.38.43.317
12876;171286;34.84;496;03.38.43.317
12888;171296;34.84;497;03.38.43.317
12900;171297;34.84;498;03.38.43.317
12936;171288;34.84;499;03.38.43.317
12892;171288;34.84;500;03.38.43.405
12916;171301;34.84;501;03.38.43.405
12928;171294;34.84;502;03.38.43.405
12920;171300;34.84;503;03.38.43.405
12920;171296;34.84;504;03.38.43.405
12924;171301;34.84;505;03.38.43.405
12904;171302;34.84;506;03.38.43.405
12924;171292;34.84;507;03.38.43.405
12904;171290;34.84;508;03.38.43.405
12928;171286;34.84;509;03.38.43.416
12904;171281;34.84;510;03.38.43.416
12916;171288;34.84;511;03.38.43.416
12884;171286;34.84;512;03.38.43.416
12884;171281;34.84;513;03.38.43.416
12908;171271;34.84;514;03.38.43.416
12924;171271;34.84;515;03.38.43.416
12908;171266;34.84;516;03.38.43.416
12892;171261;34.84;517;03.38.43.427
12896;171252;34.84;518;03.38.43.427
12920;171252;34.84;519;03.38.43.427
12904;171248;34.84;520;03.38.43.427
12896;171249;34.84;521;03.38.43.427
12896;171234;34.84;522;03.38.43.427
12920;171244;34.84;523;03.38.43.427
12916;171237;34.84;524;03.38.43.427
12932;171232;34.84;525;03.38.43.536
12908;171233;34.84;526;03.38.43.536
12904;171229;34.84;527;03.38.43.536
12896;171224;34.84;528;03.38.43.536
12896;171223;34.84;529;03.38.43.536
12884;171214;34.84;530;03.38.43.547
12900;171212;34.84;531;03.38.43.547
12896;171206;34.84;532;03.38.43.547
12920;171210;34.84;533;03.38.43.547
12884;171208;34.84;534;03.38.43.547
12940;171205;34.84;535;03.38.43.547
12904;171211;34.84;536;03.38.43.547
12904;171199;34.84;537;03.38.43.547
12904;171199;34.84;538;03.38.43.547
12912;171206;34.84;539;03.38.43.547
12896;171204;34.84;540;03.38.43.547
12916;171208;34.84;541;03.38.43.547
12916;171206;34.84;542;03.38.43.547
12908;171203;34.84;543;03.38.43.558
12916;171200;34.84;544;03.38.43.558
12896;171201;34.84;545;03.38.43.558
12892;171202;34.84;546;03.38.43.558
12932;171207;34.84;547;03.38.43.558
12892;171207;34.84;548;03.38.43.558
12908;171201;34.84;549;03.38.43.558
12904;171199;34.84;550;03.38.43.679
12928;171202;34.84;551;03.38.43.679
12908;171209;34.84;552;03.38.43.679
12904;171205;34.84;553;03.38.43.679
12928;171203;34.84;554;03.38.43.679
12916;171201;34.84;555;03.38.43.679
12884;171204;34.84;556;03.38.43.679
12928;171202;34.84;557;03.38.43.679
12908;171208;34.84;558;03.38.43.679
12900;171200;34.84;559;03.38.43.679
12940;171205;34.84;560;03.38.43.679
12928;171208;34.84;561;03.38.43.679
12892;171198;34.84;562;03.38.43.679
12892;171201;34.84;563;03.38.43.690
12924;171202;34.84;564;03.38.43.690
12932;171207;34.84;565;03.38.43.690
12888;171209;34.84;566;03.38.43.690
12900;171207;34.84;567;03.38.43.690
12876;171215;34.84;568;03.38.43.690
12920;171211;34.84;569;03.38.43.690
12896;171206;34.84;570;03.38.43.690
12908;171208;34.84;571;03.38.43.690
12916;171207;34.84;572;03.38.43.690
12900;171210;34.84;573;03.38.43.690
12928;171209;34.84;574;03.38.43.690
12920;171202;34.84;575;03.38.43.788
12916;171204;34.84;576;03.38.43.788
12884;171202;34.84;577;03.38.43.788
12928;171202;34.84;578;03.38.43.788
12908;171210;34.84;579;03.38.43.788
12892;171204;34.84;580;03.38.43.788
12924;171205;34.84;581;03.38.43.788
12928;171203;34.84;582;03.38.43.788
12912;171207;34.84;583;03.38.43.810
12912;171198;34.84;584;03.38.43.810
12936;171202;34.84;585;03.38.43.810
12936;171204;34.84;586;03.38.43.810
12892;171205;34.84;587;03.38.43.810
12928;171211;34.84;588;03.38.43.810
12900;171199;34.84;589;03.38.43.810
12912;171207;34.84;590;03.38.43.810
12904;171210;34.84;591;03.38.43.810
12916;171212;34.84;592;03.38.43.821
12920;171212;34.84;593;03.38.43.821
12904;171207;34.84;594;03.38.43.821
12900;171211;34.84;595;03.38.43.821
12892;171214;34.84;596;03.38.43.821
12908;171214;34.84;597;03.38.43.821
12908;171204;34.84;598;03.38.43.821
12936;171206;34.84;599;03.38.43.821
12904;171207;34.84;600;03.38.43.908
12884;171212;34.84;601;03.38.43.908
12944;171205;34.84;602;03.38.43.908
12904;171213;34.84;603;03.38.43.908
12920;171208;34.84;604;03.38.43.908
12896;171214;34.84;605;03.38.43.918
12900;171215;34.84;606;03.38.43.918
12920;171205;34.84;607;03.38.43.918
12900;171215;34.84;608;03.38.43.918
12884;171216;34.84;609;03.38.43.918
12892;171208;34.84;610;03.38.43.918
12908;171215;34.84;611;03.38.43.918
12932;171215;34.84;612;03.38.43.918
12900;171220;34.84;613;03.38.43.929
12912;171227;34.84;614;03.38.43.929
12900;171222;34.84;615;03.38.43.929
12904;171229;34.84;616;03.38.43.929
12912;171230;34.84;617;03.38.43.940
12936;171228;34.84;618;03.38.43.940
12888;171235;34.84;619;03.38.43.940
12912;171228;34.84;620;03.38.43.940
12940;171230;34.84;621;03.38.43.951
12892;171234;34.84;622;03.38.43.951
12920;171229;34.84;623;03.38.43.951
12908;171232;34.84;624;03.38.43.951
12900;171238;34.80;625;03.38.44.028
12908;171239;34.80;626;03.38.44.039
12904;171241;34.80;627;03.38.44.039
12928;171244;34.80;628;03.38.44.039
12884;171248;34.80;629;03.38.44.039
12924;171243;34.80;630;03.38.44.039
12892;171249;34.80;631;03.38.44.039
12916;171254;34.80;632;03.38.44.039
12888;171246;34.80;633;03.38.44.039
12900;171254;34.80;634;03.38.44.039
12896;171247;34.80;635;03.38.44.039
12912;171260;34.80;636;03.38.44.039
12896;171255;34.80;637;03.38.44.050
12904;171257;34.80;638;03.38.44.050
12912;171254;34.80;639;03.38.44.050
12920;171271;34.80;640;03.38.44.050
12916;171263;34.80;641;03.38.44.050
12928;171268;34.80;642;03.38.44.050
12928;171263;34.80;643;03.38.44.050
12924;171271;34.80;644;03.38.44.050
12896;171267;34.80;645;03.38.44.050
12876;171268;34.80;646;03.38.44.050
12888;171268;34.80;647;03.38.44.050
12912;171270;34.80;648;03.38.44.050
12900;171268;34.80;649;03.38.44.050
12896;171273;34.80;650;03.38.44.171
12904;171275;34.80;651;03.38.44.171
12884;171275;34.80;652;03.38.44.171
12916;171271;34.80;653;03.38.44.171
12916;171278;34.80;654;03.38.44.171
12916;171274;34.80;655;03.38.44.171
12908;171277;34.80;656;03.38.44.171
12916;171283;34.80;657;03.38.44.171
12892;171284;34.80;658;03.38.44.171
12924;171284;34.80;659;03.38.44.171
12896;171292;34.80;660;03.38.44.182
12932;171286;34.80;661;03.38.44.182
12912;171288;34.80;662;03.38.44.182
12916;171294;34.80;663;03.38.44.182
12884;171287;34.80;664;03.38.44.182
12904;171289;34.80;665;03.38.44.182
12912;171296;34.80;666;03.38.44.182
12892;171296;34.80;667;03.38.44.182
12928;171292;34.80;668;03.38.44.182
12920;171298;34.80;669;03.38.44.182
12892;171297;34.80;670;03.38.44.182
12908;171302;34.80;671;03.38.44.182
12916;171306;34.80;672;03.38.44.193
12904;171311;34.80;673;03.38.44.193
12892;171309;34.80;674;03.38.44.193
12916;171305;34.84;675;03.38.44.280
12900;171300;34.84;676;03.38.44.280
12912;171303;34.84;677;03.38.44.280
12932;171301;34.84;678;03.38.44.280
12904;171302;34.84;679;03.38.44.280
12924;171299;34.84;680;03.38.44.280
12912;171294;34.84;681;03.38.44.280
12904;171292;34.84;682;03.38.44.291
12908;171288;34.84;683;03.38.44.302
12908;171284;34.84;684;03.38.44.302
12900;171280;34.84;685;03.38.44.302
12892;171277;34.84;686;03.38.44.302
12932;171270;34.84;687;03.38.44.302
12928;171263;34.84;688;03.38.44.302
12892;171261;34.84;689;03.38.44.313
12928;171263;34.84;690;03.38.44.313
12900;171255;34.84;691;03.38.44.313
12880;171242;34.84;692;03.38.44.313
12908;171247;34.84;693;03.38.44.313
12920;171231;34.84;694;03.38.44.313
12892;171237;34.84;695;03.38.44.313
12912;171232;34.84;696;03.38.44.313
12900;171220;34.84;697;03.38.44.313
12892;171225;34.84;698;03.38.44.313
12908;171228;34.84;699;03.38.44.313
12904;171224;34.84;700;03.38.44.401
12908;171213;34.84;701;03.38.44.401
12904;171220;34.84;702;03.38.44.401
12944;171218;34.84;703;03.38.44.412
12920;171211;34.84;704;03.38.44.412
12908;171221;34.84;705;03.38.44.412
12896;171209;34.84;706;03.38.44.412
12892;171215;34.84;707;03.38.44.412
12924;171209;34.84;708;03.38.44.412
12932;171220;34.84;709;03.38.44.412
12908;171221;34.84;710;03.38.44.412
12900;171211;34.84;711;03.38.44.412
12900;171214;34.84;712;03.38.44.412
12904;171212;34.84;713;03.38.44.412
12916;171209;34.84;714;03.38.44.412
12928;171216;34.84;715;03.38.44.412
12908;171217;34.84;716;03.38.44.423
12888;171215;34.84;717;03.38.44.423
12920;171211;34.84;718;03.38.44.423
12920;171219;34.84;719;03.38.44.423
12908;171208;34.84;720;03.38.44.423
12892;171212;34.84;721;03.38.44.423
12924;171215;34.84;722;03.38.44.423
12908;171213;34.84;723;03.38.44.423
12912;171213;34.84;724;03.38.44.423
12940;171218;34.84;725;03.38.44.533
12912;171216;34.84;726;03.38.44.533
12904;171216;34.84;727;03.38.44.533
12936;171229;34.84;728;03.38.44.533
12888;171221;34.84;729;03.38.44.533
12908;171223;34.84;730;03.38.44.533
12912;171229;34.84;731;03.38.44.533
12892;171234;34.84;732;03.38.44.533
12936;171230;34.84;733;03.38.44.533
12936;171237;34.84;734;03.38.44.533
12920;171226;34.84;735;03.38.44.533
12896;171221;34.84;736;03.38.44.533
12908;171216;34.84;737;03.38.44.544
12924;171224;34.84;738;03.38.44.544
12888;171219;34.84;739;03.38.44.544
12924;171233;34.84;740;03.38.44.544
12908;171224;34.84;741;03.38.44.544
12908;171227;34.84;742;03.38.44.544
12908;171225;34.84;743;03.38.44.544
12900;171225;34.84;744;03.38.44.544
12916;171225;34.84;745;03.38.44.544
12908;171224;34.84;746;03.38.44.544
12944;171231;34.84;747;03.38.44.544
12892;171232;34.84;748;03.38.44.544
12900;171234;34.84;749;03.38.44.544
12928;171230;34.84;750;03.38.44.664
12900;171226;34.84;751;03.38.44.664
12896;171225;34.84;752;03.38.44.664
12900;171223;34.84;753;03.38.44.664
12968;171222;34.84;754;03.38.44.664
12908;171230;34.84;755;03.38.44.664
12920;171218;34.84;756;03.38.44.664
12952;171222;34.84;757;03.38.44.675
12900;171227;34.84;758;03.38.44.675
12916;171223;34.84;759;03.38.44.675
12908;171223;34.84;760;03.38.44.675
12892;171223;34.84;761;03.38.44.675
12920;171223;34.84;762;03.38.44.675
12920;171223;34.84;763;03.38.44.675
12912;171226;34.84;764;03.38.44.675
12924;171234;34.84;765;03.38.44.675
12904;171225;34.84;766;03.38.44.675
12928;171232;34.84;767;03.38.44.685
12888;171227;34.84;768;03.38.44.685
12928;171240;34.84;769;03.38.44.685
12904;171233;34.84;770;03.38.44.685
12912;171223;34.84;771;03.38.44.685
12928;171224;34.84;772;03.38.44.685
12912;171228;34.84;773;03.38.44.685
12912;171224;34.84;774;03.38.44.696
12904;171224;34.84;775;03.38.44.795
12920;171229;34.84;776;03.38.44.795
12908;171231;34.84;777;03.38.44.795
12912;171236;34.84;778;03.38.44.806
12928;171232;34.84;779;03.38.44.806
12916;171236;34.84;780;03.38.44.806
12876;171246;34.84;781;03.38.44.806
12912;171236;34.84;782;03.38.44.806
12908;171243;34.84;783;03.38.44.806
12936;171238;34.84;784;03.38.44.806
12900;171237;34.84;785;03.38.44.806
12912;171242;34.84;786;03.38.44.806
12912;171251;34.84;787;03.38.44.806
12908;171243;34.84;788;03.38.44.806
12912;171244;34.84;789;03.38.44.806
12924;171247;34.84;790;03.38.44.806
12900;171252;34.84;791;03.38.44.817
12916;171244;34.84;792;03.38.44.817
12916;171249;34.84;793;03.38.44.817
12912;171251;34.84;794;03.38.44.817
12908;171250;34.84;795;03.38.44.828
12908;171258;34.84;796;03.38.44.828
12916;171248;34.84;797;03.38.44.828
12904;171253;34.84;798;03.38.44.828
12936;171259;34.84;799;03.38.44.828
12892;171255;34.84;800;03.38.44.916
12900;171261;34.84;801;03.38.44.916
12920;171262;34.84;802;03.38.44.916
12904;171262;34.84;803;03.38.44.916
12912;171260;34.84;804;03.38.44.916
12936;171254;34.84;805;03.38.44.916
12904;171256;34.84;806;03.38.44.916
12928;171257;34.84;807;03.38.44.916
12908;171274;34.84;808;03.38.44.927
12912;171262;34.84;809;03.38.44.927
12900;171258;34.84;810;03.38.44.927
12928;171266;34.84;811;03.38.44.927
12928;171271;34.84;812;03.38.44.927
12900;171266;34.84;813;03.38.44.927
12912;171266;34.84;814;03.38.44.927
12912;171272;34.84;815;03.38.44.927
12900;171268;34.84;816;03.38.44.927
12928;171273;34.84;817;03.38.44.927
12900;171272;34.84;818;03.38.44.927
12912;171274;34.84;819;03.38.44.927
12920;171282;34.84;820;03.38.44.938
12916;171276;34.84;821;03.38.44.938
12928;171277;34.84;822;03.38.44.938
12916;171281;34.84;823;03.38.44.938
12944;171288;34.84;824;03.38.44.938
12892;171279;34.84;825;03.38.45.036
12912;171277;34.84;826;03.38.45.036
12920;171284;34.84;827;03.38.45.036
12888;171291;34.84;828;03.38.45.036
12916;171290;34.84;829;03.38.45.036
12904;171283;34.84;830;03.38.45.036
12904;171289;34.84;831;03.38.45.036
12912;171292;34.84;832;03.38.45.036
12904;171290;34.84;833;03.38.45.069
12928;171297;34.84;834;03.38.45.069
12916;171292;34.84;835;03.38.45.069
12932;171294;34.84;836;03.38.45.069
12928;171303;34.84;837;03.38.45.069
12916;171294;34.84;838;03.38.45.069
12916;171301;34.84;839;03.38.45.069
12916;171299;34.84;840;03.38.45.069
12912;171299;34.84;841;03.38.45.080
12908;171298;34.84;842;03.38.45.080
12888;171289;34.84;843;03.38.45.080
12892;171287;34.84;844;03.38.45.080
12892;171283;34.84;845;03.38.45.080
12912;171276;34.84;846;03.38.45.080
12936;171271;34.84;847;03.38.45.080
12928;171268;34.84;848;03.38.45.080
12916;171259;34.84;849;03.38.45.080
12880;171258;34.84;850;03.38.45.167
12900;171249;34.84;851;03.38.45.167
12908;171251;34.84;852;03.38.45.167
12892;171248;34.84;853;03.38.45.167
12928;171251;34.84;854;03.38.45.178
12892;171243;34.84;855;03.38.45.178
12912;171240;34.84;856;03.38.45.178
12912;171236;34.84;857;03.38.45.178
12896;171229;34.84;858;03.38.45.178
12912;171233;34.84;859;03.38.45.178
12912;171220;34.84;860;03.38.45.178
12912;171223;34.84;861;03.38.45.178
12908;171222;34.84;862;03.38.45.178
12884;171221;34.84;863;03.38.45.178
12912;171219;34.84;864;03.38.45.178
12900;171213;34.84;865;03.38.45.178
12892;171218;34.84;866;03.38.45.178
12908;171211;34.84;867;03.38.45.189
12904;171213;34.84;868;03.38.45.189
12912;171208;34.84;869;03.38.45.189
12912;171209;34.84;870;03.38.45.189
12888;171209;34.84;871;03.38.45.189
12900;171207;34.84;872;03.38.45.189
12888;171219;34.84;873;03.38.45.189
12908;171211;34.84;874;03.38.45.189
12892;171213;34.80;875;03.38.45.300
12944;171205;34.80;876;03.38.45.300
12920;171202;34.80;877;03.38.45.300
12916;171211;34.80;878;03.38.45.300
12920;171205;34.80;879;03.38.45.300
12904;171207;34.80;880;03.38.45.300
12912;171208;34.80;881;03.38.45.300
12936;171195;34.80;882;03.38.45.300
12900;171209;34.80;883;03.38.45.300
12944;171210;34.80;884;03.38.45.300
12908;171211;34.80;885;03.38.45.300
12920;171212;34.80;886;03.38.45.300
12908;171206;34.80;887;03.38.45.300
12928;171210;34.80;888;03.38.45.300
12904;171201;34.80;889;03.38.45.310
12912;171207;34.80;890;03.38.45.310
12892;171203;34.80;891;03.38.45.310
12892;171211;34.80;892;03.38.45.310
12924;171201;34.80;893;03.38.45.310
12944;171207;34.80;894;03.38.45.310
12900;171197;34.80;895;03.38.45.310
12892;171208;34.80;896;03.38.45.310
12944;171205;34.80;897;03.38.45.310
12932;171201;34.80;898;03.38.45.310
12924;171202;34.80;899;03.38.45.310
12920;171205;34.80;900;03.38.45.409
12916;171208;34.80;901;03.38.45.409
12888;171195;34.80;902;03.38.45.409
12904;171211;34.80;903;03.38.45.409
12892;171202;34.80;904;03.38.45.409
12908;171201;34.80;905;03.38.45.409
12928;171210;34.80;906;03.38.45.409
12900;171202;34.80;907;03.38.45.409
12912;171207;34.80;908;03.38.45.431
12896;171211;34.80;909;03.38.45.431
12892;171204;34.80;910;03.38.45.431
12932;171208;34.80;911;03.38.45.431
12908;171199;34.80;912;03.38.45.431
12912;171196;34.80;913;03.38.45.431
12892;171200;34.80;914;03.38.45.431
12936;171192;34.80;915;03.38.45.431
12912;171202;34.80;916;03.38.45.431
12904;171193;34.80;917;03.38.45.431
12908;171197;34.80;918;03.38.45.442
12872;171202;34.80;919;03.38.45.442
12912;171198;34.80;920;03.38.45.442
12876;171199;34.80;921;03.38.45.442
12928;171199;34.80;922;03.38.45.442
12912;171204;34.80;923;03.38.45.442
12928;171207;34.80;924;03.38.45.442
12908;171207;34.84;925;03.38.45.529
12916;171199;34.84;926;03.38.45.529
12888;171204;34.84;927;03.38.45.529
12920;171210;34.84;928;03.38.45.529
12928;171200;34.84;929;03.38.45.529
12920;171206;34.84;930;03.38.45.529
12904;171214;34.84;931;03.38.45.529
12928;171208;34.84;932;03.38.45.540
12916;171206;34.84;933;03.38.45.540
12936;171206;34.84;934;03.38.45.540
12896;171220;34.84;935;03.38.45.540
12932;171216;34.84;936;03.38.45.540
12924;171218;34.84;937;03.38.45.540
12904;171214;34.84;938;03.38.45.540
12896;171219;34.84;939;03.38.45.540
12928;171221;34.84;940;03.38.45.540
12900;171215;34.84;941;03.38.45.540
12916;171220;34.84;942;03.38.45.540
12912;171211;34.84;943;03.38.45.540
12896;171224;34.84;944;03.38.45.551
12904;171216;34.84;945;03.38.45.551
12920;171220;34.84;946;03.38.45.551
12916;171223;34.84;947;03.38.45.551
12944;171221;34.84;948;03.38.45.551
12920;171221;34.84;949;03.38.45.551
12944;171225;34.84;950;03.38.45.649
12892;171228;34.84;951;03.38.45.649
12920;171225;34.84;952;03.38.45.650
12908;171228;34.84;953;03.38.45.661
12904;171230;34.84;954;03.38.45.661
12892;171229;34.84;955;03.38.45.661
12876;171230;34.84;956;03.38.45.661
12880;171233;34.84;957;03.38.45.661
12892;171236;34.84;958;03.38.45.661
12928;171234;34.84;959;03.38.45.661
12912;171243;34.84;960;03.38.45.661
12880;171244;34.84;961;03.38.45.661
12928;171241;34.84;962;03.38.45.661
12900;171242;34.84;963;03.38.45.661
12916;171237;34.84;964;03.38.45.661
12928;171238;34.84;965;03.38.45.661
12912;171237;34.84;966;03.38.45.672
12908;171243;34.84;967;03.38.45.705
12896;171246;34.84;968;03.38.45.705
12928;171246;34.84;969;03.38.45.716
12912;171243;34.84;970;03.38.45.716
12900;171254;34.84;971;03.38.45.716
12912;171247;34.84;972;03.38.45.716
12912;171245;34.84;973;03.38.45.716
12916;171252;34.84;974;03.38.45.716
12912;171259;34.84;975;03.38.45.792
12916;171259;34.84;976;03.38.45.792
12916;171257;34.84;977;03.38.45.792
12892;171264;34.84;978;03.38.45.792
12916;171264;34.84;979;03.38.45.792
12904;171263;34.84;980;03.38.45.792
12884;171262;34.84;981;03.38.45.792
12924;171262;34.84;982;03.38.45.792
12908;171260;34.84;983;03.38.45.792
12908;171260;34.84;984;03.38.45.792
12908;171266;34.84;985;03.38.45.792
12936;171270;34.84;986;03.38.45.803
12888;171275;34.84;987;03.38.45.803
12892;171275;34.84;988;03.38.45.803
12896;171272;34.84;989;03.38.45.803
12936;171274;34.84;990;03.38.45.803
12912;171279;34.84;991;03.38.45.803
12892;171282;34.84;992;03.38.45.814
12888;171279;34.84;993;03.38.45.814
12928;171289;34.84;994;03.38.45.814
12916;171281;34.84;995;03.38.45.814
12928;171280;34.84;996;03.38.45.814
12892;171281;34.84;997;03.38.45.814
12908;171280;34.84;998;03.38.45.814
12908;171283;34.84;999;03.38.45.814
12888;171283;34.84;000;03.38.45.924
12896;171281;34.84;001;03.38.45.924
12916;171289;34.84;002;03.38.45.924
12912;171285;34.84;003;03.38.45.924
12892;171289;34.84;004;03.38.45.924
12884;171285;34.84;005;03.38.45.924
12928;171298;34.84;006;03.38.45.924
12908;171282;34.84;007;03.38.45.924
12912;171287;34.84;008;03.38.45.935
12932;171281;34.84;009;03.38.45.935
12928;171286;34.84;010;03.38.45.935
12908;171276;34.84;011;03.38.45.935
12876;171277;34.84;012;03.38.45.935
12888;171269;34.84;013;03.38.45.935
12876;171271;34.84;014;03.38.45.935
12892;171264;34.84;015;03.38.45.935
12920;171259;34.84;016;03.38.45.935
12892;171255;34.84;017;03.38.45.935
12916;171256;34.84;018;03.38.45.935
12932;171243;34.84;019;03.38.45.935
12908;171239;34.84;020;03.38.45.935
12884;171236;34.84;021;03.38.45.946
12884;171236;34.84;022;03.38.45.946
12908;171231;34.84;023;03.38.45.946
12908;171228;34.84;024;03.38.45.946
12900;171226;34.84;025;03.38.46.034
12904;171216;34.84;026;03.38.46.034
12928;171218;34.84;027;03.38.46.034
12916;171210;34.84;028;03.38.46.034
12928;171211;34.84;029;03.38.46.034
12912;171206;34.84;030;03.38.46.045
12900;171203;34.84;031;03.38.46.045
12900;171197;34.84;032;03.38.46.045
12920;171201;34.84;033;03.38.46.056
12880;171191;34.84;034;03.38.46.056
12900;171193;34.84;035;03.38.46.056
12884;171187;34.84;036;03.38.46.056
12928;171188;34.84;037;03.38.46.056
12896;171190;34.84;038;03.38.46.067
12892;171190;34.84;039;03.38.46.067
12904;171187;34.84;040;03.38.46.067
12884;171181;34.84;041;03.38.46.067
12912;171185;34.84;042;03.38.46.067
12904;171178;34.84;043;03.38.46.067
12912;171191;34.84;044;03.38.46.067
12908;171180;34.84;045;03.38.46.067
12912;171187;34.84;046;03.38.46.067
12892;171184;34.84;047;03.38.46.067
12896;171183;34.84;048;03.38.46.067
12916;171181;34.84;049;03.38.46.067
12908;171179;34.84;050;03.38.46.154
12876;171180;34.84;051;03.38.46.165
12924;171186;34.84;052;03.38.46.165
12896;171176;34.84;053;03.38.46.165
12924;171181;34.84;054;03.38.46.165
12928;171187;34.84;055;03.38.46.165
12924;171183;34.84;056;03.38.46.165
12908;171190;34.84;057;03.38.46.165
12904;171182;34.84;058;03.38.46.165
12876;171178;34.84;059;03.38.46.165
12900;171184;34.84;060;03.38.46.165
12928;171177;34.84;061;03.38.46.165
12908;171182;34.84;062;03.38.46.165
12912;171184;34.84;063;03.38.46.165
12892;171186;34.84;064;03.38.46.176
12904;171178;34.84;065;03.38.46.176
12896;171182;34.84;066;03.38.46.176
12884;171182;34.84;067;03.38.46.176
12924;171183;34.84;068;03.38.46.176
12896;171177;34.84;069;03.38.46.176
12944;171172;34.84;070;03.38.46.176
12928;171168;34.84;071;03.38.46.176
12888;171183;34.84;072;03.38.46.176
12912;171180;34.84;073;03.38.46.176
12908;171181;34.84;074;03.38.46.176
12888;171176;34.80;075;03.38.46.341
12900;171175;34.80;076;03.38.46.341
12896;171182;34.80;077;03.38.46.341
12912;171176;34.80;078;03.38.46.341
12928;171177;34.80;079;03.38.46.341
12912;171177;34.80;080;03.38.46.341
12892;171181;34.80;081;03.38.46.341
12920;171183;34.80;082;03.38.46.341
12920;171181;34.80;083;03.38.46.341
12888;171176;34.80;084;03.38.46.352
12904;171180;34.80;085;03.38.46.352
12900;171184;34.80;086;03.38.46.352
12888;171167;34.80;087;03.38.46.352
12896;171177;34.80;088;03.38.46.352
12892;171180;34.80;089;03.38.46.352
12908;171185;34.80;090;03.38.46.352
12932;171180;34.80;091;03.38.46.352
12912;171178;34.80;092;03.38.46.352
12936;171177;34.80;093;03.38.46.352
12908;171184;34.80;094;03.38.46.352
12892;171181;34.80;095;03.38.46.352
12884;171180;34.80;096;03.38.46.363
12904;171190;34.80;097;03.38.46.363
12924;171184;34.80;098;03.38.46.363
12936;171186;34.80;099;03.38.46.363
12896;171199;34.80;100;03.38.46.440
12912;171204;34.80;101;03.38.46.440
12904;171196;34.80;102;03.38.46.440
12892;171195;34.80;103;03.38.46.440
12888;171201;34.80;104;03.38.46.440
12916;171194;34.80;105;03.38.46.440
12912;171192;34.80;106;03.38.46.451
12904;171193;34.80;107;03.38.46.451
12892;171194;34.80;108;03.38.46.451
12888;171202;34.80;109;03.38.46.451
12960;171198;34.80;110;03.38.46.451
12928;171200;34.80;111;03.38.46.451
12912;171199;34.80;112;03.38.46.451
12920;171194;34.80;113;03.38.46.451
12892;171203;34.80;114;03.38.46.451
12916;171198;34.80;115;03.38.46.462
12884;171196;34.80;116;03.38.46.462
12912;171198;34.80;117;03.38.46.472
12896;171196;34.80;118;03.38.46.472
12868;171191;34.80;119;03.38.46.472
12908;171203;34.80;120;03.38.46.472
12912;171200;34.80;121;03.38.46.472
12892;171200;34.80;122;03.38.46.483
12888;171212;34.80;123;03.38.46.483
12896;171199;34.80;124;03.38.46.483
12920;171202;34.84;125;03.38.46.527
12904;171215;34.84;126;03.38.46.527
12888;171205;34.84;127;03.38.46.527
12900;171213;34.84;128;03.38.46.538
12884;171216;34.84;129;03.38.46.538
12904;171218;34.84;130;03.38.46.538
12896;171225;34.84;131;03.38.46.538
12900;171221;34.84;132;03.38.46.538
12916;171222;34.84;133;03.38.46.538
12928;171224;34.84;134;03.38.46.538
12872;171236;34.84;135;03.38.46.538
12900;171229;34.84;136;03.38.46.538
12916;171242;34.84;137;03.38.46.538
12892;171233;34.84;138;03.38.46.538
12892;171235;34.84;139;03.38.46.538
12900;171241;34.84;140;03.38.46.538
12920;171238;34.84;141;03.38.46.549
12896;171240;34.84;142;03.38.46.549
12888;171246;34.84;143;03.38.46.549
12892;171246;34.84;144;03.38.46.549
12920;171239;34.84;145;03.38.46.549
12912;171246;34.84;146;03.38.46.549
12900;171245;34.84;147;03.38.46.549
12916;171242;34.84;148;03.38.46.549
12908;171238;34.84;149;03.38.46.549
12912;171243;34.84;150;03.38.46.670
12896;171245;34.84;151;03.38.46.670
12900;171247;34.84;152;03.38.46.670
12876;171247;34.84;153;03.38.46.670
12904;171248;34.84;154;03.38.46.670
12876;171244;34.84;155;03.38.46.670
12888;171257;34.84;156;03.38.46.670
12888;171258;34.84;157;03.38.46.670
12896;171265;34.84;158;03.38.46.681
12936;171262;34.84;159;03.38.46.681
12900;171260;34.84;160;03.38.46.681
12920;171266;34.84;161;03.38.46.681
12888;171272;34.84;162;03.38.46.681
12900;171265;34.84;163;03.38.46.681
12912;171267;34.84;164;03.38.46.681
12900;171274;34.84;165;03.38.46.681
12912;171273;34.84;166;03.38.46.681
12912;171279;34.84;167;03.38.46.703
12916;171274;34.84;168;03.38.46.703
12920;171282;34.84;169;03.38.46.703
12920;171277;34.84;170;03.38.46.703
12892;171278;34.84;171;03.38.46.703
12892;171282;34.84;172;03.38.46.703
12912;171284;34.84;173;03.38.46.703
12932;171286;34.84;174;03.38.46.703
12880;171282;34.80;175;03.38.46.790
12900;171289;34.80;176;03.38.46.790
12896;171279;34.80;177;03.38.46.790
12928;171284;34.80;178;03.38.46.790
12896;171288;34.80;179;03.38.46.790
12884;171282;34.80;180;03.38.46.790
12936;171282;34.80;181;03.38.46.801
12936;171291;34.80;182;03.38.46.801
12896;171277;34.80;183;03.38.46.801
12920;171280;34.80;184;03.38.46.801
12936;171274;34.80;185;03.38.46.801
12912;171260;34.80;186;03.38.46.801
12944;171258;34.80;187;03.38.46.801
12912;171262;34.80;188;03.38.46.801
12896;171247;34.80;189;03.38.46.801
12928;171246;34.80;190;03.38.46.801
12940;171246;34.80;191;03.38.46.801
12892;171234;34.80;192;03.38.46.801
12932;171231;34.80;193;03.38.46.801
12912;171232;34.80;194;03.38.46.812
12920;171225;34.80;195;03.38.46.812
12892;171223;34.80;196;03.38.46.812
12916;171218;34.80;197;03.38.46.812
12912;171206;34.80;198;03.38.46.812
12908;171212;34.80;199;03.38.46.812
12928;171207;34.80;200;03.38.46.921
12904;171213;34.80;201;03.38.46.921
12900;171198;34.80;202;03.38.46.932
12900;171198;34.80;203;03.38.46.932
12928;171200;34.80;204;03.38.46.932
12896;171195;34.80;205;03.38.46.932
12900;171193;34.80;206;03.38.46.932
12892;171194;34.80;207;03.38.46.932
12892;171195;34.80;208;03.38.46.932
12912;171201;34.80;209;03.38.46.932
12912;171192;34.80;210;03.38.46.932
12892;171185;34.80;211;03.38.46.932
12880;171191;34.80;212;03.38.46.932
12916;171186;34.80;213;03.38.46.932
12928;171191;34.80;214;03.38.46.932
12904;171186;34.80;215;03.38.46.943
12912;171194;34.80;216;03.38.46.943
12908;171188;34.80;217;03.38.46.943
12908;171187;34.80;218;03.38.46.943
12908;171184;34.80;219;03.38.46.943
12908;171183;34.80;220;03.38.46.943
12880;171177;34.80;221;03.38.46.943
12924;171183;34.80;222;03.38.46.943
12904;171187;34.80;223;03.38.46.943
12908;171178;34.80;224;03.38.46.943
12908;171182;34.80;225;03.38.47.042
12900;171188;34.80;226;03.38.47.042
12908;171191;34.80;227;03.38.47.042
12896;171183;34.80;228;03.38.47.042
12944;171181;34.80;229;03.38.47.042
12924;171186;34.80;230;03.38.47.042
12916;171184;34.80;231;03.38.47.042
12912;171183;34.80;232;03.38.47.042
12892;171186;34.80;233;03.38.47.064
12932;171182;34.80;234;03.38.47.064
12892;171186;34.80;235;03.38.47.064
12884;171187;34.80;236;03.38.47.064
12916;171193;34.80;237;03.38.47.064
12916;171189;34.80;238;03.38.47.064
12908;171185;34.80;239;03.38.47.064
12908;171188;34.80;240;03.38.47.064
12916;171190;34.80;241;03.38.47.064
12912;171188;34.80;242;03.38.47.064
12892;171191;34.80;243;03.38.47.064
12928;171188;34.80;244;03.38.47.064
12912;171183;34.80;245;03.38.47.075
12908;171195;34.80;246;03.38.47.075
12900;171189;34.80;247;03.38.47.075
12912;171187;34.80;248;03.38.47.075
12904;171188;34.80;249;03.38.47.075
12920;171185;34.80;250;03.38.47.162
12916;171195;34.80;251;03.38.47.162
12912;171196;34.80;252;03.38.47.162
12896;171192;34.80;253;03.38.47.162
12908;171178;34.80;254;03.38.47.162
12888;171190;34.80;255;03.38.47.162
12896;171188;34.80;256;03.38.47.162
12892;171189;34.80;257;03.38.47.162
12904;171194;34.80;258;03.38.47.173
12928;171193;34.80;259;03.38.47.173
12880;171193;34.80;260;03.38.47.173
12896;171187;34.80;261;03.38.47.173
12892;171195;34.80;262;03.38.47.173
12904;171187;34.80;263;03.38.47.173
12912;171202;34.80;264;03.38.47.173
12876;171192;34.80;265;03.38.47.173
12876;171192;34.80;266;03.38.47.173
12888;171195;34.80;267;03.38.47.195
12928;171197;34.80;268;03.38.47.195
12916;171204;34.80;269;03.38.47.195
12896;171195;34.80;270;03.38.47.195
12924;171199;34.80;271;03.38.47.195
12916;171193;34.80;272;03.38.47.195
12912;171199;34.80;273;03.38.47.195
12952;171194;34.80;274;03.38.47.195
12916;171196;34.84;275;03.38.47.282
12912;171196;34.84;276;03.38.47.282
12916;171193;34.84;277;03.38.47.282
12928;171207;34.84;278;03.38.47.282
12912;171206;34.84;279;03.38.47.293
12916;171204;34.84;280;03.38.47.293
12932;171209;34.84;281;03.38.47.293
12892;171212;34.84;282;03.38.47.293
12884;171213;34.84;283;03.38.47.293
12876;171214;34.84;284;03.38.47.293
12904;171205;34.84;285;03.38.47.293
12908;171208;34.84;286;03.38.47.293
12904;171215;34.84;287;03.38.47.304
12904;171215;34.84;288;03.38.47.304
12908;171212;34.84;289;03.38.47.304
12908;171213;34.84;290;03.38.47.304
12908;171212;34.84;291;03.38.47.304
12924;171217;34.84;292;03.38.47.304
12904;171218;34.84;293;03.38.47.304
12916;171221;34.84;294;03.38.47.304
12884;171218;34.84;295;03.38.47.304
12904;171220;34.84;296;03.38.47.304
12892;171218;34.84;297;03.38.47.304
12904;171214;34.84;298;03.38.47.304
12928;171223;34.84;299;03.38.47.304
12900;171225;34.84;300;03.38.47.425
12932;171225;34.84;301;03.38.47.425
12908;171235;34.84;302;03.38.47.425
12920;171226;34.84;303;03.38.47.425
12924;171226;34.84;304;03.38.47.425
12896;171222;34.84;305;03.38.47.425
12928;171229;34.84;306;03.38.47.425
12904;171227;34.84;307;03.38.47.425
12892;171223;34.84;308;03.38.47.425
12892;171226;34.84;309;03.38.47.425
12928;171231;34.84;310;03.38.47.425
12916;171235;34.84;311;03.38.47.425
12892;171238;34.84;312;03.38.47.425
12916;171236;34.84;313;03.38.47.435
12916;171229;34.84;314;03.38.47.435
12880;171240;34.84;315;03.38.47.435
12928;171242;34.84;316;03.38.47.435
12904;171242;34.84;317;03.38.47.435
12932;171245;34.84;318;03.38.47.435
12928;171243;34.84;319;03.38.47.435
12892;171250;34.84;320;03.38.47.435
12916;171247;34.84;321;03.38.47.435
12912;171250;34.84;322;03.38.47.435
12916;171247;34.84;323;03.38.47.435
12920;171247;34.84;324;03.38.47.446
12888;171247;34.80;325;03.38.47.534
12932;171249;34.80;326;03.38.47.534
12936;171257;34.80;327;03.38.47.534
12916;171260;34.80;328;03.38.47.534
12916;171252;34.80;329;03.38.47.534
12928;171253;34.80;330;03.38.47.534
12904;171263;34.80;331;03.38.47.534
12928;171247;34.80;332;03.38.47.534
12872;171254;34.80;333;03.38.47.567
12932;171265;34.80;334;03.38.47.567
12900;171266;34.80;335;03.38.47.567
12892;171259;34.80;336;03.38.47.567
12896;171261;34.80;337;03.38.47.567
12928;171268;34.80;338;03.38.47.567
12904;171266;34.80;339;03.38.47.567
12960;171264;34.80;340;03.38.47.578
12900;171260;34.80;341;03.38.47.578
12920;171257;34.80;342;03.38.47.578
12916;171260;34.80;343;03.38.47.578
12892;171257;34.80;344;03.38.47.578
12932;171246;34.80;345;03.38.47.578
12912;171240;34.80;346;03.38.47.578
12912;171241;34.80;347;03.38.47.578
12892;171232;34.80;348;03.38.47.578
12924;171226;34.80;349;03.38.47.578
12860;171227;34.80;350;03.38.47.655
12880;171209;34.80;351;03.38.47.655
12880;171212;34.80;352;03.38.47.655
12884;171205;34.80;353;03.38.47.655
12920;171202;34.80;354;03.38.47.655
12928;171188;34.80;355;03.38.47.665
12892;171200;34.80;356;03.38.47.665
12912;171190;34.80;357;03.38.47.665
12904;171196;34.80;358;03.38.47.665
12912;171192;34.80;359;03.38.47.665
12892;171186;34.80;360;03.38.47.665
12912;171186;34.80;361;03.38.47.665
12920;171178;34.80;362;03.38.47.665
12896;171182;34.80;363;03.38.47.665
12904;171181;34.80;364;03.38.47.665
12904;171181;34.80;365;03.38.47.665
12920;171180;34.80;366;03.38.47.665
12920;171173;34.80;367;03.38.47.665
12912;171176;34.80;368;03.38.47.676
12924;171183;34.80;369;03.38.47.676
12928;171172;34.80;370;03.38.47.676
12892;171174;34.80;371;03.38.47.676
12924;171173;34.80;372;03.38.47.676
12908;171183;34.80;373;03.38.47.676
12900;171170;34.80;374;03.38.47.676
12936;171184;34.84;375;03.38.47.775
12932;171170;34.84;376;03.38.47.786
12888;171171;34.84;377;03.38.47.786
12888;171166;34.84;378;03.38.47.786
12912;171171;34.84;379;03.38.47.786
12928;171166;34.84;380;03.38.47.786
12900;171175;34.84;381;03.38.47.786
12900;171172;34.84;382;03.38.47.786
12932;171169;34.84;383;03.38.47.786
12920;171172;34.84;384;03.38.47.786
12892;171176;34.84;385;03.38.47.786
12904;171173;34.84;386;03.38.47.786
12908;171176;34.84;387;03.38.47.786
12904;171183;34.84;388;03.38.47.786
12924;171178;34.84;389;03.38.47.786
12892;171177;34.84;390;03.38.47.797
12896;171177;34.84;391;03.38.47.797
12900;171175;34.84;392;03.38.47.797
12904;171180;34.84;393;03.38.47.797
12900;171178;34.84;394;03.38.47.797
12892;171184;34.84;395;03.38.47.797
12912;171181;34.84;396;03.38.47.797
12944;171180;34.84;397;03.38.47.797
12908;171178;34.84;398;03.38.47.797
12920;171180;34.84;399;03.38.47.797
12912;171190;34.84;400;03.38.47.918
12916;171173;34.84;401;03.38.47.918
12924;171193;34.84;402;03.38.47.918
12932;171187;34.84;403;03.38.47.918
12888;171190;34.84;404;03.38.47.918
12916;171189;34.84;405;03.38.47.918
12908;171189;34.84;406;03.38.47.918
12920;171183;34.84;407;03.38.47.918
12900;171187;34.84;408;03.38.47.929
12908;171180;34.84;409;03.38.47.929
12924;171181;34.84;410;03.38.47.929
12892;171181;34.84;411;03.38.47.929
12908;171177;34.84;412;03.38.47.929
12892;171175;34.84;413;03.38.47.929
12896;171177;34.84;414;03.38.47.929
12908;171182;34.84;415;03.38.47.929
12892;171188;34.84;416;03.38.47.929
12936;171181;34.84;417;03.38.47.929
12888;171184;34.84;418;03.38.47.929
12892;171197;34.84;419;03.38.47.929
12900;171187;34.84;420;03.38.47.940
12896;171190;34.84;421;03.38.47.940
12892;171183;34.84;422;03.38.47.940
12916;171192;34.84;423;03.38.47.940
12924;171184;34.84;424;03.38.47.940
12908;171183;34.80;425;03.38.48.049
12904;171186;34.80;426;03.38.48.049
12912;171190;34.80;427;03.38.48.049
12916;171184;34.80;428;03.38.48.049
12924;171191;34.80;429;03.38.48.049
12908;171196;34.80;430;03.38.48.049
12892;171194;34.80;431;03.38.48.049
12900;171202;34.80;432;03.38.48.060
12884;171193;34.80;433;03.38.48.060
12932;171197;34.80;434;03.38.48.060
12888;171199;34.80;435;03.38.48.060
12928;171202;34.80;436;03.38.48.060
12884;171201;34.80;437;03.38.48.060
12892;171195;34.80;438;03.38.48.060
12892;171198;34.80;439;03.38.48.060
12900;171198;34.80;440;03.38.48.060
12892;171192;34.80;441;03.38.48.060
12908;171201;34.80;442;03.38.48.060
12892;171198;34.80;443;03.38.48.060
12912;171201;34.80;444;03.38.48.060
12900;171207;34.80;445;03.38.48.071
12916;171217;34.80;446;03.38.48.071
12892;171212;34.80;447;03.38.48.071
12916;171206;34.80;448;03.38.48.071
12940;171209;34.80;449;03.38.48.071
12876;171208;34.80;450;03.38.48.159
12908;171215;34.80;451;03.38.48.159
12888;171219;34.80;452;03.38.48.159
12904;171221;34.80;453;03.38.48.159
12916;171221;34.80;454;03.38.48.170
12928;171228;34.80;455;03.38.48.170
12896;171233;34.80;456;03.38.48.170
