gsr; bvp; skt; skt2; Cont; time
12960;177030;34.40;753;03.10.49.037
12924;177034;34.40;754;03.10.49.037
12960;177029;34.40;755;03.10.49.037
12928;177036;34.40;756;03.10.49.037
12964;177027;34.40;757;03.10.49.037
12940;177036;34.40;758;03.10.49.037
12968;177032;34.40;759;03.10.49.037
12948;177036;34.40;760;03.10.49.050
12976;177038;34.40;761;03.10.49.050
12924;177041;34.40;762;03.10.49.050
12948;177038;34.40;763;03.10.49.050
12948;177034;34.40;764;03.10.49.050
12928;177037;34.40;765;03.10.49.050
12956;177037;34.40;766;03.10.49.050
12940;177039;34.40;767;03.10.49.073
12960;177031;34.40;768;03.10.49.073
12948;177035;34.40;769;03.10.49.073
12956;177029;34.40;770;03.10.49.073
12940;177037;34.40;771;03.10.49.073
12944;177028;34.40;772;03.10.49.073
12932;177036;34.40;773;03.10.49.079
12900;177029;34.40;774;03.10.49.079
12952;177023;34.44;775;03.10.49.156
12992;177027;34.44;776;03.10.49.156
12960;177024;34.44;777;03.10.49.156
12944;177030;34.44;778;03.10.49.156
12960;177032;34.44;779;03.10.49.156
12936;177030;34.44;780;03.10.49.156
12948;177031;34.44;781;03.10.49.156
12960;177032;34.44;782;03.10.49.156
12932;177026;34.44;783;03.10.49.156
12952;177037;34.44;784;03.10.49.156
12936;177030;34.44;785;03.10.49.167
12932;177041;34.44;786;03.10.49.167
12936;177033;34.44;787;03.10.49.167
12960;177028;34.44;788;03.10.49.167
12932;177029;34.44;789;03.10.49.167
12960;177030;34.44;790;03.10.49.167
12960;177025;34.44;791;03.10.49.167
12964;177028;34.44;792;03.10.49.167
12932;177027;34.44;793;03.10.49.167
12960;177030;34.44;794;03.10.49.167
12912;177036;34.44;795;03.10.49.167
12948;177023;34.44;796;03.10.49.167
12940;177032;34.44;797;03.10.49.177
12936;177035;34.44;798;03.10.49.177
12924;177036;34.44;799;03.10.49.177
12928;177031;34.44;800;03.10.49.276
12960;177036;34.44;801;03.10.49.276
12924;177037;34.44;802;03.10.49.276
12956;177042;34.44;803;03.10.49.276
12940;177052;34.44;804;03.10.49.276
12952;177051;34.44;805;03.10.49.276
12968;177043;34.44;806;03.10.49.287
12944;177042;34.44;807;03.10.49.287
12952;177043;34.44;808;03.10.49.287
12932;177045;34.44;809;03.10.49.287
12948;177060;34.44;810;03.10.49.287
12944;177056;34.44;811;03.10.49.287
12952;177060;34.44;812;03.10.49.287
12936;177059;34.44;813;03.10.49.287
12936;177061;34.44;814;03.10.49.287
12940;177047;34.44;815;03.10.49.287
12936;177059;34.44;816;03.10.49.287
12936;177061;34.44;817;03.10.49.287
12952;177062;34.44;818;03.10.49.287
12916;177059;34.44;819;03.10.49.298
12916;177057;34.44;820;03.10.49.298
12936;177056;34.44;821;03.10.49.298
12948;177058;34.44;822;03.10.49.298
12944;177066;34.44;823;03.10.49.298
12960;177061;34.44;824;03.10.49.298
12952;177061;34.44;825;03.10.49.407
12956;177056;34.44;826;03.10.49.407
12944;177048;34.44;827;03.10.49.417
12956;177049;34.44;828;03.10.49.417
12968;177048;34.44;829;03.10.49.417
12932;177058;34.44;830;03.10.49.417
12952;177053;34.44;831;03.10.49.417
12944;177042;34.44;832;03.10.49.417
12968;177047;34.44;833;03.10.49.417
12932;177045;34.44;834;03.10.49.417
12920;177042;34.44;835;03.10.49.417
12968;177045;34.44;836;03.10.49.417
12940;177042;34.44;837;03.10.49.417
12936;177034;34.44;838;03.10.49.417
12924;177046;34.44;839;03.10.49.428
12944;177044;34.44;840;03.10.49.428
12932;177034;34.44;841;03.10.49.428
12940;177039;34.44;842;03.10.49.428
12960;177032;34.44;843;03.10.49.428
12960;177038;34.44;844;03.10.49.428
12952;177032;34.44;845;03.10.49.428
12960;177036;34.44;846;03.10.49.428
12944;177034;34.44;847;03.10.49.428
12932;177040;34.44;848;03.10.49.428
12956;177034;34.44;849;03.10.49.428
12932;177038;34.44;850;03.10.49.526
12924;177035;34.44;851;03.10.49.526
12960;177034;34.44;852;03.10.49.526
12960;177024;34.44;853;03.10.49.526
12948;177037;34.44;854;03.10.49.526
12968;177030;34.44;855;03.10.49.526
12948;177037;34.44;856;03.10.49.526
12916;177035;34.44;857;03.10.49.526
12960;177038;34.44;858;03.10.49.537
12924;177034;34.44;859;03.10.49.537
12948;177024;34.44;860;03.10.49.537
12916;177038;34.44;861;03.10.49.537
12964;177035;34.44;862;03.10.49.537
12976;177032;34.44;863;03.10.49.537
12964;177044;34.44;864;03.10.49.537
12944;177041;34.44;865;03.10.49.537
12960;177039;34.44;866;03.10.49.537
12932;177035;34.44;867;03.10.49.548
12936;177024;34.44;868;03.10.49.548
12936;177034;34.44;869;03.10.49.548
12932;177038;34.44;870;03.10.49.548
12968;177043;34.44;871;03.10.49.548
12924;177027;34.44;872;03.10.49.548
12932;177039;34.44;873;03.10.49.548
12960;177047;34.44;874;03.10.49.548
12952;177041;34.44;875;03.10.49.680
12928;177044;34.44;876;03.10.49.680
12916;177041;34.44;877;03.10.49.680
12952;177043;34.44;878;03.10.49.680
12944;177035;34.44;879;03.10.49.691
12968;177042;34.44;880;03.10.49.691
12924;177040;34.44;881;03.10.49.691
12952;177032;34.44;882;03.10.49.691
12960;177038;34.44;883;03.10.49.691
12956;177037;34.44;884;03.10.49.691
12944;177041;34.44;885;03.10.49.691
12944;177034;34.44;886;03.10.49.691
12964;177037;34.44;887;03.10.49.691
12940;177038;34.44;888;03.10.49.691
12948;177035;34.44;889;03.10.49.691
12960;177033;34.44;890;03.10.49.691
12940;177041;34.44;891;03.10.49.691
12944;177027;34.44;892;03.10.49.702
12936;177036;34.44;893;03.10.49.702
12948;177028;34.44;894;03.10.49.702
12916;177033;34.44;895;03.10.49.702
12928;177035;34.44;896;03.10.49.703
12952;177031;34.44;897;03.10.49.703
12992;177037;34.44;898;03.10.49.713
12940;177034;34.44;899;03.10.49.713
12956;177035;34.44;900;03.10.49.768
12920;177032;34.44;901;03.10.49.768
12940;177040;34.44;902;03.10.49.779
12936;177038;34.44;903;03.10.49.779
12936;177040;34.44;904;03.10.49.779
12952;177040;34.44;905;03.10.49.779
12944;177049;34.44;906;03.10.49.779
12924;177052;34.44;907;03.10.49.779
12948;177041;34.44;908;03.10.49.779
12948;177045;34.44;909;03.10.49.779
12960;177044;34.44;910;03.10.49.779
12956;177047;34.44;911;03.10.49.790
12948;177049;34.44;912;03.10.49.790
12964;177065;34.44;913;03.10.49.790
12924;177057;34.44;914;03.10.49.790
12956;177053;34.44;915;03.10.49.790
12956;177056;34.44;916;03.10.49.790
12908;177053;34.44;917;03.10.49.790
12924;177055;34.44;918;03.10.49.790
12956;177073;34.44;919;03.10.49.790
12968;177055;34.44;920;03.10.49.790
12964;177060;34.44;921;03.10.49.790
12932;177056;34.44;922;03.10.49.790
12908;177067;34.44;923;03.10.49.790
12972;177066;34.44;924;03.10.49.801
12964;177058;34.44;925;03.10.49.911
12964;177054;34.44;926;03.10.49.911
12948;177060;34.44;927;03.10.49.911
12956;177055;34.44;928;03.10.49.911
12928;177053;34.44;929;03.10.49.911
12944;177062;34.44;930;03.10.49.911
12940;177053;34.44;931;03.10.49.911
12984;177051;34.44;932;03.10.49.911
12952;177064;34.44;933;03.10.49.911
12944;177053;34.44;934;03.10.49.911
12944;177057;34.44;935;03.10.49.911
12956;177058;34.44;936;03.10.49.922
12948;177056;34.44;937;03.10.49.922
12960;177054;34.44;938;03.10.49.922
12932;177058;34.44;939;03.10.49.922
12940;177053;34.44;940;03.10.49.922
12944;177060;34.44;941;03.10.49.922
12992;177058;34.44;942;03.10.49.933
12960;177063;34.44;943;03.10.49.933
12960;177060;34.44;944;03.10.49.933
12956;177060;34.44;945;03.10.49.933
12960;177065;34.44;946;03.10.49.933
12952;177070;34.44;947;03.10.49.933
12952;177066;34.44;948;03.10.49.933
12952;177079;34.44;949;03.10.49.933
12964;177059;34.44;950;03.10.50.043
12960;177062;34.44;951;03.10.50.043
12936;177061;34.44;952;03.10.50.043
12960;177069;34.44;953;03.10.50.043
12948;177079;34.44;954;03.10.50.043
12932;177088;34.44;955;03.10.50.043
12940;177087;34.44;956;03.10.50.043
12964;177088;34.44;957;03.10.50.043
12944;177102;34.44;958;03.10.50.054
12924;177093;34.44;959;03.10.50.054
12944;177093;34.44;960;03.10.50.054
12952;177107;34.44;961;03.10.50.054
12948;177107;34.44;962;03.10.50.054
12952;177103;34.44;963;03.10.50.054
12976;177112;34.44;964;03.10.50.054
12928;177113;34.44;965;03.10.50.054
12948;177106;34.44;966;03.10.50.054
12964;177108;34.44;967;03.10.50.054
12932;177110;34.44;968;03.10.50.054
12956;177111;34.44;969;03.10.50.054
12944;177120;34.44;970;03.10.50.054
12960;177121;34.44;971;03.10.50.065
12968;177124;34.44;972;03.10.50.065
12952;177130;34.44;973;03.10.50.065
12964;177138;34.44;974;03.10.50.065
12948;177131;34.44;975;03.10.50.152
12948;177137;34.44;976;03.10.50.152
12944;177130;34.44;977;03.10.50.152
12964;177126;34.44;978;03.10.50.152
12940;177132;34.44;979;03.10.50.152
12944;177140;34.44;980;03.10.50.163
12920;177146;34.44;981;03.10.50.163
12948;177134;34.44;982;03.10.50.163
12932;177153;34.44;983;03.10.50.163
12932;177161;34.44;984;03.10.50.163
12944;177148;34.44;985;03.10.50.163
12952;177155;34.44;986;03.10.50.163
12924;177157;34.44;987;03.10.50.163
12968;177160;34.44;988;03.10.50.163
12924;177156;34.44;989;03.10.50.174
12928;177154;34.44;990;03.10.50.174
12960;177161;34.44;991;03.10.50.174
12960;177159;34.44;992;03.10.50.174
12948;177156;34.44;993;03.10.50.174
12956;177159;34.44;994;03.10.50.174
12956;177162;34.44;995;03.10.50.174
12960;177163;34.44;996;03.10.50.174
12960;177167;34.44;997;03.10.50.185
12944;177170;34.44;998;03.10.50.185
12968;177171;34.44;999;03.10.50.185
12968;177168;34.44;000;03.10.50.273
12948;177166;34.44;001;03.10.50.284
12960;177165;34.44;002;03.10.50.284
12940;177158;34.44;003;03.10.50.284
12944;177163;34.44;004;03.10.50.284
12948;177166;34.44;005;03.10.50.284
12960;177157;34.44;006;03.10.50.284
12948;177164;34.44;007;03.10.50.284
12956;177170;34.44;008;03.10.50.284
12940;177173;34.44;009;03.10.50.284
12972;177174;34.44;010;03.10.50.284
12960;177170;34.44;011;03.10.50.284
12928;177172;34.44;012;03.10.50.284
12944;177172;34.44;013;03.10.50.284
12952;177173;34.44;014;03.10.50.295
12952;177162;34.44;015;03.10.50.295
12948;177176;34.44;016;03.10.50.295
12948;177168;34.44;017;03.10.50.306
12924;177171;34.44;018;03.10.50.317
12960;177163;34.44;019;03.10.50.317
12944;177171;34.44;020;03.10.50.317
12952;177165;34.44;021;03.10.50.317
12936;177173;34.44;022;03.10.50.317
12928;177172;34.44;023;03.10.50.317
12956;177166;34.44;024;03.10.50.317
12944;177170;34.44;025;03.10.50.405
12964;177174;34.44;026;03.10.50.405
12968;177167;34.44;027;03.10.50.405
12940;177175;34.44;028;03.10.50.405
12928;177164;34.44;029;03.10.50.405
12960;177177;34.44;030;03.10.50.405
12944;177180;34.44;031;03.10.50.405
12964;177178;34.44;032;03.10.50.405
12968;177175;34.44;033;03.10.50.405
12948;177185;34.44;034;03.10.50.405
12948;177175;34.44;035;03.10.50.416
12924;177172;34.44;036;03.10.50.416
12920;177164;34.44;037;03.10.50.416
12960;177182;34.44;038;03.10.50.416
12948;177176;34.44;039;03.10.50.416
12936;177167;34.44;040;03.10.50.416
12940;177162;34.44;041;03.10.50.416
12952;177163;34.44;042;03.10.50.416
12960;177168;34.44;043;03.10.50.416
12960;177162;34.44;044;03.10.50.416
12960;177158;34.44;045;03.10.50.416
12956;177152;34.44;046;03.10.50.416
12940;177150;34.44;047;03.10.50.416
12944;177154;34.44;048;03.10.50.427
12932;177159;34.44;049;03.10.50.427
12928;177149;34.44;050;03.10.50.536
12956;177148;34.44;051;03.10.50.536
12932;177147;34.44;052;03.10.50.536
12956;177145;34.44;053;03.10.50.536
12932;177142;34.44;054;03.10.50.536
12916;177131;34.44;055;03.10.50.536
12932;177134;34.44;056;03.10.50.547
12956;177133;34.44;057;03.10.50.547
12932;177139;34.44;058;03.10.50.547
12936;177139;34.44;059;03.10.50.547
12940;177137;34.44;060;03.10.50.547
12936;177142;34.44;061;03.10.50.547
12972;177134;34.44;062;03.10.50.547
12944;177134;34.44;063;03.10.50.547
12960;177132;34.44;064;03.10.50.547
12960;177122;34.44;065;03.10.50.547
12944;177126;34.44;066;03.10.50.547
12944;177120;34.44;067;03.10.50.547
12940;177120;34.44;068;03.10.50.547
12948;177119;34.44;069;03.10.50.558
12968;177126;34.44;070;03.10.50.558
12960;177127;34.44;071;03.10.50.558
12944;177117;34.44;072;03.10.50.558
12944;177124;34.44;073;03.10.50.558
12992;177119;34.44;074;03.10.50.558
12952;177128;34.44;075;03.10.50.646
12960;177118;34.44;076;03.10.50.646
12960;177120;34.44;077;03.10.50.656
12952;177128;34.44;078;03.10.50.656
12940;177120;34.44;079;03.10.50.656
12928;177128;34.44;080;03.10.50.656
12944;177125;34.44;081;03.10.50.656
12944;177126;34.44;082;03.10.50.656
12964;177123;34.44;083;03.10.50.656
12936;177124;34.44;084;03.10.50.656
12960;177133;34.44;085;03.10.50.667
12956;177133;34.44;086;03.10.50.667
12968;177129;34.44;087;03.10.50.667
12944;177130;34.44;088;03.10.50.667
12952;177133;34.44;089;03.10.50.667
12932;177136;34.44;090;03.10.50.667
12940;177139;34.44;091;03.10.50.667
12928;177139;34.44;092;03.10.50.667
12964;177133;34.44;093;03.10.50.667
12968;177139;34.44;094;03.10.50.667
12968;177138;34.44;095;03.10.50.667
12960;177136;34.44;096;03.10.50.667
12964;177137;34.44;097;03.10.50.678
12964;177144;34.44;098;03.10.50.678
12964;177149;34.44;099;03.10.50.678
12952;177148;34.44;100;03.10.50.788
12940;177136;34.44;101;03.10.50.788
12952;177142;34.44;102;03.10.50.788
12972;177142;34.44;103;03.10.50.788
12932;177145;34.44;104;03.10.50.788
12940;177138;34.44;105;03.10.50.788
12944;177143;34.44;106;03.10.50.788
12984;177147;34.44;107;03.10.50.788
12964;177152;34.44;108;03.10.50.821
12956;177147;34.44;109;03.10.50.821
12976;177149;34.44;110;03.10.50.821
12944;177155;34.44;111;03.10.50.821
12944;177157;34.44;112;03.10.50.821
12952;177154;34.44;113;03.10.50.821
12956;177161;34.44;114;03.10.50.821
12948;177157;34.44;115;03.10.50.821
12964;177157;34.44;116;03.10.50.821
12956;177152;34.44;117;03.10.50.832
12936;177153;34.44;118;03.10.50.832
12960;177160;34.44;119;03.10.50.832
12948;177150;34.44;120;03.10.50.832
12964;177154;34.44;121;03.10.50.832
12952;177153;34.44;122;03.10.50.832
12984;177146;34.44;123;03.10.50.832
12988;177159;34.44;124;03.10.50.832
12932;177151;34.40;125;03.10.50.909
12936;177154;34.40;126;03.10.50.909
12928;177153;34.40;127;03.10.50.909
12940;177154;34.40;128;03.10.50.909
12968;177140;34.40;129;03.10.50.909
12992;177168;34.40;130;03.10.50.909
12936;177165;34.40;131;03.10.50.909
12960;177161;34.40;132;03.10.50.909
12944;177165;34.40;133;03.10.50.920
12968;177174;34.40;134;03.10.50.920
12960;177185;34.40;135;03.10.50.920
12944;177182;34.40;136;03.10.50.920
12928;177183;34.40;137;03.10.50.920
12932;177189;34.40;138;03.10.50.920
12956;177192;34.40;139;03.10.50.920
12960;177199;34.40;140;03.10.50.920
12976;177204;34.40;141;03.10.50.920
12976;177214;34.40;142;03.10.50.920
12960;177213;34.40;143;03.10.50.920
12956;177219;34.40;144;03.10.50.920
12952;177224;34.40;145;03.10.50.920
12936;177241;34.40;146;03.10.50.931
12952;177234;34.40;147;03.10.50.931
12944;177230;34.40;148;03.10.50.931
12964;177246;34.40;149;03.10.50.931
12972;177245;34.40;150;03.10.51.040
12960;177257;34.40;151;03.10.51.040
12936;177268;34.40;152;03.10.51.040
12960;177273;34.40;153;03.10.51.040
12964;177280;34.40;154;03.10.51.051
12940;177284;34.40;155;03.10.51.051
12944;177284;34.40;156;03.10.51.051
12976;177295;34.40;157;03.10.51.051
12984;177297;34.40;158;03.10.51.051
12964;177299;34.40;159;03.10.51.051
12940;177304;34.40;160;03.10.51.051
12940;177310;34.40;161;03.10.51.051
12976;177317;34.40;162;03.10.51.051
12932;177319;34.40;163;03.10.51.051
12956;177323;34.40;164;03.10.51.051
12948;177338;34.40;165;03.10.51.051
12916;177333;34.40;166;03.10.51.051
12940;177330;34.40;167;03.10.51.062
12948;177348;34.40;168;03.10.51.062
12944;177340;34.40;169;03.10.51.062
12940;177352;34.40;170;03.10.51.062
12960;177341;34.40;171;03.10.51.062
12960;177346;34.40;172;03.10.51.062
12960;177355;34.40;173;03.10.51.062
12984;177345;34.40;174;03.10.51.062
12960;177344;34.44;175;03.10.51.183
12960;177345;34.44;176;03.10.51.183
12964;177351;34.44;177;03.10.51.183
12968;177349;34.44;178;03.10.51.183
12944;177350;34.44;179;03.10.51.183
12948;177351;34.44;180;03.10.51.183
12956;177345;34.44;181;03.10.51.183
12968;177351;34.44;182;03.10.51.183
12936;177339;34.44;183;03.10.51.183
12944;177348;34.44;184;03.10.51.183
12924;177344;34.44;185;03.10.51.183
12960;177342;34.44;186;03.10.51.183
12968;177350;34.44;187;03.10.51.183
12972;177341;34.44;188;03.10.51.194
12944;177343;34.44;189;03.10.51.194
12952;177334;34.44;190;03.10.51.194
12968;177329;34.44;191;03.10.51.194
12960;177327;34.44;192;03.10.51.194
12940;177319;34.44;193;03.10.51.194
12960;177330;34.44;194;03.10.51.194
12968;177325;34.44;195;03.10.51.194
12948;177322;34.44;196;03.10.51.194
12916;177314;34.44;197;03.10.51.194
12956;177315;34.44;198;03.10.51.194
12924;177316;34.44;199;03.10.51.194
12948;177322;34.44;200;03.10.51.282
12936;177305;34.44;201;03.10.51.282
12960;177311;34.44;202;03.10.51.282
12932;177300;34.44;203;03.10.51.282
12944;177299;34.44;204;03.10.51.282
12944;177309;34.44;205;03.10.51.282
12948;177298;34.44;206;03.10.51.282
12960;177308;34.44;207;03.10.51.282
12960;177305;34.44;208;03.10.51.293
12980;177307;34.44;209;03.10.51.293
12948;177309;34.44;210;03.10.51.293
12976;177305;34.44;211;03.10.51.293
12948;177292;34.44;212;03.10.51.293
12964;177298;34.44;213;03.10.51.293
12924;177288;34.44;214;03.10.51.293
12956;177310;34.44;215;03.10.51.293
12924;177305;34.44;216;03.10.51.293
12948;177305;34.44;217;03.10.51.315
12972;177306;34.44;218;03.10.51.315
12920;177294;34.44;219;03.10.51.315
12960;177300;34.44;220;03.10.51.315
12924;177297;34.44;221;03.10.51.315
12968;177301;34.44;222;03.10.51.315
12940;177300;34.44;223;03.10.51.315
12964;177302;34.44;224;03.10.51.315
12956;177308;34.36;225;03.10.51.401
12952;177300;34.36;226;03.10.51.401
12968;177299;34.36;227;03.10.51.401
12944;177297;34.36;228;03.10.51.401
12960;177297;34.36;229;03.10.51.401
12960;177298;34.36;230;03.10.51.412
12960;177304;34.36;231;03.10.51.412
12964;177304;34.36;232;03.10.51.412
12976;177301;34.36;233;03.10.51.412
12956;177301;34.36;234;03.10.51.412
12944;177299;34.36;235;03.10.51.412
12952;177305;34.36;236;03.10.51.412
12932;177303;34.36;237;03.10.51.412
12936;177307;34.36;238;03.10.51.412
12960;177310;34.36;239;03.10.51.423
12960;177305;34.36;240;03.10.51.423
12952;177298;34.36;241;03.10.51.423
12956;177305;34.36;242;03.10.51.423
12956;177310;34.36;243;03.10.51.423
12976;177308;34.36;244;03.10.51.423
12948;177315;34.36;245;03.10.51.423
12932;177306;34.36;246;03.10.51.434
12952;177307;34.36;247;03.10.51.434
12948;177309;34.36;248;03.10.51.434
12948;177311;34.36;249;03.10.51.434
12932;177306;34.36;250;03.10.51.533
12972;177302;34.36;251;03.10.51.544
12976;177305;34.36;252;03.10.51.544
12952;177313;34.36;253;03.10.51.544
12952;177303;34.36;254;03.10.51.544
12940;177301;34.36;255;03.10.51.544
12932;177303;34.36;256;03.10.51.544
12916;177297;34.36;257;03.10.51.544
12956;177301;34.36;258;03.10.51.544
12960;177307;34.36;259;03.10.51.544
12972;177309;34.36;260;03.10.51.555
12956;177306;34.36;261;03.10.51.555
12952;177310;34.36;262;03.10.51.555
12944;177293;34.36;263;03.10.51.555
12980;177301;34.36;264;03.10.51.555
12944;177293;34.36;265;03.10.51.555
12964;177294;34.36;266;03.10.51.555
12964;177292;34.36;267;03.10.51.555
12956;177288;34.36;268;03.10.51.566
12960;177288;34.36;269;03.10.51.566
12948;177295;34.36;270;03.10.51.566
12992;177277;34.36;271;03.10.51.566
12964;177284;34.36;272;03.10.51.566
12960;177277;34.36;273;03.10.51.566
12932;177278;34.36;274;03.10.51.566
12940;177269;34.44;275;03.10.51.676
12940;177269;34.44;276;03.10.51.676
12944;177267;34.44;277;03.10.51.676
12964;177262;34.44;278;03.10.51.676
12968;177261;34.44;279;03.10.51.676
12936;177258;34.44;280;03.10.51.676
12952;177255;34.44;281;03.10.51.676
12952;177246;34.44;282;03.10.51.676
12948;177251;34.44;283;03.10.51.687
12936;177245;34.44;284;03.10.51.687
12972;177240;34.44;285;03.10.51.687
12924;177240;34.44;286;03.10.51.687
12952;177238;34.44;287;03.10.51.687
12960;177223;34.44;288;03.10.51.687
12928;177226;34.44;289;03.10.51.687
12944;177223;34.44;290;03.10.51.687
12948;177213;34.44;291;03.10.51.687
12956;177209;34.44;292;03.10.51.687
12944;177209;34.44;293;03.10.51.687
12944;177201;34.44;294;03.10.51.688
12952;177185;34.44;295;03.10.51.699
12960;177180;34.44;296;03.10.51.699
12952;177176;34.44;297;03.10.51.699
12952;177167;34.44;298;03.10.51.699
12956;177167;34.44;299;03.10.51.699
12944;177160;34.44;300;03.10.51.775
12944;177154;34.44;301;03.10.51.775
12924;177151;34.44;302;03.10.51.775
12960;177155;34.44;303;03.10.51.775
12956;177136;34.44;304;03.10.51.775
12980;177141;34.44;305;03.10.51.775
12944;177131;34.44;306;03.10.51.775
12944;177131;34.44;307;03.10.51.775
12940;177132;34.44;308;03.10.51.786
12928;177139;34.44;309;03.10.51.786
12924;177133;34.44;310;03.10.51.786
12940;177133;34.44;311;03.10.51.786
12968;177130;34.44;312;03.10.51.786
12924;177135;34.44;313;03.10.51.786
12932;177138;34.44;314;03.10.51.786
12940;177151;34.44;315;03.10.51.786
12940;177141;34.44;316;03.10.51.786
12948;177142;34.44;317;03.10.51.808
12948;177152;34.44;318;03.10.51.808
12948;177152;34.44;319;03.10.51.808
12908;177160;34.44;320;03.10.51.808
12956;177166;34.44;321;03.10.51.808
12952;177178;34.44;322;03.10.51.808
12932;177171;34.44;323;03.10.51.808
12956;177177;34.44;324;03.10.51.808
12976;177183;34.44;325;03.10.51.907
12952;177189;34.44;326;03.10.51.907
12936;177204;34.44;327;03.10.51.907
12924;177206;34.44;328;03.10.51.907
12968;177220;34.44;329;03.10.51.918
12960;177231;34.44;330;03.10.51.918
12952;177238;34.44;331;03.10.51.918
12944;177250;34.44;332;03.10.51.918
12948;177272;34.44;333;03.10.51.918
12940;177266;34.44;334;03.10.51.918
12948;177284;34.44;335;03.10.51.918
12952;177295;34.44;336;03.10.51.918
12956;177304;34.44;337;03.10.51.918
12940;177312;34.44;338;03.10.51.918
12976;177318;34.44;339;03.10.51.918
12960;177324;34.44;340;03.10.51.918
12940;177335;34.44;341;03.10.51.918
12932;177338;34.44;342;03.10.51.940
12932;177341;34.44;343;03.10.51.940
12952;177345;34.44;344;03.10.51.940
12956;177358;34.44;345;03.10.51.940
12940;177355;34.44;346;03.10.51.940
12940;177368;34.44;347;03.10.51.951
12948;177364;34.44;348;03.10.51.951
12992;177369;34.44;349;03.10.51.951
12984;177360;34.44;350;03.10.52.028
12932;177369;34.44;351;03.10.52.039
12952;177375;34.44;352;03.10.52.039
12952;177367;34.44;353;03.10.52.039
12944;177375;34.44;354;03.10.52.039
12952;177369;34.44;355;03.10.52.039
12960;177369;34.44;356;03.10.52.039
12960;177362;34.44;357;03.10.52.039
12936;177371;34.44;358;03.10.52.039
12944;177365;34.44;359;03.10.52.039
12948;177358;34.44;360;03.10.52.039
12956;177343;34.44;361;03.10.52.039
12968;177347;34.44;362;03.10.52.039
12972;177347;34.44;363;03.10.52.039
12928;177339;34.44;364;03.10.52.050
12960;177326;34.44;365;03.10.52.050
12936;177323;34.44;366;03.10.52.050
12940;177314;34.44;367;03.10.52.050
12956;177302;34.44;368;03.10.52.050
12968;177303;34.44;369;03.10.52.050
12960;177295;34.44;370;03.10.52.050
12960;177283;34.44;371;03.10.52.050
12944;177274;34.44;372;03.10.52.050
12932;177261;34.44;373;03.10.52.050
12940;177256;34.44;374;03.10.52.050
12936;177245;34.40;375;03.10.52.170
12948;177248;34.40;376;03.10.52.170
12960;177244;34.40;377;03.10.52.170
12952;177215;34.40;378;03.10.52.170
12924;177230;34.40;379;03.10.52.170
12932;177221;34.40;380;03.10.52.170
12932;177215;34.40;381;03.10.52.170
12920;177207;34.40;382;03.10.52.170
12940;177198;34.40;383;03.10.52.192
12940;177189;34.40;384;03.10.52.192
12960;177184;34.40;385;03.10.52.192
12956;177184;34.40;386;03.10.52.192
12968;177184;34.40;387;03.10.52.192
12960;177183;34.40;388;03.10.52.192
12952;177172;34.40;389;03.10.52.192
12948;177174;34.40;390;03.10.52.192
12976;177176;34.40;391;03.10.52.192
12964;177170;34.40;392;03.10.52.214
12960;177159;34.40;393;03.10.52.214
12936;177173;34.40;394;03.10.52.214
12964;177170;34.40;395;03.10.52.214
12964;177174;34.40;396;03.10.52.214
12960;177178;34.40;397;03.10.52.214
12968;177176;34.40;398;03.10.52.214
12936;177179;34.40;399;03.10.52.214
12980;177181;34.40;400;03.10.52.302
12924;177179;34.40;401;03.10.52.302
12932;177186;34.40;402;03.10.52.302
12964;177180;34.40;403;03.10.52.302
12944;177181;34.40;404;03.10.52.302
12940;177184;34.40;405;03.10.52.302
12956;177187;34.40;406;03.10.52.313
12932;177184;34.40;407;03.10.52.313
12940;177190;34.40;408;03.10.52.313
12964;177193;34.40;409;03.10.52.313
12964;177198;34.40;410;03.10.52.313
12924;177197;34.40;411;03.10.52.313
12968;177194;34.40;412;03.10.52.313
12952;177196;34.40;413;03.10.52.313
12952;177202;34.40;414;03.10.52.313
12952;177215;34.40;415;03.10.52.324
12968;177212;34.40;416;03.10.52.324
12964;177214;34.40;417;03.10.52.324
12956;177214;34.40;418;03.10.52.324
12952;177206;34.40;419;03.10.52.324
12980;177210;34.40;420;03.10.52.324
12960;177207;34.40;421;03.10.52.324
12944;177213;34.40;422;03.10.52.324
12956;177211;34.40;423;03.10.52.324
12964;177203;34.40;424;03.10.52.324
12936;177214;34.44;425;03.10.52.411
12992;177217;34.44;426;03.10.52.411
12948;177219;34.44;427;03.10.52.411
12924;177218;34.44;428;03.10.52.411
12940;177224;34.44;429;03.10.52.411
12944;177217;34.44;430;03.10.52.411
12948;177223;34.44;431;03.10.52.411
12940;177218;34.44;432;03.10.52.411
12960;177228;34.44;433;03.10.52.411
12964;177221;34.44;434;03.10.52.411
12964;177225;34.44;435;03.10.52.411
12960;177220;34.44;436;03.10.52.422
12940;177227;34.44;437;03.10.52.422
12952;177225;34.44;438;03.10.52.422
12956;177230;34.44;439;03.10.52.422
12952;177209;34.44;440;03.10.52.422
12940;177220;34.44;441;03.10.52.422
12976;177214;34.44;442;03.10.52.433
12952;177212;34.44;443;03.10.52.433
12960;177209;34.44;444;03.10.52.444
12952;177217;34.44;445;03.10.52.444
12968;177213;34.44;446;03.10.52.444
12960;177212;34.44;447;03.10.52.444
12944;177217;34.44;448;03.10.52.444
12972;177207;34.44;449;03.10.52.444
12936;177218;34.44;450;03.10.52.531
12960;177212;34.44;451;03.10.52.531
12952;177215;34.44;452;03.10.52.531
12952;177209;34.44;453;03.10.52.531
12952;177208;34.44;454;03.10.52.531
12972;177208;34.44;455;03.10.52.531
12956;177211;34.44;456;03.10.52.531
12960;177205;34.44;457;03.10.52.531
12968;177205;34.44;458;03.10.52.542
12952;177204;34.44;459;03.10.52.542
12940;177209;34.44;460;03.10.52.542
12960;177197;34.44;461;03.10.52.542
12932;177206;34.44;462;03.10.52.542
12956;177209;34.44;463;03.10.52.542
12960;177202;34.44;464;03.10.52.542
12956;177209;34.44;465;03.10.52.542
12948;177204;34.44;466;03.10.52.542
12960;177219;34.44;467;03.10.52.542
12948;177213;34.44;468;03.10.52.542
12944;177212;34.44;469;03.10.52.553
12964;177216;34.44;470;03.10.52.553
12960;177219;34.44;471;03.10.52.553
12952;177220;34.44;472;03.10.52.553
12932;177218;34.44;473;03.10.52.553
12964;177221;34.44;474;03.10.52.553
12956;177229;34.44;475;03.10.52.662
12948;177213;34.44;476;03.10.52.662
12944;177216;34.44;477;03.10.52.662
12956;177212;34.44;478;03.10.52.662
12952;177209;34.44;479;03.10.52.662
12968;177211;34.44;480;03.10.52.662
12952;177211;34.44;481;03.10.52.673
12960;177211;34.44;482;03.10.52.673
12968;177214;34.44;483;03.10.52.673
12940;177208;34.44;484;03.10.52.673
12952;177201;34.44;485;03.10.52.673
12960;177216;34.44;486;03.10.52.673
12924;177211;34.44;487;03.10.52.673
12936;177219;34.44;488;03.10.52.673
12952;177201;34.44;489;03.10.52.673
12964;177207;34.44;490;03.10.52.673
12952;177213;34.44;491;03.10.52.673
12960;177206;34.44;492;03.10.52.673
12936;177211;34.44;493;03.10.52.673
12936;177214;34.44;494;03.10.52.684
12968;177218;34.44;495;03.10.52.684
12956;177222;34.44;496;03.10.52.684
12948;177213;34.44;497;03.10.52.684
12940;177212;34.44;498;03.10.52.684
12992;177217;34.44;499;03.10.52.684
12956;177210;34.44;500;03.10.52.772
12948;177214;34.44;501;03.10.52.772
12952;177209;34.44;502;03.10.52.772
12956;177216;34.44;503;03.10.52.783
12936;177215;34.44;504;03.10.52.783
12968;177214;34.44;505;03.10.52.783
12992;177216;34.44;506;03.10.52.783
12948;177220;34.44;507;03.10.52.783
12956;177208;34.44;508;03.10.52.794
12960;177204;34.44;509;03.10.52.794
12960;177204;34.44;510;03.10.52.794
12932;177221;34.44;511;03.10.52.805
12956;177213;34.44;512;03.10.52.805
12960;177218;34.44;513;03.10.52.805
12952;177215;34.44;514;03.10.52.805
12972;177214;34.44;515;03.10.52.805
12964;177210;34.44;516;03.10.52.805
12944;177218;34.44;517;03.10.52.805
12944;177209;34.44;518;03.10.52.805
12976;177209;34.44;519;03.10.52.805
12952;177218;34.44;520;03.10.52.805
12944;177216;34.44;521;03.10.52.805
12948;177216;34.44;522;03.10.52.805
12956;177219;34.44;523;03.10.52.805
12956;177218;34.44;524;03.10.52.816
12944;177218;34.44;525;03.10.52.904
12960;177215;34.44;526;03.10.52.904
12948;177222;34.44;527;03.10.52.904
12948;177223;34.44;528;03.10.52.904
12968;177222;34.44;529;03.10.52.904
12948;177231;34.44;530;03.10.52.904
12932;177226;34.44;531;03.10.52.904
12960;177226;34.44;532;03.10.52.904
12960;177230;34.44;533;03.10.52.904
12948;177223;34.44;534;03.10.52.904
12940;177229;34.44;535;03.10.52.904
12952;177213;34.44;536;03.10.52.904
12948;177213;34.44;537;03.10.52.915
12972;177230;34.44;538;03.10.52.915
12956;177230;34.44;539;03.10.52.915
12960;177228;34.44;540;03.10.52.915
12956;177211;34.44;541;03.10.52.915
12928;177216;34.44;542;03.10.52.937
12960;177221;34.44;543;03.10.52.937
12924;177222;34.44;544;03.10.52.937
12960;177218;34.44;545;03.10.52.937
12960;177207;34.44;546;03.10.52.937
12968;177214;34.44;547;03.10.52.937
12924;177215;34.44;548;03.10.52.937
12952;177213;34.44;549;03.10.52.937
12960;177213;34.44;550;03.10.53.024
12984;177215;34.44;551;03.10.53.024
12916;177203;34.44;552;03.10.53.024
12944;177214;34.44;553;03.10.53.024
12956;177217;34.44;554;03.10.53.024
12968;177201;34.44;555;03.10.53.024
12920;177207;34.44;556;03.10.53.024
12972;177204;34.44;557;03.10.53.024
12960;177198;34.44;558;03.10.53.024
12968;177202;34.44;559;03.10.53.035
12940;177188;34.44;560;03.10.53.035
12976;177186;34.44;561;03.10.53.035
12948;177200;34.44;562;03.10.53.035
12980;177204;34.44;563;03.10.53.035
12944;177185;34.44;564;03.10.53.035
12964;177190;34.44;565;03.10.53.035
12964;177186;34.44;566;03.10.53.035
12968;177194;34.44;567;03.10.53.035
12936;177188;34.44;568;03.10.53.035
12960;177179;34.44;569;03.10.53.035
12948;177185;34.44;570;03.10.53.035
12924;177182;34.44;571;03.10.53.035
12960;177177;34.44;572;03.10.53.046
12968;177175;34.44;573;03.10.53.046
12968;177174;34.44;574;03.10.53.046
12936;177184;34.44;575;03.10.53.156
12964;177179;34.44;576;03.10.53.156
12936;177182;34.44;577;03.10.53.156
12940;177176;34.44;578;03.10.53.156
12944;177172;34.44;579;03.10.53.167
12936;177178;34.44;580;03.10.53.167
12944;177176;34.44;581;03.10.53.167
12976;177180;34.44;582;03.10.53.167
12964;177181;34.44;583;03.10.53.167
12948;177177;34.44;584;03.10.53.167
12948;177173;34.44;585;03.10.53.167
12936;177176;34.44;586;03.10.53.167
12944;177178;34.44;587;03.10.53.167
12972;177170;34.44;588;03.10.53.167
12956;177168;34.44;589;03.10.53.167
12964;177182;34.44;590;03.10.53.167
12932;177170;34.44;591;03.10.53.178
12952;177173;34.44;592;03.10.53.178
12964;177169;34.44;593;03.10.53.178
12936;177176;34.44;594;03.10.53.178
12960;177165;34.44;595;03.10.53.178
12960;177161;34.44;596;03.10.53.178
12976;177168;34.44;597;03.10.53.178
12992;177159;34.44;598;03.10.53.178
12956;177163;34.44;599;03.10.53.178
12916;177168;34.44;600;03.10.53.288
12908;177165;34.44;601;03.10.53.299
12924;177154;34.44;602;03.10.53.299
12936;177155;34.44;603;03.10.53.299
12960;177150;34.44;604;03.10.53.299
12960;177155;34.44;605;03.10.53.299
12960;177166;34.44;606;03.10.53.299
12948;177156;34.44;607;03.10.53.299
12908;177150;34.44;608;03.10.53.299
12952;177148;34.44;609;03.10.53.299
12928;177153;34.44;610;03.10.53.299
12960;177151;34.44;611;03.10.53.299
12960;177160;34.44;612;03.10.53.299
12944;177152;34.44;613;03.10.53.299
12944;177155;34.44;614;03.10.53.310
12956;177150;34.44;615;03.10.53.310
12948;177155;34.44;616;03.10.53.310
12956;177159;34.44;617;03.10.53.310
12948;177157;34.44;618;03.10.53.310
12924;177162;34.44;619;03.10.53.310
12940;177159;34.44;620;03.10.53.310
12940;177167;34.44;621;03.10.53.310
12932;177158;34.44;622;03.10.53.310
12960;177160;34.44;623;03.10.53.310
12944;177162;34.44;624;03.10.53.310
12968;177161;34.40;625;03.10.53.408
12964;177155;34.40;626;03.10.53.408
12964;177154;34.40;627;03.10.53.408
12940;177150;34.40;628;03.10.53.408
12956;177156;34.40;629;03.10.53.408
12944;177160;34.40;630;03.10.53.408
12972;177151;34.40;631;03.10.53.408
12960;177152;34.40;632;03.10.53.408
12928;177154;34.40;633;03.10.53.408
12956;177164;34.40;634;03.10.53.408
12928;177160;34.40;635;03.10.53.419
12944;177159;34.40;636;03.10.53.419
12948;177165;34.40;637;03.10.53.419
12960;177158;34.40;638;03.10.53.419
12952;177163;34.40;639;03.10.53.419
12944;177165;34.40;640;03.10.53.419
12960;177166;34.40;641;03.10.53.419
12964;177157;34.40;642;03.10.53.430
12940;177160;34.40;643;03.10.53.430
12932;177168;34.40;644;03.10.53.430
12944;177167;34.40;645;03.10.53.430
12964;177174;34.40;646;03.10.53.430
12968;177171;34.40;647;03.10.53.430
12948;177178;34.40;648;03.10.53.430
12968;177172;34.40;649;03.10.53.430
12936;177167;34.40;650;03.10.53.540
12944;177169;34.40;651;03.10.53.540
12956;177165;34.40;652;03.10.53.540
12968;177171;34.40;653;03.10.53.540
12948;177177;34.40;654;03.10.53.540
12948;177169;34.40;655;03.10.53.540
12952;177168;34.40;656;03.10.53.551
12968;177176;34.40;657;03.10.53.551
12952;177177;34.40;658;03.10.53.551
12968;177169;34.40;659;03.10.53.551
12960;177166;34.40;660;03.10.53.551
12976;177172;34.40;661;03.10.53.551
12944;177169;34.40;662;03.10.53.551
12976;177180;34.40;663;03.10.53.562
12960;177182;34.40;664;03.10.53.562
12960;177171;34.40;665;03.10.53.562
12952;177167;34.40;666;03.10.53.562
12960;177175;34.40;667;03.10.53.562
12952;177173;34.40;668;03.10.53.562
12952;177172;34.40;669;03.10.53.562
12952;177161;34.40;670;03.10.53.562
12960;177168;34.40;671;03.10.53.562
12952;177166;34.40;672;03.10.53.562
12956;177173;34.40;673;03.10.53.562
12972;177167;34.40;674;03.10.53.562
12948;177161;34.40;675;03.10.53.660
12960;177163;34.40;676;03.10.53.660
12916;177162;34.40;677;03.10.53.671
12948;177157;34.40;678;03.10.53.671
12956;177162;34.40;679;03.10.53.671
12932;177156;34.40;680;03.10.53.671
12940;177153;34.40;681;03.10.53.671
12936;177162;34.40;682;03.10.53.671
12980;177160;34.40;683;03.10.53.671
12964;177146;34.40;684;03.10.53.671
12960;177150;34.40;685;03.10.53.671
12968;177142;34.40;686;03.10.53.671
12948;177155;34.40;687;03.10.53.671
12916;177147;34.40;688;03.10.53.671
12952;177137;34.40;689;03.10.53.671
12952;177145;34.40;690;03.10.53.682
12948;177144;34.40;691;03.10.53.682
12960;177130;34.40;692;03.10.53.682
12948;177132;34.40;693;03.10.53.682
12952;177122;34.40;694;03.10.53.682
12936;177120;34.40;695;03.10.53.682
12948;177128;34.40;696;03.10.53.682
12944;177115;34.40;697;03.10.53.682
12956;177127;34.40;698;03.10.53.682
12952;177118;34.40;699;03.10.53.682
12928;177118;34.40;700;03.10.53.792
12948;177114;34.40;701;03.10.53.792
12964;177110;34.40;702;03.10.53.792
12944;177106;34.40;703;03.10.53.792
12940;177105;34.40;704;03.10.53.792
12920;177107;34.40;705;03.10.53.792
12968;177107;34.40;706;03.10.53.792
12936;177106;34.40;707;03.10.53.792
12960;177105;34.40;708;03.10.53.792
12968;177103;34.40;709;03.10.53.792
12960;177103;34.40;710;03.10.53.792
12960;177107;34.40;711;03.10.53.792
12968;177104;34.40;712;03.10.53.803
12952;177104;34.40;713;03.10.53.803
12956;177102;34.40;714;03.10.53.803
12980;177094;34.40;715;03.10.53.803
12976;177092;34.40;716;03.10.53.803
12972;177095;34.40;717;03.10.53.803
12960;177096;34.40;718;03.10.53.803
12964;177100;34.40;719;03.10.53.803
12960;177097;34.40;720;03.10.53.803
12964;177085;34.40;721;03.10.53.803
12980;177097;34.40;722;03.10.53.803
12956;177091;34.40;723;03.10.53.803
12980;177097;34.40;724;03.10.53.803
12940;177095;34.40;725;03.10.53.922
12936;177096;34.40;726;03.10.53.922
12956;177083;34.40;727;03.10.53.922
12952;177090;34.40;728;03.10.53.922
12960;177083;34.40;729;03.10.53.922
12960;177083;34.40;730;03.10.53.922
12956;177096;34.40;731;03.10.53.933
12964;177080;34.40;732;03.10.53.933
12960;177084;34.40;733;03.10.53.933
12960;177085;34.40;734;03.10.53.933
12932;177086;34.40;735;03.10.53.933
12944;177084;34.40;736;03.10.53.933
12940;177088;34.40;737;03.10.53.933
12956;177085;34.40;738;03.10.53.933
12964;177088;34.40;739;03.10.53.933
12944;177083;34.40;740;03.10.53.933
12956;177084;34.40;741;03.10.53.933
12952;177082;34.40;742;03.10.53.955
12908;177087;34.40;743;03.10.53.955
12932;177079;34.40;744;03.10.53.955
12960;177079;34.40;745;03.10.53.955
12964;177074;34.40;746;03.10.53.955
12960;177071;34.40;747;03.10.53.955
12956;177076;34.40;748;03.10.53.966
12952;177077;34.40;749;03.10.53.966
12940;177074;34.40;750;03.10.54.021
12944;177083;34.40;751;03.10.54.021
12956;177079;34.40;752;03.10.54.021
12964;177081;34.40;753;03.10.54.032
12948;177070;34.40;754;03.10.54.032
12968;177085;34.40;755;03.10.54.032
12916;177073;34.40;756;03.10.54.032
12952;177085;34.40;757;03.10.54.032
12940;177082;34.40;758;03.10.54.032
12960;177077;34.40;759;03.10.54.032
12940;177083;34.40;760;03.10.54.032
12960;177084;34.40;761;03.10.54.032
12948;177075;34.40;762;03.10.54.032
12928;177072;34.40;763;03.10.54.032
12948;177080;34.40;764;03.10.54.032
12956;177069;34.40;765;03.10.54.032
12956;177075;34.40;766;03.10.54.043
12948;177068;34.40;767;03.10.54.054
12972;177075;34.40;768;03.10.54.054
12940;177067;34.40;769;03.10.54.054
12976;177075;34.40;770;03.10.54.065
12984;177079;34.40;771;03.10.54.065
12968;177076;34.40;772;03.10.54.065
12928;177071;34.40;773;03.10.54.065
12960;177080;34.40;774;03.10.54.065
12936;177075;34.40;775;03.10.54.152
12988;177073;34.40;776;03.10.54.152
12940;177076;34.40;777;03.10.54.152
12992;177074;34.40;778;03.10.54.152
12936;177080;34.40;779;03.10.54.152
12964;177080;34.40;780;03.10.54.152
12940;177075;34.40;781;03.10.54.152
12940;177066;34.40;782;03.10.54.152
12956;177080;34.40;783;03.10.54.152
12940;177081;34.40;784;03.10.54.152
12932;177076;34.40;785;03.10.54.152
12952;177078;34.40;786;03.10.54.152
12964;177079;34.40;787;03.10.54.163
12940;177083;34.40;788;03.10.54.163
12956;177087;34.40;789;03.10.54.163
12960;177088;34.40;790;03.10.54.163
12960;177080;34.40;791;03.10.54.163
12944;177076;34.40;792;03.10.54.163
12960;177077;34.40;793;03.10.54.163
12944;177077;34.40;794;03.10.54.163
12980;177080;34.40;795;03.10.54.163
12960;177072;34.40;796;03.10.54.163
12968;177073;34.40;797;03.10.54.163
12960;177063;34.40;798;03.10.54.163
12972;177070;34.40;799;03.10.54.174
12928;177070;34.40;800;03.10.54.284
12952;177067;34.40;801;03.10.54.284
12940;177065;34.40;802;03.10.54.284
12952;177068;34.40;803;03.10.54.284
12956;177068;34.40;804;03.10.54.284
12960;177070;34.40;805;03.10.54.284
12964;177067;34.40;806;03.10.54.284
12944;177062;34.40;807;03.10.54.284
12952;177064;34.40;808;03.10.54.295
12968;177054;34.40;809;03.10.54.295
12960;177057;34.40;810;03.10.54.295
12976;177047;34.40;811;03.10.54.295
12968;177052;34.40;812;03.10.54.295
12948;177053;34.40;813;03.10.54.295
12952;177054;34.40;814;03.10.54.295
12944;177048;34.40;815;03.10.54.295
12944;177043;34.40;816;03.10.54.295
12960;177050;34.40;817;03.10.54.295
12968;177049;34.40;818;03.10.54.295
12952;177048;34.40;819;03.10.54.295
12940;177052;34.40;820;03.10.54.295
12976;177054;34.40;821;03.10.54.306
12940;177046;34.40;822;03.10.54.306
12960;177041;34.40;823;03.10.54.306
12976;177048;34.40;824;03.10.54.306
12944;177050;34.40;825;03.10.54.416
12964;177050;34.40;826;03.10.54.416
12948;177048;34.40;827;03.10.54.416
12968;177045;34.40;828;03.10.54.417
12952;177055;34.40;829;03.10.54.417
12948;177055;34.40;830;03.10.54.417
12948;177049;34.40;831;03.10.54.428
12960;177052;34.40;832;03.10.54.428
12952;177042;34.40;833;03.10.54.428
12952;177051;34.40;834;03.10.54.428
12960;177048;34.40;835;03.10.54.428
12956;177047;34.40;836;03.10.54.428
12960;177048;34.40;837;03.10.54.428
12964;177041;34.40;838;03.10.54.428
12948;177041;34.40;839;03.10.54.428
12948;177041;34.40;840;03.10.54.428
12936;177045;34.40;841;03.10.54.428
12944;177047;34.40;842;03.10.54.428
12952;177050;34.40;843;03.10.54.439
12924;177041;34.40;844;03.10.54.439
12992;177042;34.40;845;03.10.54.439
12944;177046;34.40;846;03.10.54.439
12956;177044;34.40;847;03.10.54.439
12928;177042;34.40;848;03.10.54.439
12968;177039;34.40;849;03.10.54.439
12968;177038;34.40;850;03.10.54.526
12956;177045;34.40;851;03.10.54.537
12972;177047;34.40;852;03.10.54.537
12948;177044;34.40;853;03.10.54.537
12924;177045;34.40;854;03.10.54.537
12956;177045;34.40;855;03.10.54.537
12948;177042;34.40;856;03.10.54.537
12932;177040;34.40;857;03.10.54.537
12956;177043;34.40;858;03.10.54.548
12956;177052;34.40;859;03.10.54.559
12972;177043;34.40;860;03.10.54.559
12932;177048;34.40;861;03.10.54.559
12948;177045;34.40;862;03.10.54.559
12968;177052;34.40;863;03.10.54.559
12944;177049;34.40;864;03.10.54.559
12952;177046;34.40;865;03.10.54.559
12968;177045;34.40;866;03.10.54.559
12960;177053;34.40;867;03.10.54.559
12956;177042;34.40;868;03.10.54.559
12956;177053;34.40;869;03.10.54.559
12956;177047;34.40;870;03.10.54.559
12960;177054;34.40;871;03.10.54.559
12940;177047;34.40;872;03.10.54.559
12960;177050;34.40;873;03.10.54.570
12956;177047;34.40;874;03.10.54.570
12936;177053;34.40;875;03.10.54.658
12976;177047;34.40;876;03.10.54.658
12944;177055;34.40;877;03.10.54.658
12956;177054;34.40;878;03.10.54.658
12948;177054;34.40;879;03.10.54.658
12936;177062;34.40;880;03.10.54.658
12952;177062;34.40;881;03.10.54.658
12960;177049;34.40;882;03.10.54.658
12956;177046;34.40;883;03.10.54.658
12960;177055;34.40;884;03.10.54.658
12932;177056;34.40;885;03.10.54.658
12960;177050;34.40;886;03.10.54.669
12948;177059;34.40;887;03.10.54.669
12960;177059;34.40;888;03.10.54.669
12960;177059;34.40;889;03.10.54.669
12968;177057;34.40;890;03.10.54.669
12968;177051;34.40;891;03.10.54.669
12956;177060;34.40;892;03.10.54.669
12992;177053;34.40;893;03.10.54.669
12956;177057;34.40;894;03.10.54.669
12944;177057;34.40;895;03.10.54.669
12960;177062;34.40;896;03.10.54.669
12968;177057;34.40;897;03.10.54.669
12916;177064;34.40;898;03.10.54.669
12960;177060;34.40;899;03.10.54.680
12940;177052;34.40;900;03.10.54.779
12960;177062;34.40;901;03.10.54.779
12976;177068;34.40;902;03.10.54.779
12968;177055;34.40;903;03.10.54.779
12948;177056;34.40;904;03.10.54.779
12956;177053;34.40;905;03.10.54.779
12960;177057;34.40;906;03.10.54.779
12944;177059;34.40;907;03.10.54.779
12976;177049;34.40;908;03.10.54.790
12936;177051;34.40;909;03.10.54.790
12960;177052;34.40;910;03.10.54.790
12960;177050;34.40;911;03.10.54.790
12960;177041;34.40;912;03.10.54.790
12952;177044;34.40;913;03.10.54.790
12944;177040;34.40;914;03.10.54.790
12976;177044;34.40;915;03.10.54.801
12964;177046;34.40;916;03.10.54.801
12956;177038;34.40;917;03.10.54.801
12940;177042;34.40;918;03.10.54.801
12944;177038;34.40;919;03.10.54.801
12960;177031;34.40;920;03.10.54.801
12968;177038;34.40;921;03.10.54.801
12968;177038;34.40;922;03.10.54.801
12936;177042;34.40;923;03.10.54.801
12956;177026;34.40;924;03.10.54.801
12908;177021;34.40;925;03.10.54.910
12940;177029;34.40;926;03.10.54.910
12960;177017;34.40;927;03.10.54.910
12972;177027;34.40;928;03.10.54.910
12944;177028;34.40;929;03.10.54.921
12968;177029;34.40;930;03.10.54.921
12960;177033;34.40;931;03.10.54.921
12952;177035;34.40;932;03.10.54.921
12964;177022;34.40;933;03.10.54.921
12948;177032;34.40;934;03.10.54.921
12940;177028;34.40;935;03.10.54.921
12960;177026;34.40;936;03.10.54.921
12924;177025;34.40;937;03.10.54.921
12956;177031;34.40;938;03.10.54.921
12936;177035;34.40;939;03.10.54.921
12976;177026;34.40;940;03.10.54.921
12944;177027;34.40;941;03.10.54.921
12964;177028;34.40;942;03.10.54.932
12964;177024;34.40;943;03.10.54.932
12940;177030;34.40;944;03.10.54.932
12960;177036;34.40;945;03.10.54.932
12956;177021;34.40;946;03.10.54.943
12976;177042;34.40;947;03.10.54.943
12944;177033;34.40;948;03.10.54.943
12960;177028;34.40;949;03.10.54.943
12964;177033;34.40;950;03.10.55.030
12940;177036;34.40;951;03.10.55.030
12960;177031;34.40;952;03.10.55.030
12960;177032;34.40;953;03.10.55.030
12964;177032;34.40;954;03.10.55.030
12968;177032;34.40;955;03.10.55.030
12960;177025;34.40;956;03.10.55.030
12952;177032;34.40;957;03.10.55.030
12960;177038;34.40;958;03.10.55.052
12940;177029;34.40;959;03.10.55.052
12932;177038;34.40;960;03.10.55.052
12924;177032;34.40;961;03.10.55.052
12924;177037;34.40;962;03.10.55.052
12960;177033;34.40;963;03.10.55.052
12956;177035;34.40;964;03.10.55.052
12952;177035;34.40;965;03.10.55.052
12968;177033;34.40;966;03.10.55.052
12964;177027;34.40;967;03.10.55.052
12952;177033;34.40;968;03.10.55.052
12932;177035;34.40;969;03.10.55.052
12920;177030;34.40;970;03.10.55.063
12988;177033;34.40;971;03.10.55.063
12976;177032;34.40;972;03.10.55.063
12972;177030;34.40;973;03.10.55.063
12968;177029;34.40;974;03.10.55.063
12960;177035;34.40;975;03.10.55.151
12920;177035;34.40;976;03.10.55.151
12948;177030;34.40;977;03.10.55.151
12956;177037;34.40;978;03.10.55.151
12952;177030;34.40;979;03.10.55.151
12964;177029;34.40;980;03.10.55.151
12944;177028;34.40;981;03.10.55.151
12956;177025;34.40;982;03.10.55.151
12948;177023;34.40;983;03.10.55.162
12964;177034;34.40;984;03.10.55.162
12948;177026;34.40;985;03.10.55.162
12944;177034;34.40;986;03.10.55.162
12940;177028;34.40;987;03.10.55.162
12960;177026;34.40;988;03.10.55.162
12940;177029;34.40;989;03.10.55.162
12924;177031;34.40;990;03.10.55.162
12964;177029;34.40;991;03.10.55.162
12968;177034;34.40;992;03.10.55.162
12944;177038;34.40;993;03.10.55.162
12964;177025;34.40;994;03.10.55.162
12960;177023;34.40;995;03.10.55.162
12960;177035;34.40;996;03.10.55.162
12936;177020;34.40;997;03.10.55.173
12972;177032;34.40;998;03.10.55.173
12948;177033;34.40;999;03.10.55.173
12948;177029;34.40;000;03.10.55.292
12960;177042;34.40;001;03.10.55.292
12956;177044;34.40;002;03.10.55.292
12940;177039;34.40;003;03.10.55.303
12964;177039;34.40;004;03.10.55.303
12952;177041;34.40;005;03.10.55.303
12976;177041;34.40;006;03.10.55.303
12956;177045;34.40;007;03.10.55.303
12940;177044;34.40;008;03.10.55.303
12956;177051;34.40;009;03.10.55.303
12968;177038;34.40;010;03.10.55.303
12952;177034;34.40;011;03.10.55.303
12952;177036;34.40;012;03.10.55.303
12976;177033;34.40;013;03.10.55.303
12948;177030;34.40;014;03.10.55.303
12968;177034;34.40;015;03.10.55.303
12956;177030;34.40;016;03.10.55.314
12960;177029;34.40;017;03.10.55.314
12960;177027;34.40;018;03.10.55.314
12960;177022;34.40;019;03.10.55.314
12944;177020;34.40;020;03.10.55.314
12964;177015;34.40;021;03.10.55.314
12948;177017;34.40;022;03.10.55.314
12932;177019;34.40;023;03.10.55.314
12964;177024;34.40;024;03.10.55.314
12972;177023;34.40;025;03.10.55.424
12964;177011;34.40;026;03.10.55.424
12936;177009;34.40;027;03.10.55.424
12936;177009;34.40;028;03.10.55.424
12964;177015;34.40;029;03.10.55.424
12956;177005;34.40;030;03.10.55.424
12976;177002;34.40;031;03.10.55.424
12964;177002;34.40;032;03.10.55.424
12960;176999;34.40;033;03.10.55.424
12956;177007;34.40;034;03.10.55.424
12960;177004;34.40;035;03.10.55.424
12948;176999;34.40;036;03.10.55.424
12936;176998;34.40;037;03.10.55.435
12968;177005;34.40;038;03.10.55.435
12968;177000;34.40;039;03.10.55.435
12932;177005;34.40;040;03.10.55.435
12920;176998;34.40;041;03.10.55.435
12944;176996;34.40;042;03.10.55.435
12940;176996;34.40;043;03.10.55.435
12940;177004;34.40;044;03.10.55.435
12948;176999;34.40;045;03.10.55.435
12936;176998;34.40;046;03.10.55.435
12940;176999;34.40;047;03.10.55.435
12960;176993;34.40;048;03.10.55.435
12968;177003;34.40;049;03.10.55.435
12960;176998;34.40;050;03.10.55.556
12956;176992;34.40;051;03.10.55.556
12960;176992;34.40;052;03.10.55.556
12960;176992;34.40;053;03.10.55.556
12960;176999;34.40;054;03.10.55.556
12924;177002;34.40;055;03.10.55.556
12948;177000;34.40;056;03.10.55.556
12924;176997;34.40;057;03.10.55.556
12944;177004;34.40;058;03.10.55.567
12960;177007;34.40;059;03.10.55.567
12952;176997;34.40;060;03.10.55.567
12944;177003;34.40;061;03.10.55.567
12968;177000;34.40;062;03.10.55.567
12976;176997;34.40;063;03.10.55.567
12924;176986;34.40;064;03.10.55.567
12956;176985;34.40;065;03.10.55.567
12940;176989;34.40;066;03.10.55.567
12952;176991;34.40;067;03.10.55.567
12960;176997;34.40;068;03.10.55.567
12936;176997;34.40;069;03.10.55.567
12936;176990;34.40;070;03.10.55.567
12960;176992;34.40;071;03.10.55.577
12936;176988;34.40;072;03.10.55.577
12952;176988;34.40;073;03.10.55.577
12952;176989;34.40;074;03.10.55.577
12960;176988;34.40;075;03.10.55.654
12964;176978;34.40;076;03.10.55.654
12956;176985;34.40;077;03.10.55.654
12944;176980;34.40;078;03.10.55.654
12940;176988;34.40;079;03.10.55.654
12948;176988;34.40;080;03.10.55.665
12984;176983;34.40;081;03.10.55.665
12956;176975;34.40;082;03.10.55.665
12956;176978;34.40;083;03.10.55.687
12936;176980;34.40;084;03.10.55.687
12960;176981;34.40;085;03.10.55.687
12944;176985;34.40;086;03.10.55.687
12956;176989;34.40;087;03.10.55.687
12928;176984;34.40;088;03.10.55.698
12948;176980;34.40;089;03.10.55.698
12952;176975;34.40;090;03.10.55.698
12956;176985;34.40;091;03.10.55.698
12964;176983;34.40;092;03.10.55.698
12976;176981;34.40;093;03.10.55.698
12968;176978;34.40;094;03.10.55.698
12952;176973;34.40;095;03.10.55.698
12960;176981;34.40;096;03.10.55.698
12964;176985;34.40;097;03.10.55.698
12956;176983;34.40;098;03.10.55.698
12960;176982;34.40;099;03.10.55.698
12940;176987;34.40;100;03.10.55.786
12968;176989;34.40;101;03.10.55.797
12964;176987;34.40;102;03.10.55.797
12952;176984;34.40;103;03.10.55.797
12952;176988;34.40;104;03.10.55.797
12944;176987;34.40;105;03.10.55.797
12972;176988;34.40;106;03.10.55.797
12968;176990;34.40;107;03.10.55.797
12984;176989;34.40;108;03.10.55.819
12952;176987;34.40;109;03.10.55.830
12960;176992;34.40;110;03.10.55.830
12948;176993;34.40;111;03.10.55.830
12932;176998;34.40;112;03.10.55.830
12960;176988;34.40;113;03.10.55.830
12956;176992;34.40;114;03.10.55.830
12932;176998;34.40;115;03.10.55.830
12948;176994;34.40;116;03.10.55.830
12944;176996;34.40;117;03.10.55.830
12952;176994;34.40;118;03.10.55.830
12952;176999;34.40;119;03.10.55.830
12960;176997;34.40;120;03.10.55.830
12960;176996;34.40;121;03.10.55.830
12976;176986;34.40;122;03.10.55.841
12960;176987;34.40;123;03.10.55.841
12948;176995;34.40;124;03.10.55.841
12940;176996;34.40;125;03.10.55.918
12960;176990;34.40;126;03.10.55.918
12976;176994;34.40;127;03.10.55.918
12936;176987;34.40;128;03.10.55.918
12952;176979;34.40;129;03.10.55.918
12968;176987;34.40;130;03.10.55.918
12940;176987;34.40;131;03.10.55.918
12940;176983;34.40;132;03.10.55.918
12960;176990;34.40;133;03.10.55.918
12968;176976;34.40;134;03.10.55.918
12948;176974;34.40;135;03.10.55.918
12944;176984;34.40;136;03.10.55.929
12956;176974;34.40;137;03.10.55.929
12956;176985;34.40;138;03.10.55.929
12960;176977;34.40;139;03.10.55.929
12960;176969;34.40;140;03.10.55.929
12948;176974;34.40;141;03.10.55.929
12960;176971;34.40;142;03.10.55.929
12964;176970;34.40;143;03.10.55.929
12968;176971;34.40;144;03.10.55.929
12960;176972;34.40;145;03.10.55.929
12976;176970;34.40;146;03.10.55.929
12968;176965;34.40;147;03.10.55.929
12952;176962;34.40;148;03.10.55.929
12952;176960;34.40;149;03.10.55.939
12992;176958;34.40;150;03.10.56.048
12936;176957;34.40;151;03.10.56.048
12944;176964;34.40;152;03.10.56.048
12972;176975;34.40;153;03.10.56.048
12948;176969;34.40;154;03.10.56.048
12940;176960;34.40;155;03.10.56.048
12924;176958;34.40;156;03.10.56.059
12976;176965;34.40;157;03.10.56.059
12984;176962;34.40;158;03.10.56.059
12924;176964;34.40;159;03.10.56.059
12956;176964;34.40;160;03.10.56.059
12940;176955;34.40;161;03.10.56.059
12960;176952;34.40;162;03.10.56.059
12964;176950;34.40;163;03.10.56.059
12964;176960;34.40;164;03.10.56.059
12960;176957;34.40;165;03.10.56.059
12960;176951;34.40;166;03.10.56.059
12940;176955;34.40;167;03.10.56.059
12948;176957;34.40;168;03.10.56.059
12948;176964;34.40;169;03.10.56.070
12964;176953;34.40;170;03.10.56.070
12968;176964;34.40;171;03.10.56.070
12924;176959;34.40;172;03.10.56.070
12936;176960;34.40;173;03.10.56.070
12952;176962;34.40;174;03.10.56.070
12936;176964;34.40;175;03.10.56.158
12932;176970;34.40;176;03.10.56.158
12976;176967;34.40;177;03.10.56.158
12952;176957;34.40;178;03.10.56.169
12960;176965;34.40;179;03.10.56.169
12968;176967;34.40;180;03.10.56.169
12968;176962;34.40;181;03.10.56.169
12936;176959;34.40;182;03.10.56.169
12964;176969;34.40;183;03.10.56.180
12920;176962;34.40;184;03.10.56.180
12976;176959;34.40;185;03.10.56.191
12956;176965;34.40;186;03.10.56.191
12924;176955;34.40;187;03.10.56.191
12924;176968;34.40;188;03.10.56.191
12976;176959;34.40;189;03.10.56.191
12968;176958;34.40;190;03.10.56.191
12964;176954;34.40;191;03.10.56.191
12936;176954;34.40;192;03.10.56.191
12956;176960;34.40;193;03.10.56.191
12956;176951;34.40;194;03.10.56.191
12956;176948;34.40;195;03.10.56.191
12932;176952;34.40;196;03.10.56.191
12968;176950;34.40;197;03.10.56.202
12960;176955;34.40;198;03.10.56.202
12956;176947;34.40;199;03.10.56.202
12944;176951;34.40;200;03.10.56.279
12948;176947;34.40;201;03.10.56.279
12956;176954;34.40;202;03.10.56.279
12952;176956;34.40;203;03.10.56.279
12944;176947;34.40;204;03.10.56.279
12924;176953;34.40;205;03.10.56.279
12948;176951;34.40;206;03.10.56.279
12960;176949;34.40;207;03.10.56.279
12968;176947;34.40;208;03.10.56.279
12976;176952;34.40;209;03.10.56.279
12940;176953;34.40;210;03.10.56.279
12932;176953;34.40;211;03.10.56.279
12940;176950;34.40;212;03.10.56.290
12948;176956;34.40;213;03.10.56.290
12952;176957;34.40;214;03.10.56.290
12920;176962;34.40;215;03.10.56.290
12948;176943;34.40;216;03.10.56.290
12936;176944;34.40;217;03.10.56.290
12960;176951;34.40;218;03.10.56.290
12980;176951;34.40;219;03.10.56.290
12936;176959;34.40;220;03.10.56.290
12944;176957;34.40;221;03.10.56.290
12948;176951;34.40;222;03.10.56.290
12952;176947;34.40;223;03.10.56.290
12948;176948;34.40;224;03.10.56.290
12964;176948;34.40;225;03.10.56.421
12948;176946;34.40;226;03.10.56.421
12920;176950;34.40;227;03.10.56.421
12960;176948;34.40;228;03.10.56.421
12956;176950;34.40;229;03.10.56.421
12964;176942;34.40;230;03.10.56.421
12952;176949;34.40;231;03.10.56.421
12948;176956;34.40;232;03.10.56.432
12960;176953;34.40;233;03.10.56.454
12992;176949;34.40;234;03.10.56.454
12936;176944;34.40;235;03.10.56.454
12948;176946;34.40;236;03.10.56.454
12924;176934;34.40;237;03.10.56.454
12956;176937;34.40;238;03.10.56.454
12960;176940;34.40;239;03.10.56.454
12952;176935;34.40;240;03.10.56.465
12936;176934;34.40;241;03.10.56.465
12968;176934;34.40;242;03.10.56.465
12964;176937;34.40;243;03.10.56.465
12952;176933;34.40;244;03.10.56.465
12960;176929;34.40;245;03.10.56.465
12948;176934;34.40;246;03.10.56.465
12940;176926;34.40;247;03.10.56.465
12960;176917;34.40;248;03.10.56.465
12976;176924;34.40;249;03.10.56.465
12956;176923;34.40;250;03.10.56.541
12932;176913;34.40;251;03.10.56.541
12932;176922;34.40;252;03.10.56.541
12936;176921;34.40;253;03.10.56.552
12956;176905;34.40;254;03.10.56.552
12924;176909;34.40;255;03.10.56.552
12932;176906;34.40;256;03.10.56.552
12944;176910;34.40;257;03.10.56.552
12960;176909;34.40;258;03.10.56.552
12960;176909;34.40;259;03.10.56.552
12948;176908;34.40;260;03.10.56.552
12960;176913;34.40;261;03.10.56.552
12944;176915;34.40;262;03.10.56.552
12960;176905;34.40;263;03.10.56.552
12964;176905;34.40;264;03.10.56.552
12960;176898;34.40;265;03.10.56.552
12944;176905;34.40;266;03.10.56.563
12956;176904;34.40;267;03.10.56.563
12968;176908;34.40;268;03.10.56.563
12968;176908;34.40;269;03.10.56.563
12960;176914;34.40;270;03.10.56.563
12968;176917;34.40;271;03.10.56.563
12960;176906;34.40;272;03.10.56.563
12948;176908;34.40;273;03.10.56.563
12972;176913;34.40;274;03.10.56.563
12940;176910;34.40;275;03.10.56.684
12956;176914;34.40;276;03.10.56.684
12952;176901;34.40;277;03.10.56.684
12920;176910;34.40;278;03.10.56.684
12952;176902;34.40;279;03.10.56.684
12948;176910;34.40;280;03.10.56.684
12960;176909;34.40;281;03.10.56.684
12968;176910;34.40;282;03.10.56.684
12956;176910;34.40;283;03.10.56.684
12960;176907;34.40;284;03.10.56.684
12948;176908;34.40;285;03.10.56.684
12920;176903;34.40;286;03.10.56.684
12952;176914;34.40;287;03.10.56.684
12948;176905;34.40;288;03.10.56.695
12968;176905;34.40;289;03.10.56.695
12936;176905;34.40;290;03.10.56.695
12940;176909;34.40;291;03.10.56.695
12976;176917;34.40;292;03.10.56.695
12952;176907;34.40;293;03.10.56.695
12960;176899;34.40;294;03.10.56.695
12944;176908;34.40;295;03.10.56.695
12944;176904;34.40;296;03.10.56.695
12976;176901;34.40;297;03.10.56.695
12952;176902;34.40;298;03.10.56.695
12996;176905;34.40;299;03.10.56.695
12948;176902;34.40;300;03.10.56.782
12940;176905;34.40;301;03.10.56.782
12960;176909;34.40;302;03.10.56.782
12932;176902;34.40;303;03.10.56.782
12964;176907;34.40;304;03.10.56.782
12936;176906;34.40;305;03.10.56.782
12956;176913;34.40;306;03.10.56.782
12956;176903;34.40;307;03.10.56.782
12932;176905;34.40;308;03.10.56.814
12960;176904;34.40;309;03.10.56.814
12960;176904;34.40;310;03.10.56.814
12924;176899;34.40;311;03.10.56.814
12956;176908;34.40;312;03.10.56.814
12956;176904;34.40;313;03.10.56.814
12960;176905;34.40;314;03.10.56.814
12956;176909;34.40;315;03.10.56.817
12956;176907;34.40;316;03.10.56.817
12924;176902;34.40;317;03.10.56.817
12968;176907;34.40;318;03.10.56.817
12976;176904;34.40;319;03.10.56.828
12932;176911;34.40;320;03.10.56.828
12944;176915;34.40;321;03.10.56.828
12948;176909;34.40;322;03.10.56.828
12956;176916;34.40;323;03.10.56.828
12964;176915;34.40;324;03.10.56.828
12960;176910;34.40;325;03.10.56.904
12928;176911;34.40;326;03.10.56.904
12960;176910;34.40;327;03.10.56.904
12956;176910;34.40;328;03.10.56.904
12924;176911;34.40;329;03.10.56.904
12956;176905;34.40;330;03.10.56.915
12968;176912;34.40;331;03.10.56.915
12960;176916;34.40;332;03.10.56.915
12956;176915;34.40;333;03.10.56.915
12960;176908;34.40;334;03.10.56.915
12972;176905;34.40;335;03.10.56.915
12960;176914;34.40;336;03.10.56.915
12960;176909;34.40;337;03.10.56.915
12992;176910;34.40;338;03.10.56.915
12944;176911;34.40;339;03.10.56.915
12952;176914;34.40;340;03.10.56.915
12968;176914;34.40;341;03.10.56.915
12956;176909;34.40;342;03.10.56.915
12968;176909;34.40;343;03.10.56.926
12944;176909;34.40;344;03.10.56.926
12932;176907;34.40;345;03.10.56.926
12964;176898;34.40;346;03.10.56.926
12960;176903;34.40;347;03.10.56.926
12976;176911;34.40;348;03.10.56.926
12976;176903;34.40;349;03.10.56.926
12960;176899;34.40;350;03.10.57.036
12968;176901;34.40;351;03.10.57.036
12964;176895;34.40;352;03.10.57.036
12952;176901;34.40;353;03.10.57.047
12960;176896;34.40;354;03.10.57.047
12964;176895;34.40;355;03.10.57.047
12968;176885;34.40;356;03.10.57.047
12952;176893;34.40;357;03.10.57.047
12964;176883;34.40;358;03.10.57.047
12952;176886;34.40;359;03.10.57.047
12976;176890;34.40;360;03.10.57.047
12944;176884;34.40;361;03.10.57.047
12968;176871;34.40;362;03.10.57.047
12968;176879;34.40;363;03.10.57.047
12940;176880;34.40;364;03.10.57.047
12960;176878;34.40;365;03.10.57.047
12960;176878;34.40;366;03.10.57.057
12960;176877;34.40;367;03.10.57.057
12968;176874;34.40;368;03.10.57.057
12948;176875;34.40;369;03.10.57.068
12924;176878;34.40;370;03.10.57.068
12960;176877;34.40;371;03.10.57.068
12952;176870;34.40;372;03.10.57.068
12956;176872;34.40;373;03.10.57.068
12980;176875;34.40;374;03.10.57.068
12940;176872;34.44;375;03.10.57.155
12952;176867;34.44;376;03.10.57.155
12944;176876;34.44;377;03.10.57.155
12948;176879;34.44;378;03.10.57.155
12948;176886;34.44;379;03.10.57.155
12960;176885;34.44;380;03.10.57.155
12944;176866;34.44;381;03.10.57.155
12948;176879;34.44;382;03.10.57.155
12948;176872;34.44;383;03.10.57.166
12944;176883;34.44;384;03.10.57.166
12976;176881;34.44;385;03.10.57.166
12960;176878;34.44;386;03.10.57.166
12940;176876;34.44;387;03.10.57.166
12940;176878;34.44;388;03.10.57.166
12964;176880;34.44;389;03.10.57.166
12924;176877;34.44;390;03.10.57.166
12940;176873;34.44;391;03.10.57.166
12952;176881;34.44;392;03.10.57.166
12948;176876;34.44;393;03.10.57.166
12956;176873;34.44;394;03.10.57.166
12948;176870;34.44;395;03.10.57.177
12928;176870;34.44;396;03.10.57.177
12956;176874;34.44;397;03.10.57.177
12976;176879;34.44;398;03.10.57.177
12948;176875;34.44;399;03.10.57.177
12956;176876;34.44;400;03.10.57.276
12952;176881;34.44;401;03.10.57.276
12940;176878;34.44;402;03.10.57.276
12956;176877;34.44;403;03.10.57.276
12960;176876;34.44;404;03.10.57.276
12952;176877;34.44;405;03.10.57.276
12940;176884;34.44;406;03.10.57.276
12964;176876;34.44;407;03.10.57.276
12928;176885;34.44;408;03.10.57.287
12956;176877;34.44;409;03.10.57.287
12972;176882;34.44;410;03.10.57.287
12932;176877;34.44;411;03.10.57.287
12928;176881;34.44;412;03.10.57.287
12932;176874;34.44;413;03.10.57.287
12960;176877;34.44;414;03.10.57.287
12976;176874;34.44;415;03.10.57.287
12956;176879;34.44;416;03.10.57.287
12972;176877;34.44;417;03.10.57.287
12960;176877;34.44;418;03.10.57.287
12952;176875;34.44;419;03.10.57.287
12936;176880;34.44;420;03.10.57.298
12960;176887;34.44;421;03.10.57.298
12960;176884;34.44;422;03.10.57.298
12944;176882;34.44;423;03.10.57.298
12944;176881;34.44;424;03.10.57.298
12948;176884;34.40;425;03.10.57.397
12952;176875;34.40;426;03.10.57.397
12960;176885;34.40;427;03.10.57.397
12964;176888;34.40;428;03.10.57.397
12964;176883;34.40;429;03.10.57.408
12976;176884;34.40;430;03.10.57.408
12940;176875;34.40;431;03.10.57.408
12956;176879;34.40;432;03.10.57.408
12956;176875;34.40;433;03.10.57.408
12956;176882;34.40;434;03.10.57.408
12936;176885;34.40;435;03.10.57.408
12968;176885;34.40;436;03.10.57.408
12972;176874;34.40;437;03.10.57.419
12952;176879;34.40;438;03.10.57.419
12944;176879;34.40;439;03.10.57.419
12960;176889;34.40;440;03.10.57.419
12960;176883;34.40;441;03.10.57.419
12948;176885;34.40;442;03.10.57.419
12976;176882;34.40;443;03.10.57.419
12956;176884;34.40;444;03.10.57.419
12956;176892;34.40;445;03.10.57.419
12976;176890;34.40;446;03.10.57.419
12948;176883;34.40;447;03.10.57.419
12940;176883;34.40;448;03.10.57.419
12940;176886;34.40;449;03.10.57.419
12944;176896;34.40;450;03.10.57.539
12976;176885;34.40;451;03.10.57.539
12948;176890;34.40;452;03.10.57.539
12924;176882;34.40;453;03.10.57.539
12940;176881;34.40;454;03.10.57.539
12940;176883;34.40;455;03.10.57.539
12948;176883;34.40;456;03.10.57.539
12944;176882;34.40;457;03.10.57.539
12940;176878;34.40;458;03.10.57.539
12960;176877;34.40;459;03.10.57.539
12944;176874;34.40;460;03.10.57.539
12972;176884;34.40;461;03.10.57.539
12956;176878;34.40;462;03.10.57.550
12960;176875;34.40;463;03.10.57.550
12948;176882;34.40;464;03.10.57.550
12952;176883;34.40;465;03.10.57.550
12964;176875;34.40;466;03.10.57.550
12968;176875;34.40;467;03.10.57.550
12964;176868;34.40;468;03.10.57.550
12956;176871;34.40;469;03.10.57.550
12968;176877;34.40;470;03.10.57.550
12944;176856;34.40;471;03.10.57.550
12956;176863;34.40;472;03.10.57.550
12952;176862;34.40;473;03.10.57.550
12960;176852;34.40;474;03.10.57.550
12952;176846;34.40;475;03.10.57.671
12976;176853;34.40;476;03.10.57.671
12916;176851;34.40;477;03.10.57.671
12968;176842;34.40;478;03.10.57.671
12944;176848;34.40;479;03.10.57.671
12948;176852;34.40;480;03.10.57.671
12964;176853;34.40;481;03.10.57.671
12972;176854;34.40;482;03.10.57.671
12944;176854;34.40;483;03.10.57.671
12960;176848;34.40;484;03.10.57.682
12992;176848;34.40;485;03.10.57.682
12968;176842;34.40;486;03.10.57.682
12948;176848;34.40;487;03.10.57.682
12940;176843;34.40;488;03.10.57.682
12976;176841;34.40;489;03.10.57.682
12948;176847;34.40;490;03.10.57.682
12948;176838;34.40;491;03.10.57.682
12924;176832;34.40;492;03.10.57.693
12956;176844;34.40;493;03.10.57.693
12960;176851;34.40;494;03.10.57.693
12948;176837;34.40;495;03.10.57.693
12944;176848;34.40;496;03.10.57.693
12960;176845;34.40;497;03.10.57.693
12960;176846;34.40;498;03.10.57.693
12960;176850;34.40;499;03.10.57.693
12952;176844;34.40;500;03.10.57.781
12972;176847;34.40;501;03.10.57.781
12956;176845;34.40;502;03.10.57.781
12976;176848;34.40;503;03.10.57.781
12960;176844;34.40;504;03.10.57.781
12960;176848;34.40;505;03.10.57.797
12968;176843;34.40;506;03.10.57.797
12968;176845;34.40;507;03.10.57.797
12960;176845;34.40;508;03.10.57.797
12940;176839;34.40;509;03.10.57.797
12960;176850;34.40;510;03.10.57.797
12948;176841;34.40;511;03.10.57.797
12924;176841;34.40;512;03.10.57.797
12948;176844;34.40;513;03.10.57.797
12948;176835;34.40;514;03.10.57.797
12936;176844;34.40;515;03.10.57.797
12964;176845;34.40;516;03.10.57.797
12968;176838;34.40;517;03.10.57.797
12968;176843;34.40;518;03.10.57.797
12952;176840;34.40;519;03.10.57.807
12932;176846;34.40;520;03.10.57.807
12944;176850;34.40;521;03.10.57.807
12936;176832;34.40;522;03.10.57.807
12948;176837;34.40;523;03.10.57.807
12956;176833;34.40;524;03.10.57.807
12960;176842;34.40;525;03.10.57.906
12924;176840;34.40;526;03.10.57.906
12936;176841;34.40;527;03.10.57.906
12948;176841;34.40;528;03.10.57.906
12932;176838;34.40;529;03.10.57.906
12936;176836;34.40;530;03.10.57.906
12948;176840;34.40;531;03.10.57.906
12968;176839;34.40;532;03.10.57.906
12904;176838;34.40;533;03.10.57.917
12956;176840;34.40;534;03.10.57.917
12952;176854;34.40;535;03.10.57.917
12960;176839;34.40;536;03.10.57.917
12952;176839;34.40;537;03.10.57.917
12968;176844;34.40;538;03.10.57.917
12976;176841;34.40;539;03.10.57.917
12932;176835;34.40;540;03.10.57.917
12948;176837;34.40;541;03.10.57.917
12984;176844;34.40;542;03.10.57.917
12952;176836;34.40;543;03.10.57.917
12916;176836;34.40;544;03.10.57.917
12940;176842;34.40;545;03.10.57.928
12948;176841;34.40;546;03.10.57.928
12928;176838;34.40;547;03.10.57.928
12952;176846;34.40;548;03.10.57.928
12980;176836;34.40;549;03.10.57.928
12964;176846;34.40;550;03.10.58.026
12952;176852;34.40;551;03.10.58.026
12976;176846;34.40;552;03.10.58.026
12960;176852;34.40;553;03.10.58.026
12968;176854;34.40;554;03.10.58.037
12948;176849;34.40;555;03.10.58.037
12952;176846;34.40;556;03.10.58.037
12968;176855;34.40;557;03.10.58.037
12964;176846;34.40;558;03.10.58.037
12968;176860;34.40;559;03.10.58.037
12960;176859;34.40;560;03.10.58.037
12964;176859;34.40;561;03.10.58.037
12916;176860;34.40;562;03.10.58.037
12960;176861;34.40;563;03.10.58.037
12964;176863;34.40;564;03.10.58.037
12956;176860;34.40;565;03.10.58.037
12968;176859;34.40;566;03.10.58.037
12948;176864;34.40;567;03.10.58.048
12964;176865;34.40;568;03.10.58.048
12968;176872;34.40;569;03.10.58.048
12956;176857;34.40;570;03.10.58.048
12952;176857;34.40;571;03.10.58.048
12956;176852;34.40;572;03.10.58.048
12948;176861;34.40;573;03.10.58.048
12972;176864;34.40;574;03.10.58.048
12952;176868;34.44;575;03.10.58.169
12924;176865;34.44;576;03.10.58.169
12940;176865;34.44;577;03.10.58.169
12952;176868;34.44;578;03.10.58.169
12948;176868;34.44;579;03.10.58.169
12956;176864;34.44;580;03.10.58.169
12952;176871;34.44;581;03.10.58.169
12976;176870;34.44;582;03.10.58.169
12932;176863;34.44;583;03.10.58.169
12948;176872;34.44;584;03.10.58.169
12956;176865;34.44;585;03.10.58.169
12940;176871;34.44;586;03.10.58.169
12960;176858;34.44;587;03.10.58.180
12964;176857;34.44;588;03.10.58.180
12948;176863;34.44;589;03.10.58.180
12956;176857;34.44;590;03.10.58.180
12964;176853;34.44;591;03.10.58.180
12960;176856;34.44;592;03.10.58.180
12948;176848;34.44;593;03.10.58.180
12960;176856;34.44;594;03.10.58.180
12920;176846;34.44;595;03.10.58.180
12956;176847;34.44;596;03.10.58.180
12960;176835;34.44;597;03.10.58.180
12968;176848;34.44;598;03.10.58.180
12956;176843;34.44;599;03.10.58.180
12960;176838;34.44;600;03.10.58.279
12960;176846;34.44;601;03.10.58.279
12960;176841;34.44;602;03.10.58.279
12960;176845;34.44;603;03.10.58.279
12964;176842;34.44;604;03.10.58.279
12960;176839;34.44;605;03.10.58.279
12956;176847;34.44;606;03.10.58.279
12960;176839;34.44;607;03.10.58.279
12972;176833;34.44;608;03.10.58.301
12944;176835;34.44;609;03.10.58.301
12976;176833;34.44;610;03.10.58.301
12976;176841;34.44;611;03.10.58.301
12952;176825;34.44;612;03.10.58.301
12964;176833;34.44;613;03.10.58.301
12932;176831;34.44;614;03.10.58.301
12940;176838;34.44;615;03.10.58.301
12924;176840;34.44;616;03.10.58.301
12952;176845;34.44;617;03.10.58.312
12960;176839;34.44;618;03.10.58.312
12964;176844;34.44;619;03.10.58.312
12940;176842;34.44;620;03.10.58.312
13000;176836;34.44;621;03.10.58.312
12960;176854;34.44;622;03.10.58.312
12968;176846;34.44;623;03.10.58.312
12940;176843;34.44;624;03.10.58.312
12932;176847;34.44;625;03.10.58.399
12964;176842;34.44;626;03.10.58.399
12960;176839;34.44;627;03.10.58.399
12976;176851;34.44;628;03.10.58.399
12972;176836;34.44;629;03.10.58.399
12976;176847;34.44;630;03.10.58.399
12940;176843;34.44;631;03.10.58.410
12940;176844;34.44;632;03.10.58.410
12924;176853;34.44;633;03.10.58.410
12944;176846;34.44;634;03.10.58.410
12948;176844;34.44;635;03.10.58.410
12944;176852;34.44;636;03.10.58.410
12952;176842;34.44;637;03.10.58.410
12960;176847;34.44;638;03.10.58.410
12964;176839;34.44;639;03.10.58.410
12960;176846;34.44;640;03.10.58.410
12976;176840;34.44;641;03.10.58.410
12948;176840;34.44;642;03.10.58.410
12952;176844;34.44;643;03.10.58.421
12924;176839;34.44;644;03.10.58.421
12940;176843;34.44;645;03.10.58.421
12952;176843;34.44;646;03.10.58.421
12932;176846;34.44;647;03.10.58.421
12940;176847;34.44;648;03.10.58.421
12960;176840;34.44;649;03.10.58.421
12956;176848;34.44;650;03.10.58.530
12952;176838;34.44;651;03.10.58.541
12944;176845;34.44;652;03.10.58.541
12960;176847;34.44;653;03.10.58.541
12980;176850;34.44;654;03.10.58.541
12948;176844;34.44;655;03.10.58.541
12948;176834;34.44;656;03.10.58.541
12952;176843;34.44;657;03.10.58.541
12976;176843;34.44;658;03.10.58.541
12936;176849;34.44;659;03.10.58.541
12960;176833;34.44;660;03.10.58.541
12944;176842;34.44;661;03.10.58.541
12944;176831;34.44;662;03.10.58.541
12960;176833;34.44;663;03.10.58.552
12952;176844;34.44;664;03.10.58.552
12936;176836;34.44;665;03.10.58.552
12956;176836;34.44;666;03.10.58.552
12952;176842;34.44;667;03.10.58.552
12932;176851;34.44;668;03.10.58.552
12944;176849;34.44;669;03.10.58.552
12952;176851;34.44;670;03.10.58.552
12924;176843;34.44;671;03.10.58.552
12964;176856;34.44;672;03.10.58.552
12940;176849;34.44;673;03.10.58.552
12960;176858;34.44;674;03.10.58.552
12948;176856;34.40;675;03.10.58.662
12924;176855;34.40;676;03.10.58.662
12940;176855;34.40;677;03.10.58.662
12944;176854;34.40;678;03.10.58.662
12956;176858;34.40;679;03.10.58.662
12940;176852;34.40;680;03.10.58.662
12964;176849;34.40;681;03.10.58.662
12944;176858;34.40;682;03.10.58.662
12932;176864;34.40;683;03.10.58.662
12952;176867;34.40;684;03.10.58.673
12940;176861;34.40;685;03.10.58.673
12976;176858;34.40;686;03.10.58.673
12952;176862;34.40;687;03.10.58.673
12964;176866;34.40;688;03.10.58.673
12956;176868;34.40;689;03.10.58.673
12932;176861;34.40;690;03.10.58.673
12960;176864;34.40;691;03.10.58.673
12968;176870;34.40;692;03.10.58.673
12948;176867;34.40;693;03.10.58.673
12952;176870;34.40;694;03.10.58.673
12952;176870;34.40;695;03.10.58.673
12940;176873;34.40;696;03.10.58.673
12960;176866;34.40;697;03.10.58.684
12976;176867;34.40;698;03.10.58.684
12960;176879;34.40;699;03.10.58.684
12976;176873;34.40;700;03.10.58.792
12960;176870;34.40;701;03.10.58.792
12976;176879;34.40;702;03.10.58.792
12960;176863;34.40;703;03.10.58.792
12940;176868;34.40;704;03.10.58.792
12952;176873;34.40;705;03.10.58.803
12960;176866;34.40;706;03.10.58.803
12940;176866;34.40;707;03.10.58.803
12948;176866;34.40;708;03.10.58.803
12956;176863;34.40;709;03.10.58.803
12960;176863;34.40;710;03.10.58.803
12952;176859;34.40;711;03.10.58.803
12968;176863;34.40;712;03.10.58.803
12948;176859;34.40;713;03.10.58.803
12956;176852;34.40;714;03.10.58.803
12956;176852;34.40;715;03.10.58.803
12964;176840;34.40;716;03.10.58.803
12940;176847;34.40;717;03.10.58.803
12960;176849;34.40;718;03.10.58.814
12956;176838;34.40;719;03.10.58.814
12932;176841;34.40;720;03.10.58.814
12932;176842;34.40;721;03.10.58.814
12944;176834;34.40;722;03.10.58.814
12960;176841;34.40;723;03.10.58.814
12956;176834;34.40;724;03.10.58.814
12968;176849;34.44;725;03.10.58.924
12940;176838;34.44;726;03.10.58.935
12960;176840;34.44;727;03.10.58.935
12936;176841;34.44;728;03.10.58.935
12944;176838;34.44;729;03.10.58.935
12952;176844;34.44;730;03.10.58.935
12944;176843;34.44;731;03.10.58.935
12960;176839;34.44;732;03.10.58.935
12940;176835;34.44;733;03.10.58.935
12956;176836;34.44;734;03.10.58.935
12932;176836;34.44;735;03.10.58.935
12972;176832;34.44;736;03.10.58.935
12940;176832;34.44;737;03.10.58.935
12944;176833;34.44;738;03.10.58.946
12952;176837;34.44;739;03.10.58.946
12976;176837;34.44;740;03.10.58.946
12940;176839;34.44;741;03.10.58.946
12972;176837;34.44;742;03.10.58.946
12956;176840;34.44;743;03.10.58.957
12956;176848;34.44;744;03.10.58.957
12936;176840;34.44;745;03.10.58.957
12952;176844;34.44;746;03.10.58.957
12952;176838;34.44;747;03.10.58.957
12976;176847;34.44;748;03.10.58.957
12976;176847;34.44;749;03.10.58.957
12964;176840;34.44;750;03.10.59.034
12932;176833;34.44;751;03.10.59.034
12952;176836;34.44;752;03.10.59.034
12936;176832;34.44;753;03.10.59.034
12952;176833;34.44;754;03.10.59.034
12940;176836;34.44;755;03.10.59.034
12948;176842;34.44;756;03.10.59.034
12948;176842;34.44;757;03.10.59.034
12932;176848;34.44;758;03.10.59.034
12944;176850;34.44;759;03.10.59.034
12928;176839;34.44;760;03.10.59.034
12944;176841;34.44;761;03.10.59.045
12948;176832;34.44;762;03.10.59.045
12936;176843;34.44;763;03.10.59.045
12948;176840;34.44;764;03.10.59.045
12968;176844;34.44;765;03.10.59.045
12960;176839;34.44;766;03.10.59.045
12944;176843;34.44;767;03.10.59.045
12956;176843;34.44;768;03.10.59.045
12992;176843;34.44;769;03.10.59.045
12968;176840;34.44;770;03.10.59.045
12948;176839;34.44;771;03.10.59.045
12924;176839;34.44;772;03.10.59.045
12924;176843;34.44;773;03.10.59.056
12988;176843;34.44;774;03.10.59.056
12944;176843;34.44;775;03.10.59.165
12944;176854;34.44;776;03.10.59.165
12940;176851;34.44;777;03.10.59.165
12968;176852;34.44;778;03.10.59.165
12960;176853;34.44;779;03.10.59.165
12948;176849;34.44;780;03.10.59.165
12960;176848;34.44;781;03.10.59.165
12952;176850;34.44;782;03.10.59.176
12952;176857;34.44;783;03.10.59.176
12916;176856;34.44;784;03.10.59.176
12924;176859;34.44;785;03.10.59.176
12940;176858;34.44;786;03.10.59.176
12940;176859;34.44;787;03.10.59.176
12944;176859;34.44;788;03.10.59.176
12928;176863;34.44;789;03.10.59.176
12936;176865;34.44;790;03.10.59.176
12948;176867;34.44;791;03.10.59.176
12952;176856;34.44;792;03.10.59.176
12964;176862;34.44;793;03.10.59.176
12964;176867;34.44;794;03.10.59.176
12944;176864;34.44;795;03.10.59.187
12952;176865;34.44;796;03.10.59.187
12940;176867;34.44;797;03.10.59.187
12964;176863;34.44;798;03.10.59.187
12956;176865;34.44;799;03.10.59.187
12932;176862;34.44;800;03.10.59.286
12932;176866;34.44;801;03.10.59.286
12948;176871;34.44;802;03.10.59.297
12960;176873;34.44;803;03.10.59.297
12944;176878;34.44;804;03.10.59.297
12968;176865;34.44;805;03.10.59.297
12960;176863;34.44;806;03.10.59.297
12960;176875;34.44;807;03.10.59.297
12944;176874;34.44;808;03.10.59.297
12976;176876;34.44;809;03.10.59.297
12992;176870;34.44;810;03.10.59.297
12924;176875;34.44;811;03.10.59.297
12956;176887;34.44;812;03.10.59.297
12972;176887;34.44;813;03.10.59.297
12960;176882;34.44;814;03.10.59.297
12968;176881;34.44;815;03.10.59.297
12940;176884;34.44;816;03.10.59.308
12968;176878;34.44;817;03.10.59.308
12964;176879;34.44;818;03.10.59.308
12956;176880;34.44;819;03.10.59.308
12976;176885;34.44;820;03.10.59.308
12968;176876;34.44;821;03.10.59.308
12956;176875;34.44;822;03.10.59.308
12952;176873;34.44;823;03.10.59.308
12944;176878;34.44;824;03.10.59.308
12968;176867;34.40;825;03.10.59.407
12956;176876;34.40;826;03.10.59.407
12952;176872;34.40;827;03.10.59.407
12968;176868;34.40;828;03.10.59.407
12960;176867;34.40;829;03.10.59.407
12948;176864;34.40;830;03.10.59.407
12960;176859;34.40;831;03.10.59.407
12976;176861;34.40;832;03.10.59.407
12956;176851;34.40;833;03.10.59.407
12944;176854;34.40;834;03.10.59.407
12964;176854;34.40;835;03.10.59.407
12948;176853;34.40;836;03.10.59.407
12956;176857;34.40;837;03.10.59.418
12952;176845;34.40;838;03.10.59.418
12960;176851;34.40;839;03.10.59.418
12960;176848;34.40;840;03.10.59.418
12956;176846;34.40;841;03.10.59.418
12948;176844;34.40;842;03.10.59.440
12952;176843;34.40;843;03.10.59.440
12972;176845;34.40;844;03.10.59.440
12924;176834;34.40;845;03.10.59.440
12952;176850;34.40;846;03.10.59.440
12952;176838;34.40;847;03.10.59.440
12948;176841;34.40;848;03.10.59.440
12944;176846;34.40;849;03.10.59.440
12940;176851;34.40;850;03.10.59.538
12964;176843;34.40;851;03.10.59.538
12936;176849;34.40;852;03.10.59.538
12964;176843;34.40;853;03.10.59.538
12980;176844;34.40;854;03.10.59.538
12948;176848;34.40;855;03.10.59.538
12952;176842;34.40;856;03.10.59.538
12976;176842;34.40;857;03.10.59.538
12956;176845;34.40;858;03.10.59.571
12972;176844;34.40;859;03.10.59.571
12960;176843;34.40;860;03.10.59.571
12932;176836;34.40;861;03.10.59.571
12964;176835;34.40;862;03.10.59.571
12972;176841;34.40;863;03.10.59.571
12964;176833;34.40;864;03.10.59.571
12948;176830;34.40;865;03.10.59.571
12936;176832;34.40;866;03.10.59.582
12964;176831;34.40;867;03.10.59.582
12940;176837;34.40;868;03.10.59.582
12960;176841;34.40;869;03.10.59.582
12924;176833;34.40;870;03.10.59.582
12940;176829;34.40;871;03.10.59.582
12960;176835;34.40;872;03.10.59.582
12948;176838;34.40;873;03.10.59.582
12976;176831;34.40;874;03.10.59.582
12936;176829;34.40;875;03.10.59.659
12952;176828;34.40;876;03.10.59.659
12948;176828;34.40;877;03.10.59.659
12968;176827;34.40;878;03.10.59.659
12948;176832;34.40;879;03.10.59.669
12948;176834;34.40;880;03.10.59.669
12960;176831;34.40;881;03.10.59.669
12944;176827;34.40;882;03.10.59.669
12956;176838;34.40;883;03.10.59.669
12940;176831;34.40;884;03.10.59.669
12948;176830;34.40;885;03.10.59.669
12924;176827;34.40;886;03.10.59.669
12968;176829;34.40;887;03.10.59.669
12964;176830;34.40;888;03.10.59.669
12956;176825;34.40;889;03.10.59.669
12960;176823;34.40;890;03.10.59.669
12952;176830;34.40;891;03.10.59.669
12956;176833;34.40;892;03.10.59.680
12960;176834;34.40;893;03.10.59.680
12952;176829;34.40;894;03.10.59.680
12944;176832;34.40;895;03.10.59.680
12964;176832;34.40;896;03.10.59.680
12960;176826;34.40;897;03.10.59.680
12960;176830;34.40;898;03.10.59.680
12976;176830;34.40;899;03.10.59.680
12960;176828;34.40;900;03.10.59.801
12976;176827;34.40;901;03.10.59.801
12992;176828;34.40;902;03.10.59.801
12956;176831;34.40;903;03.10.59.801
12924;176824;34.40;904;03.10.59.801
12980;176824;34.40;905;03.10.59.801
12956;176825;34.40;906;03.10.59.801
12948;176826;34.40;907;03.10.59.801
12952;176831;34.40;908;03.10.59.801
12948;176833;34.40;909;03.10.59.801
12940;176827;34.40;910;03.10.59.801
12944;176826;34.40;911;03.10.59.801
12948;176833;34.40;912;03.10.59.801
12944;176832;34.40;913;03.10.59.812
12952;176829;34.40;914;03.10.59.812
12940;176827;34.40;915;03.10.59.812
12940;176833;34.40;916;03.10.59.812
12952;176837;34.40;917;03.10.59.812
12948;176832;34.40;918;03.10.59.812
12952;176835;34.40;919;03.10.59.812
12924;176829;34.40;920;03.10.59.812
12948;176832;34.40;921;03.10.59.812
12996;176832;34.40;922;03.10.59.812
12932;176823;34.40;923;03.10.59.812
12968;176830;34.40;924;03.10.59.812
12944;176833;34.40;925;03.10.59.932
12944;176831;34.40;926;03.10.59.932
12948;176827;34.40;927;03.10.59.932
12960;176839;34.40;928;03.10.59.932
12968;176833;34.40;929;03.10.59.932
12968;176837;34.40;930;03.10.59.932
12948;176832;34.40;931;03.10.59.932
12944;176835;34.40;932;03.10.59.932
12956;176830;34.40;933;03.10.59.943
12952;176832;34.40;934;03.10.59.943
12932;176832;34.40;935;03.10.59.943
12968;176836;34.40;936;03.10.59.943
12960;176824;34.40;937;03.10.59.943
12936;176824;34.40;938;03.10.59.943
12908;176829;34.40;939;03.10.59.943
12940;176821;34.40;940;03.10.59.943
12932;176824;34.40;941;03.10.59.943
12940;176818;34.40;942;03.10.59.954
12956;176819;34.40;943;03.10.59.954
12952;176811;34.40;944;03.10.59.954
12964;176817;34.40;945;03.10.59.954
12948;176818;34.40;946;03.10.59.954
12976;176812;34.40;947;03.10.59.954
12920;176809;34.40;948;03.10.59.954
12956;176808;34.40;949;03.10.59.954
12940;176805;34.40;950;03.11.00.031
12964;176812;34.40;951;03.11.00.031
12948;176814;34.40;952;03.11.00.031
12944;176809;34.40;953;03.11.00.031
12968;176798;34.40;954;03.11.00.031
12944;176806;34.40;955;03.11.00.042
12928;176800;34.40;956;03.11.00.042
12968;176803;34.40;957;03.11.00.042
12952;176804;34.40;958;03.11.00.042
12948;176804;34.40;959;03.11.00.042
12960;176797;34.40;960;03.11.00.042
12940;176792;34.40;961;03.11.00.042
12960;176795;34.40;962;03.11.00.042
12944;176802;34.40;963;03.11.00.042
12984;176790;34.40;964;03.11.00.042
12948;176798;34.40;965;03.11.00.042
12968;176796;34.40;966;03.11.00.042
12960;176787;34.40;967;03.11.00.064
12944;176802;34.40;968;03.11.00.064
12952;176793;34.40;969;03.11.00.064
12964;176798;34.40;970;03.11.00.064
12928;176798;34.40;971;03.11.00.075
12952;176794;34.40;972;03.11.00.075
12964;176799;34.40;973;03.11.00.075
12980;176796;34.40;974;03.11.00.075
12908;176800;34.44;975;03.11.00.152
12944;176793;34.44;976;03.11.00.152
12924;176801;34.44;977;03.11.00.163
12964;176798;34.44;978;03.11.00.163
12924;176799;34.44;979;03.11.00.163
12940;176796;34.44;980;03.11.00.163
12960;176800;34.44;981;03.11.00.163
12940;176796;34.44;982;03.11.00.163
12936;176785;34.44;983;03.11.00.163
12940;176797;34.44;984;03.11.00.163
12936;176801;34.44;985;03.11.00.163
12960;176788;34.44;986;03.11.00.163
12964;176802;34.44;987;03.11.00.163
12932;176801;34.44;988;03.11.00.163
12952;176801;34.44;989;03.11.00.163
12968;176793;34.44;990;03.11.00.174
12952;176794;34.44;991;03.11.00.174
12960;176798;34.44;992;03.11.00.174
12944;176796;34.44;993;03.11.00.174
12976;176793;34.44;994;03.11.00.174
12936;176800;34.44;995;03.11.00.174
12920;176801;34.44;996;03.11.00.174
12952;176800;34.44;997;03.11.00.174
12960;176794;34.44;998;03.11.00.174
12968;176794;34.44;999;03.11.00.174
12944;176798;34.44;000;03.11.00.305
12904;176801;34.44;001;03.11.00.305
12940;176798;34.44;002;03.11.00.305
12948;176799;34.44;003;03.11.00.305
12952;176798;34.44;004;03.11.00.305
12952;176805;34.44;005;03.11.00.305
12936;176795;34.44;006;03.11.00.305
12956;176790;34.44;007;03.11.00.305
12924;176799;34.44;008;03.11.00.305
12924;176799;34.44;009;03.11.00.305
12984;176797;34.44;010;03.11.00.305
12964;176798;34.44;011;03.11.00.316
12948;176792;34.44;012;03.11.00.316
12936;176791;34.44;013;03.11.00.316
12956;176801;34.44;014;03.11.00.316
12944;176792;34.44;015;03.11.00.316
12948;176790;34.44;016;03.11.00.316
12920;176799;34.44;017;03.11.00.338
12960;176796;34.44;018;03.11.00.338
12940;176798;34.44;019;03.11.00.338
12948;176806;34.44;020;03.11.00.338
12940;176804;34.44;021;03.11.00.338
12944;176803;34.44;022;03.11.00.338
12972;176805;34.44;023;03.11.00.338
12972;176809;34.44;024;03.11.00.338
12964;176805;34.40;025;03.11.00.426
12936;176803;34.40;026;03.11.00.426
12936;176804;34.40;027;03.11.00.426
12948;176800;34.40;028;03.11.00.426
12972;176807;34.40;029;03.11.00.426
12936;176801;34.40;030;03.11.00.426
12960;176805;34.40;031;03.11.00.426
12936;176803;34.40;032;03.11.00.426
12956;176812;34.40;033;03.11.00.437
12936;176804;34.40;034;03.11.00.437
12932;176804;34.40;035;03.11.00.437
12968;176801;34.40;036;03.11.00.437
12944;176806;34.40;037;03.11.00.437
12924;176808;34.40;038;03.11.00.437
12964;176813;34.40;039;03.11.00.437
12948;176796;34.40;040;03.11.00.437
12960;176805;34.40;041;03.11.00.437
12944;176803;34.40;042;03.11.00.437
12932;176811;34.40;043;03.11.00.437
12964;176809;34.40;044;03.11.00.437
12956;176814;34.40;045;03.11.00.448
12956;176814;34.40;046;03.11.00.448
12952;176816;34.40;047;03.11.00.448
12936;176805;34.40;048;03.11.00.448
12972;176812;34.40;049;03.11.00.448
12976;176816;34.40;050;03.11.00.525
12940;176819;34.40;051;03.11.00.525
12972;176816;34.40;052;03.11.00.525
12924;176817;34.40;053;03.11.00.525
12948;176812;34.40;054;03.11.00.536
12944;176814;34.40;055;03.11.00.536
12956;176809;34.40;056;03.11.00.536
12948;176807;34.40;057;03.11.00.536
12984;176816;34.40;058;03.11.00.536
12952;176809;34.40;059;03.11.00.536
12960;176806;34.40;060;03.11.00.536
12944;176802;34.40;061;03.11.00.536
12960;176801;34.40;062;03.11.00.536
12960;176805;34.40;063;03.11.00.547
12968;176806;34.40;064;03.11.00.547
12944;176793;34.40;065;03.11.00.547
12968;176791;34.40;066;03.11.00.547
12940;176798;34.40;067;03.11.00.558
12944;176790;34.40;068;03.11.00.558
12940;176785;34.40;069;03.11.00.558
12960;176786;34.40;070;03.11.00.558
12948;176779;34.40;071;03.11.00.569
12936;176772;34.40;072;03.11.00.569
12944;176774;34.40;073;03.11.00.569
12964;176772;34.40;074;03.11.00.569
12948;176773;34.40;075;03.11.00.645
12960;176771;34.40;076;03.11.00.656
12948;176772;34.40;077;03.11.00.656
12952;176765;34.40;078;03.11.00.656
12992;176766;34.40;079;03.11.00.656
12944;176767;34.40;080;03.11.00.656
12936;176761;34.40;081;03.11.00.656
12956;176769;34.40;082;03.11.00.656
12964;176765;34.40;083;03.11.00.656
12960;176767;34.40;084;03.11.00.656
12916;176766;34.40;085;03.11.00.656
12968;176758;34.40;086;03.11.00.656
12916;176763;34.40;087;03.11.00.656
12924;176755;34.40;088;03.11.00.667
12956;176758;34.40;089;03.11.00.667
12936;176761;34.40;090;03.11.00.667
12932;176758;34.40;091;03.11.00.667
12960;176763;34.40;092;03.11.00.667
12952;176764;34.40;093;03.11.00.667
12952;176754;34.40;094;03.11.00.667
12940;176752;34.40;095;03.11.00.667
12968;176751;34.40;096;03.11.00.667
12928;176758;34.40;097;03.11.00.667
12924;176756;34.40;098;03.11.00.667
12960;176758;34.40;099;03.11.00.667
12940;176756;34.40;100;03.11.00.788
12948;176756;34.40;101;03.11.00.788
12952;176761;34.40;102;03.11.00.788
12956;176754;34.40;103;03.11.00.788
12960;176753;34.40;104;03.11.00.788
12920;176761;34.40;105;03.11.00.788
12960;176758;34.40;106;03.11.00.788
12944;176759;34.40;107;03.11.00.788
12940;176758;34.40;108;03.11.00.810
12968;176760;34.40;109;03.11.00.810
12968;176767;34.40;110;03.11.00.810
12940;176758;34.40;111;03.11.00.810
12940;176764;34.40;112;03.11.00.810
12924;176770;34.40;113;03.11.00.810
12924;176761;34.40;114;03.11.00.810
12960;176761;34.40;115;03.11.00.810
12956;176759;34.40;116;03.11.00.810
12960;176769;34.40;117;03.11.00.832
12944;176759;34.40;118;03.11.00.832
12928;176765;34.40;119;03.11.00.832
12968;176765;34.40;120;03.11.00.832
12924;176757;34.40;121;03.11.00.832
12936;176769;34.40;122;03.11.00.832
12944;176759;34.40;123;03.11.00.832
12960;176761;34.40;124;03.11.00.832
12944;176762;34.40;125;03.11.00.920
12964;176762;34.40;126;03.11.00.920
12992;176754;34.40;127;03.11.00.920
12940;176757;34.40;128;03.11.00.920
12952;176753;34.40;129;03.11.00.920
12924;176758;34.40;130;03.11.00.920
12948;176753;34.40;131;03.11.00.931
12944;176749;34.40;132;03.11.00.931
12964;176757;34.40;133;03.11.00.931
12952;176751;34.40;134;03.11.00.931
12932;176756;34.40;135;03.11.00.931
12960;176754;34.40;136;03.11.00.931
12924;176758;34.40;137;03.11.00.931
12952;176754;34.40;138;03.11.00.931
12944;176753;34.40;139;03.11.00.931
12936;176756;34.40;140;03.11.00.931
12948;176759;34.40;141;03.11.00.931
12924;176754;34.40;142;03.11.00.931
12968;176771;34.40;143;03.11.00.931
12968;176766;34.40;144;03.11.00.942
12968;176766;34.40;145;03.11.00.942
12944;176768;34.40;146;03.11.00.942
12948;176771;34.40;147;03.11.00.942
12956;176763;34.40;148;03.11.00.942
12960;176765;34.40;149;03.11.00.942
12948;176770;34.40;150;03.11.01.029
12964;176769;34.40;151;03.11.01.029
12940;176769;34.40;152;03.11.01.040
12952;176768;34.40;153;03.11.01.040
12968;176769;34.40;154;03.11.01.040
12952;176767;34.40;155;03.11.01.040
12948;176772;34.40;156;03.11.01.040
12940;176773;34.40;157;03.11.01.040
12932;176776;34.40;158;03.11.01.051
12936;176778;34.40;159;03.11.01.051
12964;176776;34.40;160;03.11.01.062
12936;176777;34.40;161;03.11.01.062
12932;176781;34.40;162;03.11.01.062
12960;176780;34.40;163;03.11.01.062
12960;176781;34.40;164;03.11.01.062
12944;176779;34.40;165;03.11.01.062
12928;176789;34.40;166;03.11.01.062
12964;176785;34.40;167;03.11.01.062
12948;176785;34.40;168;03.11.01.062
12916;176790;34.40;169;03.11.01.062
12968;176794;34.40;170;03.11.01.062
12960;176785;34.40;171;03.11.01.062
12980;176783;34.40;172;03.11.01.062
12956;176784;34.40;173;03.11.01.073
12980;176790;34.40;174;03.11.01.073
12928;176791;34.40;175;03.11.01.160
12960;176789;34.40;176;03.11.01.160
12944;176801;34.40;177;03.11.01.160
12948;176794;34.40;178;03.11.01.160
12956;176799;34.40;179;03.11.01.160
12952;176808;34.40;180;03.11.01.160
12956;176806;34.40;181;03.11.01.160
12948;176805;34.40;182;03.11.01.160
12944;176813;34.40;183;03.11.01.171
12928;176802;34.40;184;03.11.01.171
12952;176804;34.40;185;03.11.01.171
12992;176808;34.40;186;03.11.01.171
12960;176811;34.40;187;03.11.01.171
12920;176801;34.40;188;03.11.01.171
12928;176805;34.40;189;03.11.01.171
12964;176802;34.40;190;03.11.01.171
12992;176809;34.40;191;03.11.01.171
12964;176807;34.40;192;03.11.01.171
12928;176804;34.40;193;03.11.01.171
12936;176804;34.40;194;03.11.01.171
12948;176804;34.40;195;03.11.01.171
12956;176808;34.40;196;03.11.01.182
12948;176801;34.40;197;03.11.01.182
12924;176814;34.40;198;03.11.01.182
12936;176806;34.40;199;03.11.01.182
12924;176795;34.40;200;03.11.01.281
12992;176796;34.40;201;03.11.01.281
12932;176802;34.40;202;03.11.01.281
12908;176798;34.40;203;03.11.01.281
12944;176804;34.40;204;03.11.01.281
12968;176793;34.40;205;03.11.01.281
12948;176790;34.40;206;03.11.01.281
12960;176798;34.40;207;03.11.01.292
12972;176788;34.40;208;03.11.01.292
12960;176791;34.40;209;03.11.01.292
12928;176798;34.40;210;03.11.01.292
12952;176784;34.40;211;03.11.01.292
12948;176778;34.40;212;03.11.01.292
12948;176775;34.40;213;03.11.01.292
12928;176780;34.40;214;03.11.01.292
12948;176778;34.40;215;03.11.01.292
12956;176777;34.40;216;03.11.01.292
12968;176775;34.40;217;03.11.01.292
12952;176772;34.40;218;03.11.01.292
12932;176772;34.40;219;03.11.01.292
12936;176782;34.40;220;03.11.01.303
12924;176779;34.40;221;03.11.01.303
12908;176772;34.40;222;03.11.01.303
12936;176765;34.40;223;03.11.01.303
12952;176765;34.40;224;03.11.01.303
12940;176771;34.40;225;03.11.01.413
12944;176769;34.40;226;03.11.01.413
12964;176768;34.40;227;03.11.01.413
12932;176769;34.40;228;03.11.01.413
12940;176756;34.40;229;03.11.01.424
12960;176760;34.40;230;03.11.01.424
12960;176761;34.40;231;03.11.01.424
12940;176760;34.40;232;03.11.01.424
12968;176770;34.40;233;03.11.01.424
12984;176767;34.40;234;03.11.01.424
12952;176766;34.40;235;03.11.01.424
12952;176768;34.40;236;03.11.01.424
12964;176769;34.40;237;03.11.01.424
12940;176768;34.40;238;03.11.01.424
12940;176766;34.40;239;03.11.01.424
12960;176761;34.40;240;03.11.01.424
12960;176769;34.40;241;03.11.01.435
12964;176765;34.40;242;03.11.01.435
12956;176768;34.40;243;03.11.01.435
12948;176765;34.40;244;03.11.01.435
12944;176764;34.40;245;03.11.01.435
12944;176763;34.40;246;03.11.01.435
12952;176766;34.40;247;03.11.01.435
12956;176769;34.40;248;03.11.01.435
12992;176769;34.40;249;03.11.01.435
12932;176761;34.40;250;03.11.01.533
12960;176773;34.40;251;03.11.01.544
12952;176782;34.40;252;03.11.01.544
12956;176768;34.40;253;03.11.01.544
12956;176770;34.40;254;03.11.01.544
12924;176771;34.40;255;03.11.01.544
12948;176775;34.40;256;03.11.01.544
12960;176771;34.40;257;03.11.01.544
12964;176772;34.40;258;03.11.01.555
12972;176771;34.40;259;03.11.01.555
12948;176770;34.40;260;03.11.01.555
12960;176773;34.40;261;03.11.01.555
12952;176775;34.40;262;03.11.01.555
12944;176774;34.40;263;03.11.01.555
12972;176772;34.40;264;03.11.01.555
12940;176768;34.40;265;03.11.01.555
12964;176771;34.40;266;03.11.01.555
12944;176774;34.40;267;03.11.01.599
12960;176780;34.40;268;03.11.01.599
12960;176773;34.40;269;03.11.01.599
12940;176764;34.40;270;03.11.01.599
12964;176772;34.40;271;03.11.01.599
12960;176772;34.40;272;03.11.01.599
12960;176778;34.40;273;03.11.01.599
12956;176777;34.40;274;03.11.01.599
12952;176777;34.40;275;03.11.01.653
12952;176777;34.40;276;03.11.01.653
12944;176782;34.40;277;03.11.01.653
12936;176779;34.40;278;03.11.01.653
12968;176776;34.40;279;03.11.01.653
12936;176779;34.40;280;03.11.01.653
12948;176782;34.40;281;03.11.01.653
12976;176788;34.40;282;03.11.01.653
12960;176785;34.40;283;03.11.01.664
12964;176779;34.40;284;03.11.01.664
12916;176775;34.40;285;03.11.01.664
12924;176776;34.40;286;03.11.01.664
12952;176783;34.40;287;03.11.01.664
12956;176783;34.40;288;03.11.01.664
12960;176787;34.40;289;03.11.01.664
12936;176792;34.40;290;03.11.01.664
12944;176786;34.40;291;03.11.01.664
12940;176793;34.40;292;03.11.01.686
12968;176793;34.40;293;03.11.01.686
12940;176794;34.40;294;03.11.01.686
12948;176795;34.40;295;03.11.01.686
12976;176791;34.40;296;03.11.01.686
12964;176799;34.40;297;03.11.01.686
12956;176789;34.40;298;03.11.01.686
12940;176794;34.40;299;03.11.01.686
12956;176795;34.40;300;03.11.01.774
12948;176801;34.40;301;03.11.01.774
12952;176800;34.40;302;03.11.01.774
12960;176796;34.40;303;03.11.01.774
12956;176798;34.40;304;03.11.01.785
12948;176796;34.40;305;03.11.01.785
12960;176798;34.40;306;03.11.01.785
12932;176798;34.40;307;03.11.01.785
12924;176788;34.40;308;03.11.01.785
12940;176805;34.40;309;03.11.01.785
12936;176803;34.40;310;03.11.01.785
12948;176806;34.40;311;03.11.01.785
12964;176813;34.40;312;03.11.01.785
12940;176807;34.40;313;03.11.01.796
12980;176807;34.40;314;03.11.01.796
12952;176800;34.40;315;03.11.01.796
12952;176799;34.40;316;03.11.01.796
12924;176801;34.40;317;03.11.01.796
12928;176802;34.40;318;03.11.01.796
12952;176809;34.40;319;03.11.01.796
12948;176811;34.40;320;03.11.01.796
12932;176808;34.40;321;03.11.01.796
12968;176807;34.40;322;03.11.01.806
12936;176805;34.40;323;03.11.01.806
12948;176812;34.40;324;03.11.01.806
12952;176805;34.40;325;03.11.01.905
12952;176815;34.40;326;03.11.01.916
12968;176820;34.40;327;03.11.01.916
12916;176821;34.40;328;03.11.01.916
12944;176820;34.40;329;03.11.01.916
12968;176815;34.40;330;03.11.01.916
12944;176818;34.40;331;03.11.01.916
12968;176820;34.40;332;03.11.01.916
12964;176826;34.40;333;03.11.01.916
12936;176827;34.40;334;03.11.01.916
12956;176829;34.40;335;03.11.01.916
12948;176823;34.40;336;03.11.01.916
12944;176825;34.40;337;03.11.01.916
12912;176829;34.40;338;03.11.01.927
12952;176831;34.40;339;03.11.01.927
12940;176823;34.40;340;03.11.01.927
12944;176840;34.40;341;03.11.01.927
12960;176830;34.40;342;03.11.01.927
12992;176836;34.40;343;03.11.01.927
12952;176838;34.40;344;03.11.01.927
12956;176842;34.40;345;03.11.01.927
12944;176838;34.40;346;03.11.01.927
12940;176830;34.40;347;03.11.01.927
12944;176837;34.40;348;03.11.01.927
12940;176836;34.40;349;03.11.01.927
12948;176835;34.40;350;03.11.02.048
12928;176837;34.40;351;03.11.02.048
12964;176836;34.40;352;03.11.02.048
12976;176839;34.40;353;03.11.02.048
12956;176837;34.40;354;03.11.02.048
12948;176837;34.40;355;03.11.02.048
12944;176829;34.40;356;03.11.02.048
12960;176829;34.40;357;03.11.02.048
12940;176831;34.40;358;03.11.02.048
12980;176828;34.40;359;03.11.02.048
12960;176822;34.40;360;03.11.02.059
12948;176824;34.40;361;03.11.02.059
12944;176821;34.40;362;03.11.02.059
12944;176826;34.40;363;03.11.02.059
12904;176819;34.40;364;03.11.02.059
12976;176822;34.40;365;03.11.02.059
12960;176811;34.40;366;03.11.02.059
12944;176809;34.40;367;03.11.02.059
12960;176809;34.40;368;03.11.02.059
12940;176807;34.40;369;03.11.02.059
12952;176810;34.40;370;03.11.02.059
12944;176794;34.40;371;03.11.02.059
12976;176796;34.40;372;03.11.02.059
12924;176808;34.40;373;03.11.02.070
12964;176790;34.40;374;03.11.02.070
12952;176791;34.40;375;03.11.02.158
12948;176796;34.40;376;03.11.02.158
12976;176791;34.40;377;03.11.02.158
12960;176790;34.40;378;03.11.02.158
12948;176793;34.40;379;03.11.02.158
12924;176796;34.40;380;03.11.02.158
12940;176787;34.40;381;03.11.02.158
12944;176790;34.40;382;03.11.02.169
12972;176788;34.40;383;03.11.02.180
12944;176789;34.40;384;03.11.02.180
12924;176795;34.40;385;03.11.02.180
12936;176793;34.40;386;03.11.02.180
12940;176792;34.40;387;03.11.02.180
12964;176797;34.40;388;03.11.02.180
12976;176792;34.40;389;03.11.02.180
12968;176786;34.40;390;03.11.02.180
12928;176785;34.40;391;03.11.02.190
12968;176784;34.40;392;03.11.02.190
12960;176788;34.40;393;03.11.02.190
12960;176790;34.40;394;03.11.02.190
12944;176783;34.40;395;03.11.02.190
12952;176793;34.40;396;03.11.02.190
12976;176790;34.40;397;03.11.02.190
12960;176782;34.40;398;03.11.02.190
12960;176777;34.40;399;03.11.02.190
12960;176786;34.40;400;03.11.02.278
12952;176784;34.40;401;03.11.02.278
12960;176783;34.40;402;03.11.02.278
12968;176790;34.40;403;03.11.02.290
12960;176787;34.40;404;03.11.02.290
12968;176793;34.40;405;03.11.02.290
12960;176790;34.40;406;03.11.02.290
12952;176783;34.40;407;03.11.02.290
12952;176786;34.40;408;03.11.02.290
12960;176798;34.40;409;03.11.02.290
12932;176788;34.40;410;03.11.02.290
12924;176787;34.40;411;03.11.02.290
12952;176795;34.40;412;03.11.02.290
12960;176795;34.40;413;03.11.02.290
12952;176797;34.40;414;03.11.02.290
12952;176791;34.40;415;03.11.02.290
12952;176792;34.40;416;03.11.02.290
12928;176795;34.40;417;03.11.02.301
12960;176789;34.40;418;03.11.02.301
12924;176788;34.40;419;03.11.02.301
12956;176790;34.40;420;03.11.02.301
12940;176785;34.40;421;03.11.02.301
12968;176797;34.40;422;03.11.02.301
12964;176795;34.40;423;03.11.02.301
12976;176791;34.40;424;03.11.02.301
12952;176782;34.40;425;03.11.02.411
12960;176783;34.40;426;03.11.02.411
12948;176785;34.40;427;03.11.02.411
12964;176792;34.40;428;03.11.02.411
12960;176794;34.40;429;03.11.02.411
12940;176788;34.40;430;03.11.02.411
12928;176793;34.40;431;03.11.02.411
12932;176801;34.40;432;03.11.02.411
12976;176798;34.40;433;03.11.02.411
12956;176801;34.40;434;03.11.02.411
12956;176791;34.40;435;03.11.02.411
12960;176793;34.40;436;03.11.02.411
12944;176795;34.40;437;03.11.02.411
12960;176802;34.40;438;03.11.02.422
12964;176802;34.40;439;03.11.02.422
12944;176797;34.40;440;03.11.02.422
12960;176795;34.40;441;03.11.02.422
12956;176801;34.40;442;03.11.02.422
12920;176803;34.40;443;03.11.02.422
12952;176802;34.40;444;03.11.02.422
12960;176808;34.40;445;03.11.02.422
12976;176809;34.40;446;03.11.02.422
12948;176803;34.40;447;03.11.02.422
12980;176807;34.40;448;03.11.02.422
12956;176802;34.40;449;03.11.02.422
12928;176808;34.40;450;03.11.02.543
12956;176803;34.40;451;03.11.02.543
12960;176807;34.40;452;03.11.02.543
12924;176807;34.40;453;03.11.02.543
12956;176799;34.40;454;03.11.02.543
12928;176808;34.40;455;03.11.02.543
12928;176817;34.40;456;03.11.02.543
12956;176806;34.40;457;03.11.02.543
12952;176810;34.40;458;03.11.02.543
12968;176812;34.40;459;03.11.02.554
12948;176818;34.40;460;03.11.02.554
12932;176822;34.40;461;03.11.02.554
12940;176813;34.40;462;03.11.02.554
12932;176824;34.40;463;03.11.02.554
12968;176818;34.40;464;03.11.02.554
12924;176819;34.40;465;03.11.02.554
12948;176821;34.40;466;03.11.02.554
12968;176824;34.40;467;03.11.02.554
12920;176826;34.40;468;03.11.02.554
12992;176827;34.40;469;03.11.02.554
12952;176827;34.40;470;03.11.02.554
12944;176829;34.40;471;03.11.02.554
12940;176830;34.40;472;03.11.02.564
12976;176827;34.40;473;03.11.02.564
12968;176833;34.40;474;03.11.02.564
12960;176832;34.40;475;03.11.02.652
12960;176833;34.40;476;03.11.02.652
12968;176831;34.40;477;03.11.02.652
12960;176838;34.40;478;03.11.02.652
12948;176836;34.40;479;03.11.02.652
12952;176834;34.40;480;03.11.02.652
12992;176840;34.40;481;03.11.02.663
12956;176846;34.40;482;03.11.02.663
12956;176842;34.40;483;03.11.02.663
12944;176847;34.40;484;03.11.02.663
12956;176841;34.40;485;03.11.02.663
12960;176835;34.40;486;03.11.02.663
12948;176841;34.40;487;03.11.02.663
12940;176843;34.40;488;03.11.02.674
12940;176844;34.40;489;03.11.02.674
12920;176843;34.40;490;03.11.02.674
12924;176840;34.40;491;03.11.02.674
12916;176836;34.40;492;03.11.02.674
12952;176845;34.40;493;03.11.02.674
12932;176847;34.40;494;03.11.02.674
12936;176839;34.40;495;03.11.02.674
12944;176847;34.40;496;03.11.02.674
12948;176846;34.40;497;03.11.02.674
12948;176848;34.40;498;03.11.02.674
12968;176849;34.40;499;03.11.02.674
12952;176852;34.40;500;03.11.02.794
12956;176851;34.40;501;03.11.02.794
12924;176852;34.40;502;03.11.02.794
12940;176852;34.40;503;03.11.02.794
12944;176859;34.40;504;03.11.02.794
12932;176857;34.40;505;03.11.02.794
12976;176860;34.40;506;03.11.02.794
12952;176864;34.40;507;03.11.02.794
12940;176866;34.40;508;03.11.02.805
12948;176862;34.40;509;03.11.02.805
12948;176861;34.40;510;03.11.02.805
12920;176861;34.40;511;03.11.02.805
12952;176869;34.40;512;03.11.02.805
12976;176863;34.40;513;03.11.02.805
12960;176867;34.40;514;03.11.02.805
12964;176864;34.40;515;03.11.02.805
12964;176865;34.40;516;03.11.02.805
12952;176858;34.40;517;03.11.02.805
12944;176857;34.40;518;03.11.02.805
12960;176865;34.40;519;03.11.02.805
12932;176861;34.40;520;03.11.02.805
12968;176858;34.40;521;03.11.02.816
12924;176853;34.40;522;03.11.02.816
12936;176850;34.40;523;03.11.02.816
12956;176856;34.40;524;03.11.02.816
12960;176851;34.40;525;03.11.02.915
12952;176837;34.40;526;03.11.02.915
12952;176850;34.40;527;03.11.02.915
12948;176840;34.40;528;03.11.02.915
12932;176837;34.40;529;03.11.02.915
12964;176843;34.40;530;03.11.02.915
12952;176841;34.40;531;03.11.02.915
12948;176834;34.40;532;03.11.02.915
12972;176831;34.40;533;03.11.02.926
12964;176837;34.40;534;03.11.02.926
12940;176836;34.40;535;03.11.02.926
12964;176839;34.40;536;03.11.02.926
12956;176842;34.40;537;03.11.02.926
12956;176832;34.40;538;03.11.02.926
12960;176832;34.40;539;03.11.02.926
12960;176830;34.40;540;03.11.02.926
12960;176832;34.40;541;03.11.02.926
12948;176838;34.40;542;03.11.02.937
12956;176827;34.40;543;03.11.02.937
12940;176827;34.40;544;03.11.02.937
12968;176831;34.40;545;03.11.02.937
12900;176835;34.40;546;03.11.02.937
12936;176828;34.40;547;03.11.02.937
12940;176830;34.40;548;03.11.02.937
12964;176829;34.40;549;03.11.02.937
12964;176825;34.40;550;03.11.03.035
12960;176836;34.40;551;03.11.03.035
12960;176825;34.40;552;03.11.03.035
12964;176829;34.40;553;03.11.03.035
12940;176830;34.40;554;03.11.03.035
12960;176834;34.40;555;03.11.03.035
12944;176835;34.40;556;03.11.03.035
12960;176841;34.40;557;03.11.03.046
12964;176838;34.40;558;03.11.03.046
12952;176828;34.40;559;03.11.03.046
12944;176837;34.40;560;03.11.03.046
12948;176837;34.40;561;03.11.03.046
12964;176842;34.40;562;03.11.03.046
12952;176841;34.40;563;03.11.03.046
12960;176830;34.40;564;03.11.03.046
12952;176830;34.40;565;03.11.03.046
12956;176828;34.40;566;03.11.03.046
12952;176832;34.40;567;03.11.03.046
12944;176838;34.40;568;03.11.03.046
12980;176836;34.40;569;03.11.03.057
12968;176835;34.40;570;03.11.03.057
12936;176834;34.40;571;03.11.03.057
12952;176835;34.40;572;03.11.03.057
12952;176829;34.40;573;03.11.03.057
12948;176837;34.40;574;03.11.03.057
12964;176839;34.40;575;03.11.03.166
12956;176833;34.40;576;03.11.03.177
12968;176847;34.40;577;03.11.03.177
12940;176836;34.40;578;03.11.03.177
12936;176838;34.40;579;03.11.03.177
12952;176835;34.40;580;03.11.03.177
12976;176830;34.40;581;03.11.03.177
12960;176835;34.40;582;03.11.03.177
12952;176840;34.40;583;03.11.03.177
12964;176832;34.40;584;03.11.03.177
12968;176831;34.40;585;03.11.03.177
12936;176836;34.40;586;03.11.03.177
12952;176833;34.40;587;03.11.03.177
12940;176839;34.40;588;03.11.03.177
12948;176837;34.40;589;03.11.03.177
12968;176833;34.40;590;03.11.03.188
12928;176834;34.40;591;03.11.03.188
12956;176832;34.40;592;03.11.03.188
12912;176842;34.40;593;03.11.03.188
12948;176833;34.40;594;03.11.03.188
12940;176829;34.40;595;03.11.03.188
12960;176831;34.40;596;03.11.03.188
12968;176829;34.40;597;03.11.03.188
12960;176834;34.40;598;03.11.03.188
12960;176835;34.40;599;03.11.03.188
12956;176842;34.40;600;03.11.03.287
12940;176838;34.40;601;03.11.03.287
12976;176838;34.40;602;03.11.03.287
12944;176838;34.40;603;03.11.03.287
12952;176831;34.40;604;03.11.03.287
12948;176839;34.40;605;03.11.03.287
12956;176844;34.40;606;03.11.03.287
12960;176839;34.40;607;03.11.03.287
12948;176841;34.40;608;03.11.03.298
12944;176853;34.40;609;03.11.03.298
12984;176847;34.40;610;03.11.03.298
12932;176845;34.40;611;03.11.03.298
12960;176849;34.40;612;03.11.03.298
12976;176848;34.40;613;03.11.03.298
12964;176847;34.40;614;03.11.03.298
12924;176851;34.40;615;03.11.03.298
12960;176844;34.40;616;03.11.03.298
12952;176851;34.40;617;03.11.03.309
12944;176845;34.40;618;03.11.03.309
12960;176845;34.40;619;03.11.03.309
12968;176845;34.40;620;03.11.03.309
12952;176848;34.40;621;03.11.03.309
12924;176854;34.40;622;03.11.03.309
12948;176852;34.40;623;03.11.03.309
12992;176856;34.40;624;03.11.03.309
12968;176861;34.40;625;03.11.03.407
12944;176848;34.40;626;03.11.03.407
12952;176852;34.40;627;03.11.03.407
12960;176848;34.40;628;03.11.03.407
12984;176854;34.40;629;03.11.03.407
12972;176856;34.40;630;03.11.03.407
12968;176854;34.40;631;03.11.03.407
12936;176858;34.40;632;03.11.03.418
12952;176846;34.40;633;03.11.03.418
12964;176860;34.40;634;03.11.03.418
12956;176858;34.40;635;03.11.03.418
12944;176854;34.40;636;03.11.03.418
12952;176865;34.40;637;03.11.03.418
12976;176871;34.40;638;03.11.03.418
12964;176870;34.40;639;03.11.03.418
12944;176871;34.40;640;03.11.03.418
12992;176866;34.40;641;03.11.03.418
12980;176866;34.40;642;03.11.03.418
12944;176867;34.40;643;03.11.03.418
12964;176871;34.40;644;03.11.03.418
12944;176870;34.40;645;03.11.03.429
12940;176870;34.40;646;03.11.03.429
12968;176861;34.40;647;03.11.03.429
12952;176865;34.40;648;03.11.03.429
12972;176864;34.40;649;03.11.03.429
12952;176875;34.40;650;03.11.03.528
12940;176862;34.40;651;03.11.03.528
12952;176871;34.40;652;03.11.03.528
12956;176865;34.40;653;03.11.03.528
12940;176875;34.40;654;03.11.03.539
12944;176874;34.40;655;03.11.03.539
12952;176875;34.40;656;03.11.03.539
12948;176876;34.40;657;03.11.03.539
12976;176882;34.40;658;03.11.03.539
12928;176878;34.40;659;03.11.03.539
12956;176871;34.40;660;03.11.03.539
12952;176865;34.40;661;03.11.03.550
12952;176873;34.40;662;03.11.03.550
12964;176876;34.40;663;03.11.03.550
12948;176871;34.40;664;03.11.03.550
12964;176875;34.40;665;03.11.03.550
12956;176868;34.40;666;03.11.03.550
12952;176871;34.40;667;03.11.03.550
12968;176865;34.40;668;03.11.03.550
12936;176862;34.40;669;03.11.03.550
12952;176868;34.40;670;03.11.03.550
12936;176861;34.40;671;03.11.03.561
12940;176863;34.40;672;03.11.03.561
12952;176858;34.40;673;03.11.03.561
12992;176853;34.40;674;03.11.03.561
12952;176851;34.40;675;03.11.03.660
12964;176844;34.40;676;03.11.03.671
12960;176852;34.40;677;03.11.03.671
12964;176854;34.40;678;03.11.03.671
12952;176854;34.40;679;03.11.03.671
12972;176844;34.40;680;03.11.03.671
12920;176846;34.40;681;03.11.03.671
12948;176849;34.40;682;03.11.03.671
12960;176850;34.40;683;03.11.03.671
12956;176850;34.40;684;03.11.03.671
12992;176845;34.40;685;03.11.03.671
12924;176843;34.40;686;03.11.03.671
12948;176843;34.40;687;03.11.03.671
12960;176847;34.40;688;03.11.03.671
12936;176844;34.40;689;03.11.03.682
12952;176855;34.40;690;03.11.03.682
12960;176846;34.40;691;03.11.03.682
12940;176849;34.40;692;03.11.03.693
12956;176848;34.40;693;03.11.03.693
12948;176848;34.40;694;03.11.03.693
12968;176838;34.40;695;03.11.03.693
12960;176849;34.40;696;03.11.03.693
12960;176839;34.40;697;03.11.03.693
12964;176848;34.40;698;03.11.03.693
12992;176840;34.40;699;03.11.03.693
12956;176843;34.40;700;03.11.03.780
12932;176846;34.40;701;03.11.03.780
12956;176846;34.40;702;03.11.03.780
12968;176842;34.40;703;03.11.03.780
12948;176846;34.40;704;03.11.03.780
12968;176839;34.40;705;03.11.03.780
12944;176846;34.40;706;03.11.03.780
12936;176844;34.40;707;03.11.03.780
12960;176842;34.40;708;03.11.03.813
12984;176851;34.40;709;03.11.03.813
12956;176842;34.40;710;03.11.03.813
12948;176851;34.40;711;03.11.03.813
12936;176848;34.40;712;03.11.03.813
12960;176846;34.40;713;03.11.03.813
12956;176841;34.40;714;03.11.03.813
12960;176855;34.40;715;03.11.03.813
12940;176852;34.40;716;03.11.03.813
12944;176835;34.40;717;03.11.03.824
12976;176852;34.40;718;03.11.03.824
12960;176845;34.40;719;03.11.03.824
12992;176847;34.40;720;03.11.03.824
12952;176837;34.40;721;03.11.03.824
12948;176851;34.40;722;03.11.03.824
12956;176850;34.40;723;03.11.03.824
12936;176848;34.40;724;03.11.03.824
12992;176843;34.40;725;03.11.03.901
12980;176849;34.40;726;03.11.03.901
12936;176847;34.40;727;03.11.03.901
12960;176848;34.40;728;03.11.03.901
12948;176843;34.40;729;03.11.03.901
12964;176847;34.40;730;03.11.03.901
12956;176844;34.40;731;03.11.03.912
12968;176840;34.40;732;03.11.03.912
12948;176844;34.40;733;03.11.03.912
12952;176848;34.40;734;03.11.03.912
12952;176848;34.40;735;03.11.03.912
12960;176847;34.40;736;03.11.03.912
12964;176852;34.40;737;03.11.03.912
12944;176837;34.40;738;03.11.03.912
12976;176852;34.40;739;03.11.03.912
12928;176852;34.40;740;03.11.03.912
12944;176846;34.40;741;03.11.03.912
12956;176850;34.40;742;03.11.03.912
12928;176847;34.40;743;03.11.03.912
12968;176857;34.40;744;03.11.03.923
12968;176850;34.40;745;03.11.03.923
12948;176856;34.40;746;03.11.03.923
12960;176852;34.40;747;03.11.03.923
12972;176856;34.40;748;03.11.03.923
12956;176846;34.40;749;03.11.03.923
12948;176851;34.40;750;03.11.04.032
12980;176858;34.40;751;03.11.04.043
12956;176876;34.40;752;03.11.04.043
12956;176861;34.40;753;03.11.04.043
12976;176860;34.40;754;03.11.04.043
12972;176875;34.40;755;03.11.04.043
12924;176872;34.40;756;03.11.04.043
12948;176861;34.40;757;03.11.04.043
12940;176862;34.40;758;03.11.04.043
12948;176860;34.40;759;03.11.04.043
12968;176856;34.40;760;03.11.04.043
12968;176865;34.40;761;03.11.04.043
12976;176861;34.40;762;03.11.04.043
12936;176869;34.40;763;03.11.04.043
12980;176864;34.40;764;03.11.04.054
12952;176870;34.40;765;03.11.04.054
12964;176869;34.40;766;03.11.04.054
12960;176865;34.40;767;03.11.04.054
12964;176874;34.40;768;03.11.04.054
12940;176865;34.40;769;03.11.04.054
12976;176867;34.40;770;03.11.04.054
12976;176870;34.40;771;03.11.04.054
12968;176871;34.40;772;03.11.04.054
12948;176869;34.40;773;03.11.04.054
12956;176878;34.40;774;03.11.04.054
12968;176877;34.40;775;03.11.04.174
12952;176876;34.40;776;03.11.04.174
12932;176869;34.40;777;03.11.04.174
12948;176869;34.40;778;03.11.04.174
12952;176878;34.40;779;03.11.04.174
12948;176886;34.40;780;03.11.04.174
12948;176885;34.40;781;03.11.04.174
12956;176884;34.40;782;03.11.04.174
12948;176883;34.40;783;03.11.04.174
12940;176888;34.40;784;03.11.04.185
12952;176882;34.40;785;03.11.04.185
12932;176883;34.40;786;03.11.04.185
12940;176888;34.40;787;03.11.04.185
12912;176887;34.40;788;03.11.04.185
12976;176896;34.40;789;03.11.04.185
12952;176896;34.40;790;03.11.04.185
12968;176892;34.40;791;03.11.04.185
12948;176899;34.40;792;03.11.04.185
12928;176900;34.40;793;03.11.04.185
12960;176897;34.40;794;03.11.04.185
12960;176901;34.40;795;03.11.04.185
12960;176899;34.40;796;03.11.04.185
12944;176901;34.40;797;03.11.04.196
12924;176903;34.40;798;03.11.04.196
12940;176896;34.40;799;03.11.04.196
12964;176904;34.40;800;03.11.04.284
12944;176886;34.40;801;03.11.04.284
12948;176897;34.40;802;03.11.04.284
12964;176894;34.40;803;03.11.04.284
12964;176887;34.40;804;03.11.04.284
12964;176880;34.40;805;03.11.04.284
12936;176878;34.40;806;03.11.04.284
12924;176880;34.40;807;03.11.04.295
12948;176881;34.40;808;03.11.04.295
12956;176885;34.40;809;03.11.04.295
12960;176881;34.40;810;03.11.04.295
12968;176880;34.40;811;03.11.04.295
12960;176882;34.40;812;03.11.04.295
12960;176875;34.40;813;03.11.04.295
12944;176866;34.40;814;03.11.04.306
12960;176864;34.40;815;03.11.04.306
12956;176870;34.40;816;03.11.04.306
12940;176868;34.40;817;03.11.04.306
12964;176863;34.40;818;03.11.04.306
12968;176861;34.40;819;03.11.04.306
12960;176851;34.40;820;03.11.04.306
12916;176860;34.40;821;03.11.04.306
12948;176853;34.40;822;03.11.04.306
12948;176858;34.40;823;03.11.04.306
12956;176856;34.40;824;03.11.04.306
12948;176854;34.40;825;03.11.04.404
12952;176856;34.40;826;03.11.04.404
12940;176860;34.40;827;03.11.04.415
12960;176859;34.40;828;03.11.04.415
12968;176841;34.40;829;03.11.04.415
12964;176846;34.40;830;03.11.04.415
12956;176845;34.40;831;03.11.04.415
12968;176851;34.40;832;03.11.04.415
12968;176851;34.40;833;03.11.04.415
12964;176852;34.40;834;03.11.04.415
12956;176849;34.40;835;03.11.04.415
12964;176841;34.40;836;03.11.04.415
12944;176843;34.40;837;03.11.04.415
12960;176839;34.40;838;03.11.04.415
12976;176839;34.40;839;03.11.04.426
12940;176843;34.40;840;03.11.04.426
12956;176841;34.40;841;03.11.04.426
12964;176839;34.40;842;03.11.04.426
12924;176843;34.40;843;03.11.04.426
12960;176844;34.40;844;03.11.04.426
12952;176843;34.40;845;03.11.04.426
12956;176835;34.40;846;03.11.04.426
12948;176843;34.40;847;03.11.04.426
12960;176836;34.40;848;03.11.04.426
12972;176845;34.40;849;03.11.04.426
12916;176850;34.40;850;03.11.04.535
12936;176846;34.40;851;03.11.04.535
12968;176845;34.40;852;03.11.04.535
12948;176846;34.40;853;03.11.04.535
12944;176842;34.40;854;03.11.04.535
12968;176841;34.40;855;03.11.04.535
12940;176846;34.40;856;03.11.04.535
12968;176846;34.40;857;03.11.04.535
12964;176851;34.40;858;03.11.04.535
12956;176855;34.40;859;03.11.04.535
12960;176854;34.40;860;03.11.04.535
12952;176849;34.40;861;03.11.04.546
12960;176851;34.40;862;03.11.04.546
12940;176843;34.40;863;03.11.04.546
12960;176841;34.40;864;03.11.04.546
12956;176847;34.40;865;03.11.04.546
12960;176855;34.40;866;03.11.04.546
12976;176861;34.40;867;03.11.04.546
12916;176852;34.40;868;03.11.04.546
12976;176851;34.40;869;03.11.04.546
12948;176861;34.40;870;03.11.04.546
12948;176844;34.40;871;03.11.04.546
12936;176846;34.40;872;03.11.04.546
12960;176845;34.40;873;03.11.04.546
12932;176844;34.40;874;03.11.04.557
12944;176843;34.40;875;03.11.04.677
12976;176851;34.40;876;03.11.04.677
12972;176848;34.40;877;03.11.04.677
12948;176850;34.40;878;03.11.04.677
12944;176849;34.40;879;03.11.04.677
12976;176843;34.40;880;03.11.04.688
12936;176836;34.40;881;03.11.04.688
12956;176845;34.40;882;03.11.04.688
12936;176848;34.40;883;03.11.04.688
12964;176847;34.40;884;03.11.04.688
12936;176843;34.40;885;03.11.04.688
12960;176853;34.40;886;03.11.04.688
12956;176838;34.40;887;03.11.04.688
12952;176849;34.40;888;03.11.04.688
12952;176844;34.40;889;03.11.04.688
12960;176851;34.40;890;03.11.04.699
12960;176846;34.40;891;03.11.04.699
12924;176854;34.40;892;03.11.04.710
12960;176859;34.40;893;03.11.04.710
12960;176851;34.40;894;03.11.04.710
12956;176853;34.40;895;03.11.04.710
12956;176843;34.40;896;03.11.04.710
12960;176855;34.40;897;03.11.04.710
12972;176859;34.40;898;03.11.04.721
12992;176854;34.40;899;03.11.04.721
12944;176854;34.40;900;03.11.04.797
12956;176865;34.40;901;03.11.04.808
12924;176858;34.40;902;03.11.04.808
12968;176855;34.40;903;03.11.04.808
12952;176858;34.40;904;03.11.04.808
12952;176859;34.40;905;03.11.04.808
12908;176866;34.40;906;03.11.04.808
12948;176866;34.40;907;03.11.04.808
12956;176861;34.40;908;03.11.04.808
12976;176868;34.40;909;03.11.04.808
12952;176868;34.40;910;03.11.04.808
12968;176863;34.40;911;03.11.04.808
12968;176873;34.40;912;03.11.04.808
12964;176870;34.40;913;03.11.04.808
12932;176872;34.40;914;03.11.04.819
12948;176868;34.40;915;03.11.04.819
12964;176868;34.40;916;03.11.04.819
12924;176860;34.40;917;03.11.04.819
12956;176874;34.40;918;03.11.04.830
12940;176869;34.40;919;03.11.04.830
12960;176868;34.40;920;03.11.04.830
12924;176867;34.40;921;03.11.04.830
12960;176864;34.40;922;03.11.04.830
12960;176877;34.40;923;03.11.04.830
12960;176878;34.40;924;03.11.04.830
12964;176876;34.44;925;03.11.04.907
12936;176876;34.44;926;03.11.04.907
12968;176872;34.44;927;03.11.04.907
12940;176874;34.44;928;03.11.04.907
12948;176883;34.44;929;03.11.04.907
12952;176871;34.44;930;03.11.04.907
12948;176875;34.44;931;03.11.04.907
12960;176873;34.44;932;03.11.04.907
12940;176866;34.44;933;03.11.04.907
12952;176878;34.44;934;03.11.04.907
12928;176875;34.44;935;03.11.04.907
12960;176875;34.44;936;03.11.04.918
12932;176871;34.44;937;03.11.04.918
12940;176878;34.44;938;03.11.04.918
12964;176872;34.44;939;03.11.04.918
12944;176880;34.44;940;03.11.04.918
12956;176885;34.44;941;03.11.04.918
12960;176876;34.44;942;03.11.04.940
12984;176878;34.44;943;03.11.04.940
12952;176881;34.44;944;03.11.04.940
12964;176874;34.44;945;03.11.04.940
12944;176876;34.44;946;03.11.04.940
12952;176874;34.44;947;03.11.04.940
12972;176878;34.44;948;03.11.04.940
12956;176869;34.44;949;03.11.04.940
12972;176872;34.44;950;03.11.05.027
12960;176864;34.44;951;03.11.05.027
12964;176866;34.44;952;03.11.05.027
12944;176863;34.44;953;03.11.05.027
12948;176864;34.44;954;03.11.05.027
12940;176860;34.44;955;03.11.05.027
12944;176858;34.44;956;03.11.05.027
12944;176859;34.44;957;03.11.05.027
12952;176863;34.44;958;03.11.05.038
12940;176849;34.44;959;03.11.05.038
12976;176844;34.44;960;03.11.05.038
12936;176850;34.44;961;03.11.05.038
12960;176850;34.44;962;03.11.05.038
12960;176853;34.44;963;03.11.05.038
12956;176846;34.44;964;03.11.05.038
12964;176839;34.44;965;03.11.05.038
12968;176839;34.44;966;03.11.05.038
12976;176841;34.44;967;03.11.05.038
12956;176835;34.44;968;03.11.05.038
12940;176833;34.44;969;03.11.05.038
12956;176837;34.44;970;03.11.05.049
12948;176831;34.44;971;03.11.05.049
12952;176831;34.44;972;03.11.05.049
12948;176829;34.44;973;03.11.05.049
12960;176831;34.44;974;03.11.05.049
12968;176829;34.40;975;03.11.05.159
12964;176817;34.40;976;03.11.05.159
12956;176820;34.40;977;03.11.05.159
12960;176827;34.40;978;03.11.05.170
12952;176821;34.40;979;03.11.05.170
12952;176826;34.40;980;03.11.05.170
12960;176822;34.40;981;03.11.05.170
12960;176823;34.40;982;03.11.05.170
12932;176813;34.40;983;03.11.05.170
12980;176817;34.40;984;03.11.05.170
12960;176822;34.40;985;03.11.05.170
12964;176818;34.40;986;03.11.05.170
12940;176815;34.40;987;03.11.05.170
12952;176818;34.40;988;03.11.05.170
12964;176815;34.40;989;03.11.05.170
12952;176821;34.40;990;03.11.05.170
12956;176813;34.40;991;03.11.05.181
12932;176820;34.40;992;03.11.05.181
12948;176817;34.40;993;03.11.05.181
12948;176807;34.40;994;03.11.05.181
12960;176817;34.40;995;03.11.05.181
12956;176820;34.40;996;03.11.05.181
12944;176814;34.40;997;03.11.05.181
12940;176823;34.40;998;03.11.05.181
12968;176823;34.40;999;03.11.05.181
12940;176827;34.40;000;03.11.05.302
12948;176822;34.40;001;03.11.05.302
12968;176819;34.40;002;03.11.05.302
12944;176827;34.40;003;03.11.05.302
12968;176827;34.40;004;03.11.05.302
12920;176822;34.40;005;03.11.05.302
12976;176825;34.40;006;03.11.05.302
12960;176822;34.40;007;03.11.05.302
12960;176820;34.40;008;03.11.05.302
12972;176821;34.40;009;03.11.05.313
12924;176819;34.40;010;03.11.05.313
12960;176825;34.40;011;03.11.05.313
12940;176819;34.40;012;03.11.05.313
12968;176823;34.40;013;03.11.05.313
12940;176822;34.40;014;03.11.05.313
12976;176826;34.40;015;03.11.05.313
12940;176827;34.40;016;03.11.05.313
12932;176827;34.40;017;03.11.05.313
12960;176820;34.40;018;03.11.05.313
12968;176831;34.40;019;03.11.05.313
12968;176833;34.40;020;03.11.05.313
12984;176825;34.40;021;03.11.05.313
12960;176814;34.40;022;03.11.05.324
12960;176817;34.40;023;03.11.05.324
12944;176827;34.40;024;03.11.05.324
12944;176825;34.40;025;03.11.05.433
12968;176823;34.40;026;03.11.05.433
12960;176836;34.40;027;03.11.05.433
12976;176826;34.40;028;03.11.05.433
12924;176830;34.40;029;03.11.05.433
12948;176836;34.40;030;03.11.05.433
12952;176833;34.40;031;03.11.05.433
12960;176836;34.40;032;03.11.05.433
12960;176828;34.40;033;03.11.05.444
12972;176832;34.40;034;03.11.05.444
12928;176840;34.40;035;03.11.05.444
12960;176839;34.40;036;03.11.05.444
12960;176848;34.40;037;03.11.05.444
12968;176844;34.40;038;03.11.05.444
12960;176838;34.40;039;03.11.05.444
12944;176831;34.40;040;03.11.05.444
12932;176843;34.40;041;03.11.05.444
12928;176849;34.40;042;03.11.05.444
12952;176850;34.40;043;03.11.05.444
12960;176849;34.40;044;03.11.05.444
12936;176842;34.40;045;03.11.05.444
12960;176839;34.40;046;03.11.05.455
12968;176846;34.40;047;03.11.05.455
12956;176846;34.40;048;03.11.05.455
12964;176842;34.40;049;03.11.05.455
12968;176840;34.40;050;03.11.05.532
12964;176847;34.40;051;03.11.05.532
12980;176846;34.40;052;03.11.05.532
12940;176858;34.40;053;03.11.05.532
12976;176853;34.40;054;03.11.05.532
12920;176848;34.40;055;03.11.05.543
12948;176858;34.40;056;03.11.05.543
12960;176850;34.40;057;03.11.05.543
12964;176853;34.40;058;03.11.05.543
12984;176844;34.40;059;03.11.05.543
12952;176854;34.40;060;03.11.05.543
12956;176864;34.40;061;03.11.05.543
12948;176859;34.40;062;03.11.05.543
12940;176860;34.40;063;03.11.05.543
12936;176864;34.40;064;03.11.05.554
12940;176852;34.40;065;03.11.05.554
12956;176865;34.40;066;03.11.05.554
12948;176857;34.40;067;03.11.05.565
12960;176861;34.40;068;03.11.05.565
12968;176863;34.40;069;03.11.05.565
12952;176857;34.40;070;03.11.05.565
12968;176861;34.40;071;03.11.05.565
12956;176869;34.40;072;03.11.05.565
12940;176865;34.40;073;03.11.05.576
12964;176861;34.40;074;03.11.05.576
12960;176861;34.40;075;03.11.05.664
12948;176869;34.40;076;03.11.05.664
12960;176864;34.40;077;03.11.05.664
12936;176864;34.40;078;03.11.05.664
12948;176871;34.40;079;03.11.05.664
12944;176870;34.40;080;03.11.05.664
12952;176871;34.40;081;03.11.05.664
12960;176875;34.40;082;03.11.05.664
12960;176865;34.40;083;03.11.05.675
12948;176875;34.40;084;03.11.05.675
