gsr; bvp; skt; skt2; Cont; time
12916;000902;34.72;425;03.33.41.366
12908;057545;34.72;426;03.33.41.366
12928;073946;34.72;427;03.33.41.366
12920;090335;34.72;428;03.33.41.366
12920;106720;34.72;429;03.33.41.366
12916;123059;34.72;430;03.33.41.366
12904;139490;34.72;431;03.33.41.366
12920;155865;34.72;432;03.33.41.366
12892;172241;34.72;433;03.33.41.388
12896;172455;34.72;434;03.33.41.388
12912;172451;34.72;435;03.33.41.388
12912;172453;34.72;436;03.33.41.388
12916;172463;34.72;437;03.33.41.388
12920;172461;34.72;438;03.33.41.388
12920;172451;34.72;439;03.33.41.388
12932;172450;34.72;440;03.33.41.388
12900;172457;34.72;441;03.33.41.388
12944;172445;34.72;442;03.33.41.388
12928;172450;34.72;443;03.33.41.399
12936;172453;34.72;444;03.33.41.399
12908;172447;34.72;445;03.33.41.399
12876;172444;34.72;446;03.33.41.399
12892;172445;34.72;447;03.33.41.399
12916;172449;34.72;448;03.33.41.399
12908;172442;34.72;449;03.33.41.399
12888;172441;34.72;450;03.33.41.497
12892;172429;34.72;451;03.33.41.497
12916;172437;34.72;452;03.33.41.497
12876;172436;34.72;453;03.33.41.497
12912;172429;34.72;454;03.33.41.497
12892;172440;34.72;455;03.33.41.497
12932;172434;34.72;456;03.33.41.508
12912;172437;34.72;457;03.33.41.508
12944;172443;34.72;458;03.33.41.508
12932;172441;34.72;459;03.33.41.508
12936;172425;34.72;460;03.33.41.508
12908;172431;34.72;461;03.33.41.508
12892;172433;34.72;462;03.33.41.508
12904;172440;34.72;463;03.33.41.508
12908;172442;34.72;464;03.33.41.519
12892;172435;34.72;465;03.33.41.519
12900;172434;34.72;466;03.33.41.519
12944;172429;34.72;467;03.33.41.519
12900;172437;34.72;468;03.33.41.519
12928;172436;34.72;469;03.33.41.519
12928;172442;34.72;470;03.33.41.519
12924;172433;34.72;471;03.33.41.519
12908;172428;34.72;472;03.33.41.519
12904;172432;34.72;473;03.33.41.519
12948;172441;34.72;474;03.33.41.519
12916;172430;34.72;475;03.33.41.607
12904;172438;34.72;476;03.33.41.607
12932;172436;34.72;477;03.33.41.607
12904;172433;34.72;478;03.33.41.618
12912;172423;34.72;479;03.33.41.618
12892;172429;34.72;480;03.33.41.618
12944;172435;34.72;481;03.33.41.618
12908;172421;34.72;482;03.33.41.618
12896;172432;34.72;483;03.33.41.618
12920;172428;34.72;484;03.33.41.618
12908;172426;34.72;485;03.33.41.618
12904;172424;34.72;486;03.33.41.618
12912;172422;34.72;487;03.33.41.618
12908;172424;34.72;488;03.33.41.618
12928;172422;34.72;489;03.33.41.618
12908;172434;34.72;490;03.33.41.618
12912;172439;34.72;491;03.33.41.629
12924;172434;34.72;492;03.33.41.629
12908;172434;34.72;493;03.33.41.629
12912;172441;34.72;494;03.33.41.629
12908;172426;34.72;495;03.33.41.629
12928;172429;34.72;496;03.33.41.629
12928;172438;34.72;497;03.33.41.629
12904;172430;34.72;498;03.33.41.629
12936;172447;34.72;499;03.33.41.629
12928;172437;34.72;500;03.33.41.761
12888;172436;34.72;501;03.33.41.761
12900;172438;34.72;502;03.33.41.761
12928;172451;34.72;503;03.33.41.761
12928;172442;34.72;504;03.33.41.761
12940;172434;34.72;505;03.33.41.761
12912;172431;34.72;506;03.33.41.761
12928;172440;34.72;507;03.33.41.761
12904;172455;34.72;508;03.33.41.761
12908;172454;34.72;509;03.33.41.761
12944;172445;34.72;510;03.33.41.761
12928;172450;34.72;511;03.33.41.761
12916;172456;34.72;512;03.33.41.771
12916;172452;34.72;513;03.33.41.771
12928;172454;34.72;514;03.33.41.771
12924;172463;34.72;515;03.33.41.771
12900;172461;34.72;516;03.33.41.771
12916;172461;34.72;517;03.33.41.771
12916;172459;34.72;518;03.33.41.771
12904;172460;34.72;519;03.33.41.771
12892;172465;34.72;520;03.33.41.771
12936;172475;34.72;521;03.33.41.771
12888;172464;34.72;522;03.33.41.771
12904;172463;34.72;523;03.33.41.771
12920;172467;34.72;524;03.33.41.782
12920;172473;34.72;525;03.33.41.859
12908;172473;34.72;526;03.33.41.859
12940;172470;34.72;527;03.33.41.859
12892;172461;34.72;528;03.33.41.859
12892;172464;34.72;529;03.33.41.859
12928;172457;34.72;530;03.33.41.859
12920;172462;34.72;531;03.33.41.859
12900;172449;34.72;532;03.33.41.859
12928;172457;34.72;533;03.33.41.881
12904;172456;34.72;534;03.33.41.881
12916;172447;34.72;535;03.33.41.881
12896;172439;34.72;536;03.33.41.881
12928;172443;34.72;537;03.33.41.881
12896;172432;34.72;538;03.33.41.881
12928;172423;34.72;539;03.33.41.881
12944;172432;34.72;540;03.33.41.881
12904;172417;34.72;541;03.33.41.892
12892;172413;34.72;542;03.33.41.892
12928;172411;34.72;543;03.33.41.892
12908;172403;34.72;544;03.33.41.892
12920;172404;34.72;545;03.33.41.892
12912;172395;34.72;546;03.33.41.892
12920;172398;34.72;547;03.33.41.892
12944;172394;34.72;548;03.33.41.892
12924;172389;34.72;549;03.33.41.892
12928;172385;34.72;550;03.33.41.979
12928;172378;34.72;551;03.33.41.979
12944;172370;34.72;552;03.33.41.979
12924;172371;34.72;553;03.33.41.979
12928;172365;34.72;554;03.33.41.979
12928;172351;34.72;555;03.33.41.990
12892;172345;34.72;556;03.33.41.990
12928;172345;34.72;557;03.33.41.990
12912;172340;34.72;558;03.33.41.990
12916;172329;34.72;559;03.33.41.990
12940;172330;34.72;560;03.33.41.990
12892;172320;34.72;561;03.33.41.990
12920;172316;34.72;562;03.33.41.990
12908;172314;34.72;563;03.33.41.990
12912;172299;34.72;564;03.33.41.990
12928;172310;34.72;565;03.33.41.990
12916;172304;34.72;566;03.33.41.990
12892;172300;34.72;567;03.33.42.001
12928;172294;34.72;568;03.33.42.001
12912;172286;34.72;569;03.33.42.001
12920;172290;34.72;570;03.33.42.001
12928;172285;34.72;571;03.33.42.001
12928;172279;34.72;572;03.33.42.001
12932;172275;34.72;573;03.33.42.001
12960;172284;34.72;574;03.33.42.001
12904;172280;34.68;575;03.33.42.100
12932;172275;34.68;576;03.33.42.111
12904;172280;34.68;577;03.33.42.111
12900;172271;34.68;578;03.33.42.111
12936;172278;34.68;579;03.33.42.111
12900;172279;34.68;580;03.33.42.111
12928;172276;34.68;581;03.33.42.111
12884;172279;34.68;582;03.33.42.111
12912;172284;34.68;583;03.33.42.111
12924;172281;34.68;584;03.33.42.111
12888;172275;34.68;585;03.33.42.111
12892;172275;34.68;586;03.33.42.111
12916;172280;34.68;587;03.33.42.111
12920;172280;34.68;588;03.33.42.111
12908;172275;34.68;589;03.33.42.122
12860;172273;34.68;590;03.33.42.122
12924;172277;34.68;591;03.33.42.122
12916;172281;34.68;592;03.33.42.122
12924;172269;34.68;593;03.33.42.122
12920;172268;34.68;594;03.33.42.122
12904;172270;34.68;595;03.33.42.122
12892;172264;34.68;596;03.33.42.122
12892;172268;34.68;597;03.33.42.122
12904;172271;34.68;598;03.33.42.122
12928;172273;34.68;599;03.33.42.122
12920;172268;34.68;600;03.33.42.241
12912;172261;34.68;601;03.33.42.241
12944;172262;34.68;602;03.33.42.241
12924;172260;34.68;603;03.33.42.241
12912;172265;34.68;604;03.33.42.241
12900;172262;34.68;605;03.33.42.241
12900;172262;34.68;606;03.33.42.241
12912;172256;34.68;607;03.33.42.241
12920;172251;34.68;608;03.33.42.252
12912;172263;34.68;609;03.33.42.252
12900;172258;34.68;610;03.33.42.252
12924;172250;34.68;611;03.33.42.252
12924;172248;34.68;612;03.33.42.252
12888;172249;34.68;613;03.33.42.252
12924;172255;34.68;614;03.33.42.252
12920;172253;34.68;615;03.33.42.252
12928;172244;34.68;616;03.33.42.252
12912;172245;34.68;617;03.33.42.252
12892;172248;34.68;618;03.33.42.252
12944;172240;34.68;619;03.33.42.252
12892;172240;34.68;620;03.33.42.252
12888;172241;34.68;621;03.33.42.263
12892;172241;34.68;622;03.33.42.263
12892;172237;34.68;623;03.33.42.263
12936;172234;34.68;624;03.33.42.263
12932;172231;34.72;625;03.33.42.372
12908;172232;34.72;626;03.33.42.372
12908;172241;34.72;627;03.33.42.383
12888;172233;34.72;628;03.33.42.383
12892;172242;34.72;629;03.33.42.383
12904;172238;34.72;630;03.33.42.383
12920;172238;34.72;631;03.33.42.383
12940;172242;34.72;632;03.33.42.383
12908;172240;34.72;633;03.33.42.383
12888;172239;34.72;634;03.33.42.383
12912;172238;34.72;635;03.33.42.383
12928;172244;34.72;636;03.33.42.383
12928;172241;34.72;637;03.33.42.383
12888;172246;34.72;638;03.33.42.383
12928;172250;34.72;639;03.33.42.383
12924;172246;34.72;640;03.33.42.394
12928;172243;34.72;641;03.33.42.394
12940;172241;34.72;642;03.33.42.394
12900;172241;34.72;643;03.33.42.394
12908;172238;34.72;644;03.33.42.394
12908;172242;34.72;645;03.33.42.394
12920;172244;34.72;646;03.33.42.394
12920;172242;34.72;647;03.33.42.394
12904;172237;34.72;648;03.33.42.394
12932;172235;34.72;649;03.33.42.394
12892;172244;34.72;650;03.33.42.492
12908;172236;34.72;651;03.33.42.492
12904;172242;34.72;652;03.33.42.492
12912;172234;34.72;653;03.33.42.492
12940;172240;34.72;654;03.33.42.492
12916;172234;34.72;655;03.33.42.492
12900;172236;34.72;656;03.33.42.492
12928;172229;34.72;657;03.33.42.492
12888;172232;34.72;658;03.33.42.503
12928;172234;34.72;659;03.33.42.503
12892;172226;34.72;660;03.33.42.503
12920;172230;34.72;661;03.33.42.503
12928;172223;34.72;662;03.33.42.503
12936;172240;34.72;663;03.33.42.503
12916;172225;34.72;664;03.33.42.503
12908;172230;34.72;665;03.33.42.503
12916;172226;34.72;666;03.33.42.503
12900;172220;34.72;667;03.33.42.514
12900;172229;34.72;668;03.33.42.514
12912;172230;34.72;669;03.33.42.514
12908;172215;34.72;670;03.33.42.514
12924;172226;34.72;671;03.33.42.514
12928;172218;34.72;672;03.33.42.514
12928;172215;34.72;673;03.33.42.514
12928;172222;34.72;674;03.33.42.514
12928;172218;34.68;675;03.33.42.612
12932;172216;34.68;676;03.33.42.612
12928;172216;34.68;677;03.33.42.612
12928;172218;34.68;678;03.33.42.612
12920;172215;34.68;679;03.33.42.612
12912;172207;34.68;680;03.33.42.612
12912;172208;34.68;681;03.33.42.612
12904;172206;34.68;682;03.33.42.612
12912;172203;34.68;683;03.33.42.624
12920;172197;34.68;684;03.33.42.624
12916;172198;34.68;685;03.33.42.624
12916;172196;34.68;686;03.33.42.624
12932;172173;34.68;687;03.33.42.624
12936;172173;34.68;688;03.33.42.624
12932;172172;34.68;689;03.33.42.624
12908;172164;34.68;690;03.33.42.624
12920;172163;34.68;691;03.33.42.624
12936;172152;34.68;692;03.33.42.624
12928;172155;34.68;693;03.33.42.624
12928;172158;34.68;694;03.33.42.624
12920;172155;34.68;695;03.33.42.624
12932;172161;34.68;696;03.33.42.635
12932;172146;34.68;697;03.33.42.635
12920;172146;34.68;698;03.33.42.635
12920;172143;34.68;699;03.33.42.635
12932;172146;34.68;700;03.33.42.733
12944;172145;34.68;701;03.33.42.733
12940;172141;34.68;702;03.33.42.733
12888;172138;34.68;703;03.33.42.733
12932;172144;34.68;704;03.33.42.744
12928;172139;34.68;705;03.33.42.744
12936;172132;34.68;706;03.33.42.744
12928;172140;34.68;707;03.33.42.744
12900;172126;34.68;708;03.33.42.744
12888;172125;34.68;709;03.33.42.744
12928;172118;34.68;710;03.33.42.744
12924;172123;34.68;711;03.33.42.744
12908;172121;34.68;712;03.33.42.744
12936;172111;34.68;713;03.33.42.744
12908;172113;34.68;714;03.33.42.744
12916;172110;34.68;715;03.33.42.744
12892;172119;34.68;716;03.33.42.744
12936;172109;34.68;717;03.33.42.755
12876;172119;34.68;718;03.33.42.755
12904;172120;34.68;719;03.33.42.755
12892;172107;34.68;720;03.33.42.755
12908;172112;34.68;721;03.33.42.755
12920;172115;34.68;722;03.33.42.755
12924;172109;34.68;723;03.33.42.755
12900;172122;34.68;724;03.33.42.755
12900;172117;34.68;725;03.33.42.887
12880;172125;34.68;726;03.33.42.887
12892;172128;34.68;727;03.33.42.887
12920;172128;34.68;728;03.33.42.887
12908;172124;34.68;729;03.33.42.887
12936;172125;34.68;730;03.33.42.887
12924;172120;34.68;731;03.33.42.887
12928;172130;34.68;732;03.33.42.887
12912;172124;34.68;733;03.33.42.887
12924;172135;34.68;734;03.33.42.887
12924;172129;34.68;735;03.33.42.887
12912;172138;34.68;736;03.33.42.887
12944;172144;34.68;737;03.33.42.887
12900;172139;34.68;738;03.33.42.898
12912;172143;34.68;739;03.33.42.898
12884;172145;34.68;740;03.33.42.898
12924;172142;34.68;741;03.33.42.898
12892;172148;34.68;742;03.33.42.898
12928;172153;34.68;743;03.33.42.898
12908;172144;34.68;744;03.33.42.898
12884;172143;34.68;745;03.33.42.898
12924;172142;34.68;746;03.33.42.898
12908;172143;34.68;747;03.33.42.898
12920;172141;34.68;748;03.33.42.898
12892;172143;34.68;749;03.33.42.898
12916;172151;34.68;750;03.33.42.986
12904;172140;34.68;751;03.33.42.986
12928;172131;34.68;752;03.33.42.986
12920;172140;34.68;753;03.33.42.986
12900;172143;34.68;754;03.33.42.986
12896;172140;34.68;755;03.33.42.986
12908;172142;34.68;756;03.33.42.986
12944;172126;34.68;757;03.33.42.986
12888;172122;34.68;758;03.33.43.019
12920;172121;34.68;759;03.33.43.019
12884;172132;34.68;760;03.33.43.019
12904;172122;34.68;761;03.33.43.019
12936;172122;34.68;762;03.33.43.019
12928;172126;34.68;763;03.33.43.019
12892;172114;34.68;764;03.33.43.019
12904;172117;34.68;765;03.33.43.019
12908;172116;34.68;766;03.33.43.019
12888;172107;34.68;767;03.33.43.019
12924;172112;34.68;768;03.33.43.019
12924;172114;34.68;769;03.33.43.030
12944;172111;34.68;770;03.33.43.030
12908;172104;34.68;771;03.33.43.030
12928;172105;34.68;772;03.33.43.030
12928;172105;34.68;773;03.33.43.030
12916;172105;34.68;774;03.33.43.030
12876;172104;34.72;775;03.33.43.106
12892;172109;34.72;776;03.33.43.106
12892;172108;34.72;777;03.33.43.106
12892;172108;34.72;778;03.33.43.106
12928;172108;34.72;779;03.33.43.106
12932;172104;34.72;780;03.33.43.106
12920;172103;34.72;781;03.33.43.106
12916;172105;34.72;782;03.33.43.117
12908;172108;34.72;783;03.33.43.117
12928;172101;34.72;784;03.33.43.117
12928;172095;34.72;785;03.33.43.117
12892;172105;34.72;786;03.33.43.117
12944;172093;34.72;787;03.33.43.117
12928;172097;34.72;788;03.33.43.117
12944;172091;34.72;789;03.33.43.117
12944;172092;34.72;790;03.33.43.128
12920;172095;34.72;791;03.33.43.128
12916;172095;34.72;792;03.33.43.128
12908;172091;34.72;793;03.33.43.128
12932;172086;34.72;794;03.33.43.128
12944;172091;34.72;795;03.33.43.128
12928;172083;34.72;796;03.33.43.128
12928;172079;34.72;797;03.33.43.128
12920;172082;34.72;798;03.33.43.128
12928;172079;34.72;799;03.33.43.139
12928;172081;34.72;800;03.33.43.238
12908;172086;34.72;801;03.33.43.238
12892;172084;34.72;802;03.33.43.238
12920;172083;34.72;803;03.33.43.249
12936;172078;34.72;804;03.33.43.249
12912;172078;34.72;805;03.33.43.249
12936;172082;34.72;806;03.33.43.249
12888;172074;34.72;807;03.33.43.249
12936;172069;34.72;808;03.33.43.249
12944;172077;34.72;809;03.33.43.249
12884;172066;34.72;810;03.33.43.249
12924;172064;34.72;811;03.33.43.260
12924;172054;34.72;812;03.33.43.260
12936;172052;34.72;813;03.33.43.260
12892;172051;34.72;814;03.33.43.260
12904;172048;34.72;815;03.33.43.260
12892;172040;34.72;816;03.33.43.260
12932;172036;34.72;817;03.33.43.260
12896;172033;34.72;818;03.33.43.260
12896;172025;34.72;819;03.33.43.260
12880;172016;34.72;820;03.33.43.260
12916;172015;34.72;821;03.33.43.260
12900;172014;34.72;822;03.33.43.260
12900;172007;34.72;823;03.33.43.260
12932;172002;34.72;824;03.33.43.271
12916;171998;34.72;825;03.33.43.381
12908;171999;34.72;826;03.33.43.381
12928;171986;34.72;827;03.33.43.381
12924;171999;34.72;828;03.33.43.381
12908;171997;34.72;829;03.33.43.381
12892;171998;34.72;830;03.33.43.381
12892;172000;34.72;831;03.33.43.381
12908;172010;34.72;832;03.33.43.381
12892;172010;34.72;833;03.33.43.392
12932;172012;34.72;834;03.33.43.392
12928;172017;34.72;835;03.33.43.392
12892;172023;34.72;836;03.33.43.392
12904;172027;34.72;837;03.33.43.392
12908;172028;34.72;838;03.33.43.392
12892;172034;34.72;839;03.33.43.392
12920;172040;34.72;840;03.33.43.392
12920;172037;34.72;841;03.33.43.392
12912;172041;34.72;842;03.33.43.392
12916;172047;34.72;843;03.33.43.392
12892;172047;34.72;844;03.33.43.392
12936;172047;34.72;845;03.33.43.403
12904;172053;34.72;846;03.33.43.403
12916;172055;34.72;847;03.33.43.403
12908;172052;34.72;848;03.33.43.403
12948;172055;34.72;849;03.33.43.403
12912;172061;34.72;850;03.33.43.490
12932;172060;34.72;851;03.33.43.490
12916;172066;34.72;852;03.33.43.490
12920;172073;34.72;853;03.33.43.490
12892;172068;34.72;854;03.33.43.490
12912;172076;34.72;855;03.33.43.490
12876;172078;34.72;856;03.33.43.490
12936;172075;34.72;857;03.33.43.501
12920;172080;34.72;858;03.33.43.501
12908;172085;34.72;859;03.33.43.501
12896;172084;34.72;860;03.33.43.501
12952;172087;34.72;861;03.33.43.501
12916;172095;34.72;862;03.33.43.501
12892;172099;34.72;863;03.33.43.501
12884;172094;34.72;864;03.33.43.501
12900;172101;34.72;865;03.33.43.501
12892;172100;34.72;866;03.33.43.501
12928;172100;34.72;867;03.33.43.512
12892;172108;34.72;868;03.33.43.512
12912;172106;34.72;869;03.33.43.512
12892;172115;34.72;870;03.33.43.512
12932;172115;34.72;871;03.33.43.512
12916;172123;34.72;872;03.33.43.512
12896;172125;34.72;873;03.33.43.512
12916;172121;34.72;874;03.33.43.512
12904;172128;34.72;875;03.33.43.611
12908;172133;34.72;876;03.33.43.611
12928;172127;34.72;877;03.33.43.611
12900;172142;34.72;878;03.33.43.611
12900;172140;34.72;879;03.33.43.611
12920;172147;34.72;880;03.33.43.622
12908;172143;34.72;881;03.33.43.622
12908;172149;34.72;882;03.33.43.622
12900;172144;34.72;883;03.33.43.644
12904;172145;34.72;884;03.33.43.644
12920;172148;34.72;885;03.33.43.644
12928;172152;34.72;886;03.33.43.644
12912;172152;34.72;887;03.33.43.644
12908;172157;34.72;888;03.33.43.655
12916;172144;34.72;889;03.33.43.655
12912;172159;34.72;890;03.33.43.655
12904;172156;34.72;891;03.33.43.655
12924;172156;34.72;892;03.33.43.655
12920;172157;34.72;893;03.33.43.655
12936;172154;34.72;894;03.33.43.655
12912;172155;34.72;895;03.33.43.655
12928;172167;34.72;896;03.33.43.655
12932;172167;34.72;897;03.33.43.655
12920;172171;34.72;898;03.33.43.655
12936;172164;34.72;899;03.33.43.655
12896;172174;34.72;900;03.33.43.732
12908;172179;34.72;901;03.33.43.743
12936;172189;34.72;902;03.33.43.743
12908;172187;34.72;903;03.33.43.743
12932;172187;34.72;904;03.33.43.743
12924;172189;34.72;905;03.33.43.743
12924;172195;34.72;906;03.33.43.743
12932;172191;34.72;907;03.33.43.743
12928;172194;34.72;908;03.33.43.743
12920;172193;34.72;909;03.33.43.743
12928;172194;34.72;910;03.33.43.743
12944;172197;34.72;911;03.33.43.743
12924;172203;34.72;912;03.33.43.743
12892;172196;34.72;913;03.33.43.743
12908;172217;34.72;914;03.33.43.754
12928;172209;34.72;915;03.33.43.754
12920;172213;34.72;916;03.33.43.754
12916;172214;34.72;917;03.33.43.754
12892;172215;34.72;918;03.33.43.754
12928;172221;34.72;919;03.33.43.754
12944;172224;34.72;920;03.33.43.754
12928;172226;34.72;921;03.33.43.754
12932;172234;34.72;922;03.33.43.754
12900;172220;34.72;923;03.33.43.754
12944;172224;34.72;924;03.33.43.754
12944;172231;34.68;925;03.33.43.875
12900;172232;34.68;926;03.33.43.875
12920;172239;34.68;927;03.33.43.875
12900;172231;34.68;928;03.33.43.875
12912;172230;34.68;929;03.33.43.875
12888;172231;34.68;930;03.33.43.875
12892;172236;34.68;931;03.33.43.875
12908;172238;34.68;932;03.33.43.875
12904;172231;34.68;933;03.33.43.875
12952;172233;34.68;934;03.33.43.875
12916;172223;34.68;935;03.33.43.875
12932;172217;34.68;936;03.33.43.875
12904;172219;34.68;937;03.33.43.886
12908;172210;34.68;938;03.33.43.886
12916;172205;34.68;939;03.33.43.886
12920;172200;34.68;940;03.33.43.886
12928;172193;34.68;941;03.33.43.886
12908;172185;34.68;942;03.33.43.886
12916;172179;34.68;943;03.33.43.886
12924;172178;34.68;944;03.33.43.886
12924;172175;34.68;945;03.33.43.886
12916;172161;34.68;946;03.33.43.886
12916;172161;34.68;947;03.33.43.886
12920;172151;34.68;948;03.33.43.886
12932;172149;34.68;949;03.33.43.897
12912;172140;34.68;950;03.33.44.007
12904;172136;34.68;951;03.33.44.007
12920;172137;34.68;952;03.33.44.007
12916;172126;34.68;953;03.33.44.007
12932;172133;34.68;954;03.33.44.007
12928;172126;34.68;955;03.33.44.007
12900;172132;34.68;956;03.33.44.007
12924;172125;34.68;957;03.33.44.007
12900;172117;34.68;958;03.33.44.018
12904;172124;34.68;959;03.33.44.018
12912;172114;34.68;960;03.33.44.018
12876;172111;34.68;961;03.33.44.018
12920;172112;34.68;962;03.33.44.018
12932;172109;34.68;963;03.33.44.018
12944;172107;34.68;964;03.33.44.018
12920;172111;34.68;965;03.33.44.018
12908;172110;34.68;966;03.33.44.018
12892;172111;34.68;967;03.33.44.018
12912;172108;34.68;968;03.33.44.018
12928;172111;34.68;969;03.33.44.018
12912;172106;34.68;970;03.33.44.029
12892;172107;34.68;971;03.33.44.029
12920;172108;34.68;972;03.33.44.029
12896;172112;34.68;973;03.33.44.029
12940;172112;34.68;974;03.33.44.029
12932;172107;34.72;975;03.33.44.106
12916;172119;34.72;976;03.33.44.106
12944;172109;34.72;977;03.33.44.106
12892;172107;34.72;978;03.33.44.106
12904;172119;34.72;979;03.33.44.117
12892;172123;34.72;980;03.33.44.117
12904;172119;34.72;981;03.33.44.117
12928;172124;34.72;982;03.33.44.117
12928;172123;34.72;983;03.33.44.117
12920;172132;34.72;984;03.33.44.117
12912;172123;34.72;985;03.33.44.117
12892;172133;34.72;986;03.33.44.117
12920;172131;34.72;987;03.33.44.117
12944;172126;34.72;988;03.33.44.117
12912;172126;34.72;989;03.33.44.117
12920;172122;34.72;990;03.33.44.117
12944;172127;34.72;991;03.33.44.117
12932;172118;34.72;992;03.33.44.128
12940;172110;34.72;993;03.33.44.128
12940;172118;34.72;994;03.33.44.128
12924;172106;34.72;995;03.33.44.128
12912;172104;34.72;996;03.33.44.128
12936;172099;34.72;997;03.33.44.128
12928;172095;34.72;998;03.33.44.128
12908;172090;34.72;999;03.33.44.128
12916;172079;34.72;000;03.33.44.248
12932;172074;34.72;001;03.33.44.248
12928;172060;34.72;002;03.33.44.248
12908;172061;34.72;003;03.33.44.248
12908;172059;34.72;004;03.33.44.248
12908;172053;34.72;005;03.33.44.248
12912;172053;34.72;006;03.33.44.248
12904;172051;34.72;007;03.33.44.248
12908;172043;34.72;008;03.33.44.248
12904;172044;34.72;009;03.33.44.248
12928;172043;34.72;010;03.33.44.248
12928;172043;34.72;011;03.33.44.248
12920;172041;34.72;012;03.33.44.248
12900;172042;34.72;013;03.33.44.259
12932;172051;34.72;014;03.33.44.259
12932;172043;34.72;015;03.33.44.259
12944;172049;34.72;016;03.33.44.259
12940;172041;34.72;017;03.33.44.259
12892;172061;34.72;018;03.33.44.259
12928;172056;34.72;019;03.33.44.259
12916;172062;34.72;020;03.33.44.259
12860;172061;34.72;021;03.33.44.259
12904;172061;34.72;022;03.33.44.259
12944;172067;34.72;023;03.33.44.259
12960;172061;34.72;024;03.33.44.259
12912;172060;34.68;025;03.33.44.369
12928;172059;34.68;026;03.33.44.369
12960;172068;34.68;027;03.33.44.369
12920;172064;34.68;028;03.33.44.369
12896;172061;34.68;029;03.33.44.369
12912;172069;34.68;030;03.33.44.369
12900;172069;34.68;031;03.33.44.369
12900;172061;34.68;032;03.33.44.369
12908;172064;34.68;033;03.33.44.369
12916;172064;34.68;034;03.33.44.379
12928;172072;34.68;035;03.33.44.379
12908;172070;34.68;036;03.33.44.379
12912;172073;34.68;037;03.33.44.379
12928;172068;34.68;038;03.33.44.379
12924;172058;34.68;039;03.33.44.379
12924;172065;34.68;040;03.33.44.379
12928;172064;34.68;041;03.33.44.379
12952;172058;34.68;042;03.33.44.379
12880;172057;34.68;043;03.33.44.379
12928;172065;34.68;044;03.33.44.379
12900;172052;34.68;045;03.33.44.379
12932;172062;34.68;046;03.33.44.379
12892;172064;34.68;047;03.33.44.390
12908;172064;34.68;048;03.33.44.390
12952;172047;34.68;049;03.33.44.390
12908;172058;34.68;050;03.33.44.500
12912;172052;34.68;051;03.33.44.500
12912;172053;34.68;052;03.33.44.500
12912;172047;34.68;053;03.33.44.500
12924;172040;34.68;054;03.33.44.500
12916;172036;34.68;055;03.33.44.511
12892;172036;34.68;056;03.33.44.511
12916;172030;34.68;057;03.33.44.511
12928;172030;34.68;058;03.33.44.511
12912;172029;34.68;059;03.33.44.511
12912;172024;34.68;060;03.33.44.511
12928;172022;34.68;061;03.33.44.511
12888;172017;34.68;062;03.33.44.511
12892;172015;34.68;063;03.33.44.511
12952;172010;34.68;064;03.33.44.511
12900;172001;34.68;065;03.33.44.511
12924;171991;34.68;066;03.33.44.511
12892;171992;34.68;067;03.33.44.511
12892;171984;34.68;068;03.33.44.522
12912;171983;34.68;069;03.33.44.522
12904;171969;34.68;070;03.33.44.522
12928;171972;34.68;071;03.33.44.522
12892;171960;34.68;072;03.33.44.522
12880;171960;34.68;073;03.33.44.522
12944;171953;34.68;074;03.33.44.522
12920;171946;34.68;075;03.33.44.610
12916;171950;34.68;076;03.33.44.610
12940;171942;34.68;077;03.33.44.621
12912;171946;34.68;078;03.33.44.621
12908;171934;34.68;079;03.33.44.621
12960;171933;34.68;080;03.33.44.621
12932;171918;34.68;081;03.33.44.621
12920;171925;34.68;082;03.33.44.621
12900;171924;34.68;083;03.33.44.632
12904;171926;34.68;084;03.33.44.632
12924;171915;34.68;085;03.33.44.643
12900;171915;34.68;086;03.33.44.643
12928;171911;34.68;087;03.33.44.643
12916;171909;34.68;088;03.33.44.643
12916;171906;34.68;089;03.33.44.643
12900;171909;34.68;090;03.33.44.643
12892;171898;34.68;091;03.33.44.643
12928;171897;34.68;092;03.33.44.643
12904;171899;34.68;093;03.33.44.643
12924;171913;34.68;094;03.33.44.643
12912;171901;34.68;095;03.33.44.643
12932;171894;34.68;096;03.33.44.643
12884;171896;34.68;097;03.33.44.643
12900;171902;34.68;098;03.33.44.654
12932;171898;34.68;099;03.33.44.654
12900;171903;34.68;100;03.33.44.742
12924;171908;34.68;101;03.33.44.742
12920;171908;34.68;102;03.33.44.742
12884;171905;34.68;103;03.33.44.742
12880;171916;34.68;104;03.33.44.742
12876;171922;34.68;105;03.33.44.742
12908;171918;34.68;106;03.33.44.742
12892;171925;34.68;107;03.33.44.742
12936;171921;34.68;108;03.33.44.742
12888;171925;34.68;109;03.33.44.742
12916;171924;34.68;110;03.33.44.742
12904;171924;34.68;111;03.33.44.752
12896;171921;34.68;112;03.33.44.752
12900;171921;34.68;113;03.33.44.752
12888;171923;34.68;114;03.33.44.752
12900;171927;34.68;115;03.33.44.752
12896;171925;34.68;116;03.33.44.752
12924;171922;34.68;117;03.33.44.752
12920;171924;34.68;118;03.33.44.752
12920;171923;34.68;119;03.33.44.752
12944;171922;34.68;120;03.33.44.752
12912;171924;34.68;121;03.33.44.752
12892;171920;34.68;122;03.33.44.752
12904;171914;34.68;123;03.33.44.752
12924;171921;34.68;124;03.33.44.763
12900;171925;34.72;125;03.33.44.862
12916;171918;34.72;126;03.33.44.862
12916;171919;34.72;127;03.33.44.862
12892;171913;34.72;128;03.33.44.862
12928;171913;34.72;129;03.33.44.862
12900;171912;34.72;130;03.33.44.862
12884;171905;34.72;131;03.33.44.862
12876;171908;34.72;132;03.33.44.873
12920;171901;34.72;133;03.33.44.873
12928;171903;34.72;134;03.33.44.873
12896;171907;34.72;135;03.33.44.873
12904;171909;34.72;136;03.33.44.873
12908;171913;34.72;137;03.33.44.873
12916;171899;34.72;138;03.33.44.873
12892;171898;34.72;139;03.33.44.873
12904;171901;34.72;140;03.33.44.873
12892;171905;34.72;141;03.33.44.873
12900;171906;34.72;142;03.33.44.873
12920;171906;34.72;143;03.33.44.873
12908;171909;34.72;144;03.33.44.873
12936;171912;34.72;145;03.33.44.873
12900;171908;34.72;146;03.33.44.884
12920;171919;34.72;147;03.33.44.884
12896;171916;34.72;148;03.33.44.884
12944;171923;34.72;149;03.33.44.884
12892;171922;34.72;150;03.33.44.994
12936;171916;34.72;151;03.33.44.994
12904;171923;34.72;152;03.33.44.994
12912;171932;34.72;153;03.33.44.994
12884;171937;34.72;154;03.33.45.005
12904;171936;34.72;155;03.33.45.005
12920;171934;34.72;156;03.33.45.005
12944;171925;34.72;157;03.33.45.005
12900;171941;34.72;158;03.33.45.005
12904;171944;34.72;159;03.33.45.005
12884;171940;34.72;160;03.33.45.005
12920;171945;34.72;161;03.33.45.005
12936;171949;34.72;162;03.33.45.005
12904;171949;34.72;163;03.33.45.005
12928;171951;34.72;164;03.33.45.005
12916;171945;34.72;165;03.33.45.005
12896;171951;34.72;166;03.33.45.005
12912;171948;34.72;167;03.33.45.015
12920;171953;34.72;168;03.33.45.015
12912;171951;34.72;169;03.33.45.015
12896;171956;34.72;170;03.33.45.015
12908;171951;34.72;171;03.33.45.015
12920;171955;34.72;172;03.33.45.015
12908;171947;34.72;173;03.33.45.015
12904;171948;34.72;174;03.33.45.015
12900;171949;34.68;175;03.33.45.114
12960;171946;34.68;176;03.33.45.114
12912;171952;34.68;177;03.33.45.114
12904;171948;34.68;178;03.33.45.114
12904;171952;34.68;179;03.33.45.114
12920;171960;34.68;180;03.33.45.114
12904;171958;34.68;181;03.33.45.114
12900;171943;34.68;182;03.33.45.114
12892;171954;34.68;183;03.33.45.124
12892;171953;34.68;184;03.33.45.124
12908;171952;34.68;185;03.33.45.124
12916;171953;34.68;186;03.33.45.124
12916;171951;34.68;187;03.33.45.124
12928;171952;34.68;188;03.33.45.124
12924;171959;34.68;189;03.33.45.124
12916;171950;34.68;190;03.33.45.124
12896;171958;34.68;191;03.33.45.124
12932;171960;34.68;192;03.33.45.124
12908;171968;34.68;193;03.33.45.124
12880;171962;34.68;194;03.33.45.135
12920;171966;34.68;195;03.33.45.135
12916;171978;34.68;196;03.33.45.135
12876;171983;34.68;197;03.33.45.135
12896;171978;34.68;198;03.33.45.135
12928;171976;34.68;199;03.33.45.135
12928;171972;34.68;200;03.33.45.234
12896;171984;34.68;201;03.33.45.234
12908;171986;34.68;202;03.33.45.234
12912;171982;34.68;203;03.33.45.234
12876;171983;34.68;204;03.33.45.234
12912;171992;34.68;205;03.33.45.234
12888;171987;34.68;206;03.33.45.234
12924;171996;34.68;207;03.33.45.234
12920;171994;34.68;208;03.33.45.234
12932;171988;34.68;209;03.33.45.245
12936;171990;34.68;210;03.33.45.245
12904;171998;34.68;211;03.33.45.245
12928;172005;34.68;212;03.33.45.245
12900;171996;34.68;213;03.33.45.245
12908;172006;34.68;214;03.33.45.245
12884;172011;34.68;215;03.33.45.245
12928;172003;34.68;216;03.33.45.245
12916;172006;34.68;217;03.33.45.245
12896;172015;34.68;218;03.33.45.245
12908;172025;34.68;219;03.33.45.245
12892;172020;34.68;220;03.33.45.245
12896;172018;34.68;221;03.33.45.256
12916;172030;34.68;222;03.33.45.256
12928;172029;34.68;223;03.33.45.256
12928;172028;34.68;224;03.33.45.256
12896;172040;34.68;225;03.33.45.354
12892;172048;34.68;226;03.33.45.354
12912;172035;34.68;227;03.33.45.354
12908;172055;34.68;228;03.33.45.354
12900;172053;34.68;229;03.33.45.365
12928;172047;34.68;230;03.33.45.365
12920;172058;34.68;231;03.33.45.365
12928;172067;34.68;232;03.33.45.365
12932;172066;34.68;233;03.33.45.365
12924;172056;34.68;234;03.33.45.365
12928;172062;34.68;235;03.33.45.365
12952;172068;34.68;236;03.33.45.365
12920;172067;34.68;237;03.33.45.365
12916;172073;34.68;238;03.33.45.365
12896;172073;34.68;239;03.33.45.365
12932;172080;34.68;240;03.33.45.365
12912;172077;34.68;241;03.33.45.365
12904;172077;34.68;242;03.33.45.376
12912;172076;34.68;243;03.33.45.376
12916;172071;34.68;244;03.33.45.376
12892;172076;34.68;245;03.33.45.376
12904;172087;34.68;246;03.33.45.376
12908;172092;34.68;247;03.33.45.376
12924;172091;34.68;248;03.33.45.376
12948;172093;34.68;249;03.33.45.376
12912;172097;34.68;250;03.33.45.497
12920;172089;34.68;251;03.33.45.497
12928;172092;34.68;252;03.33.45.497
12920;172090;34.68;253;03.33.45.497
12900;172090;34.68;254;03.33.45.497
12912;172088;34.68;255;03.33.45.497
12928;172084;34.68;256;03.33.45.497
12920;172086;34.68;257;03.33.45.497
12928;172072;34.68;258;03.33.45.497
12916;172074;34.68;259;03.33.45.508
12892;172067;34.68;260;03.33.45.508
12912;172062;34.68;261;03.33.45.508
12880;172057;34.68;262;03.33.45.508
12936;172055;34.68;263;03.33.45.508
12912;172048;34.68;264;03.33.45.508
12900;172042;34.68;265;03.33.45.508
12888;172036;34.68;266;03.33.45.508
12892;172031;34.68;267;03.33.45.508
12944;172023;34.68;268;03.33.45.508
12904;172014;34.68;269;03.33.45.508
12908;172003;34.68;270;03.33.45.508
12920;171997;34.68;271;03.33.45.508
12916;171983;34.68;272;03.33.45.519
12920;171989;34.68;273;03.33.45.519
12932;171972;34.68;274;03.33.45.519
12928;171975;34.68;275;03.33.45.629
12928;171972;34.68;276;03.33.45.629
12912;171959;34.68;277;03.33.45.629
12884;171948;34.68;278;03.33.45.629
12860;171944;34.68;279;03.33.45.629
12944;171944;34.68;280;03.33.45.629
12920;171931;34.68;281;03.33.45.629
12912;171922;34.68;282;03.33.45.629
12892;171929;34.68;283;03.33.45.629
12896;171922;34.68;284;03.33.45.629
12924;171920;34.68;285;03.33.45.640
12928;171913;34.68;286;03.33.45.640
12928;171910;34.68;287;03.33.45.640
12912;171906;34.68;288;03.33.45.640
12884;171896;34.68;289;03.33.45.640
12884;171890;34.68;290;03.33.45.640
12936;171895;34.68;291;03.33.45.640
12912;171888;34.68;292;03.33.45.640
12928;171889;34.68;293;03.33.45.640
12908;171895;34.68;294;03.33.45.640
12884;171894;34.68;295;03.33.45.640
12892;171893;34.68;296;03.33.45.640
12936;171886;34.68;297;03.33.45.640
12900;171884;34.68;298;03.33.45.651
12908;171877;34.68;299;03.33.45.651
12920;171880;34.68;300;03.33.45.737
12888;171877;34.68;301;03.33.45.737
12908;171874;34.68;302;03.33.45.737
12904;171876;34.68;303;03.33.45.737
12920;171870;34.68;304;03.33.45.737
12892;171875;34.68;305;03.33.45.748
12912;171874;34.68;306;03.33.45.748
12932;171874;34.68;307;03.33.45.748
12904;171874;34.68;308;03.33.45.748
12904;171874;34.68;309;03.33.45.748
12904;171877;34.68;310;03.33.45.748
12916;171873;34.68;311;03.33.45.748
12928;171877;34.68;312;03.33.45.759
12908;171888;34.68;313;03.33.45.759
12896;171888;34.68;314;03.33.45.759
12924;171903;34.68;315;03.33.45.759
12876;171894;34.68;316;03.33.45.759
12924;171896;34.68;317;03.33.45.759
12892;171905;34.68;318;03.33.45.759
12916;171915;34.68;319;03.33.45.759
12916;171925;34.68;320;03.33.45.759
12896;171945;34.68;321;03.33.45.759
12920;171960;34.68;322;03.33.45.759
12884;171970;34.68;323;03.33.45.770
12940;171990;34.68;324;03.33.45.770
12912;172008;34.72;325;03.33.45.869
12888;172035;34.72;326;03.33.45.869
12896;172047;34.72;327;03.33.45.869
12908;172066;34.72;328;03.33.45.869
12904;172088;34.72;329;03.33.45.869
12928;172116;34.72;330;03.33.45.869
12916;172123;34.72;331;03.33.45.869
12912;172124;34.72;332;03.33.45.869
12928;172130;34.72;333;03.33.45.869
12936;172147;34.72;334;03.33.45.869
12888;172149;34.72;335;03.33.45.869
12900;172161;34.72;336;03.33.45.869
12912;172173;34.72;337;03.33.45.879
12920;172182;34.72;338;03.33.45.879
12928;172189;34.72;339;03.33.45.879
12904;172178;34.72;340;03.33.45.879
12896;172178;34.72;341;03.33.45.879
12892;172171;34.72;342;03.33.45.879
12884;172166;34.72;343;03.33.45.879
12916;172163;34.72;344;03.33.45.879
12916;172155;34.72;345;03.33.45.879
12888;172146;34.72;346;03.33.45.879
12912;172148;34.72;347;03.33.45.879
12896;172140;34.72;348;03.33.45.879
12932;172121;34.72;349;03.33.45.879
12916;172126;34.72;350;03.33.45.988
12912;172127;34.72;351;03.33.45.988
12916;172118;34.72;352;03.33.45.988
12912;172116;34.72;353;03.33.45.988
12944;172115;34.72;354;03.33.45.988
12920;172121;34.72;355;03.33.45.988
12912;172107;34.72;356;03.33.45.988
12908;172121;34.72;357;03.33.45.988
12900;172104;34.72;358;03.33.45.988
12920;172114;34.72;359;03.33.45.999
12900;172111;34.72;360;03.33.45.999
12904;172109;34.72;361;03.33.45.999
12892;172111;34.72;362;03.33.45.999
12880;172123;34.72;363;03.33.45.999
12860;172116;34.72;364;03.33.45.999
12912;172133;34.72;365;03.33.45.999
12888;172131;34.72;366;03.33.45.999
12904;172129;34.72;367;03.33.45.999
12920;172132;34.72;368;03.33.45.999
12928;172133;34.72;369;03.33.45.999
12892;172136;34.72;370;03.33.45.999
12908;172133;34.72;371;03.33.45.999
12920;172124;34.72;372;03.33.46.010
12868;172136;34.72;373;03.33.46.010
12896;172143;34.72;374;03.33.46.010
12896;172137;34.76;375;03.33.46.131
12912;172133;34.76;376;03.33.46.131
12904;172130;34.76;377;03.33.46.131
12892;172131;34.76;378;03.33.46.131
12908;172136;34.76;379;03.33.46.131
12892;172132;34.76;380;03.33.46.142
12932;172128;34.76;381;03.33.46.142
12900;172117;34.76;382;03.33.46.142
12924;172109;34.76;383;03.33.46.142
12912;172105;34.76;384;03.33.46.142
12888;172104;34.76;385;03.33.46.142
12940;172094;34.76;386;03.33.46.142
12908;172081;34.76;387;03.33.46.142
12904;172062;34.76;388;03.33.46.142
12896;172054;34.76;389;03.33.46.142
12912;172035;34.76;390;03.33.46.142
12928;172022;34.76;391;03.33.46.142
12900;171998;34.76;392;03.33.46.153
12928;171995;34.76;393;03.33.46.153
12884;171969;34.76;394;03.33.46.153
12908;171960;34.76;395;03.33.46.153
12876;171945;34.76;396;03.33.46.153
12912;171932;34.76;397;03.33.46.153
12892;171923;34.76;398;03.33.46.153
12900;171902;34.76;399;03.33.46.153
12888;171893;34.76;400;03.33.46.230
12916;171868;34.76;401;03.33.46.230
12904;171847;34.76;402;03.33.46.241
12904;171829;34.76;403;03.33.46.241
12904;171826;34.76;404;03.33.46.241
12960;171830;34.76;405;03.33.46.241
12896;171826;34.76;406;03.33.46.241
12928;171814;34.76;407;03.33.46.241
12908;171800;34.76;408;03.33.46.241
12936;171792;34.76;409;03.33.46.241
12928;171796;34.76;410;03.33.46.241
12916;171794;34.76;411;03.33.46.241
12912;171783;34.76;412;03.33.46.241
12916;171791;34.76;413;03.33.46.241
12892;171785;34.76;414;03.33.46.241
12928;171785;34.76;415;03.33.46.251
12920;171778;34.76;416;03.33.46.251
12916;171780;34.76;417;03.33.46.251
12876;171781;34.76;418;03.33.46.251
12908;171777;34.76;419;03.33.46.262
12892;171779;34.76;420;03.33.46.262
12912;171778;34.76;421;03.33.46.262
12912;171779;34.76;422;03.33.46.262
12936;171778;34.76;423;03.33.46.262
12908;171792;34.76;424;03.33.46.262
12904;171785;34.72;425;03.33.46.361
12932;171784;34.72;426;03.33.46.361
12888;171786;34.72;427;03.33.46.361
12916;171790;34.72;428;03.33.46.361
12928;171796;34.72;429;03.33.46.361
12944;171786;34.72;430;03.33.46.361
12912;171800;34.72;431;03.33.46.361
12932;171790;34.72;432;03.33.46.361
12928;171798;34.72;433;03.33.46.361
12928;171798;34.72;434;03.33.46.361
12916;171803;34.72;435;03.33.46.361
12928;171808;34.72;436;03.33.46.372
12900;171808;34.72;437;03.33.46.372
12932;171818;34.72;438;03.33.46.372
12932;171816;34.72;439;03.33.46.372
12888;171829;34.72;440;03.33.46.372
12884;171827;34.72;441;03.33.46.372
12900;171828;34.72;442;03.33.46.372
12920;171838;34.72;443;03.33.46.372
12932;171831;34.72;444;03.33.46.372
12888;171842;34.72;445;03.33.46.372
12936;171840;34.72;446;03.33.46.372
12908;171840;34.72;447;03.33.46.372
12928;171848;34.72;448;03.33.46.372
12928;171852;34.72;449;03.33.46.383
12892;171865;34.72;450;03.33.46.493
12920;171874;34.72;451;03.33.46.493
12928;171879;34.72;452;03.33.46.493
12900;171886;34.72;453;03.33.46.493
12892;171895;34.72;454;03.33.46.493
12916;171890;34.72;455;03.33.46.493
12892;171904;34.72;456;03.33.46.493
12912;171906;34.72;457;03.33.46.504
12944;171915;34.72;458;03.33.46.504
12920;171909;34.72;459;03.33.46.504
12900;171912;34.72;460;03.33.46.504
12892;171918;34.72;461;03.33.46.504
12912;171912;34.72;462;03.33.46.504
12924;171918;34.72;463;03.33.46.504
12900;171915;34.72;464;03.33.46.504
12912;171918;34.72;465;03.33.46.504
12916;171924;34.72;466;03.33.46.504
12908;171926;34.72;467;03.33.46.504
12904;171920;34.72;468;03.33.46.504
12892;171924;34.72;469;03.33.46.504
12912;171936;34.72;470;03.33.46.515
12920;171939;34.72;471;03.33.46.515
12928;171945;34.72;472;03.33.46.515
12936;171945;34.72;473;03.33.46.515
12912;171953;34.72;474;03.33.46.515
12904;171958;34.72;475;03.33.46.624
12916;171968;34.72;476;03.33.46.624
12896;171965;34.72;477;03.33.46.624
12940;171970;34.72;478;03.33.46.634
12904;171977;34.72;479;03.33.46.634
12912;171973;34.72;480;03.33.46.634
12932;171981;34.72;481;03.33.46.634
12916;171982;34.72;482;03.33.46.634
12908;171983;34.72;483;03.33.46.634
12904;171985;34.72;484;03.33.46.634
12904;171983;34.72;485;03.33.46.645
12892;171978;34.72;486;03.33.46.645
12940;171984;34.72;487;03.33.46.645
12916;171988;34.72;488;03.33.46.645
12920;171982;34.72;489;03.33.46.645
12912;171979;34.72;490;03.33.46.645
12912;171973;34.72;491;03.33.46.645
12892;171970;34.72;492;03.33.46.645
12920;171970;34.72;493;03.33.46.645
12932;171966;34.72;494;03.33.46.645
12932;171952;34.72;495;03.33.46.645
12908;171958;34.72;496;03.33.46.645
12904;171948;34.72;497;03.33.46.645
12908;171940;34.72;498;03.33.46.645
12932;171944;34.72;499;03.33.46.656
12924;171936;34.72;500;03.33.46.744
12928;171936;34.72;501;03.33.46.744
12928;171935;34.72;502;03.33.46.744
12924;171942;34.72;503;03.33.46.744
12920;171931;34.72;504;03.33.46.744
12892;171917;34.72;505;03.33.46.744
12912;171927;34.72;506;03.33.46.744
12920;171924;34.72;507;03.33.46.744
12920;171926;34.72;508;03.33.46.766
12868;171917;34.72;509;03.33.46.766
12892;171918;34.72;510;03.33.46.766
12860;171919;34.72;511;03.33.46.766
12892;171926;34.72;512;03.33.46.766
12912;171924;34.72;513;03.33.46.766
12884;171929;34.72;514;03.33.46.766
12896;171927;34.72;515;03.33.46.766
12928;171930;34.72;516;03.33.46.766
12932;171934;34.72;517;03.33.46.766
12940;171930;34.72;518;03.33.46.766
12904;171931;34.72;519;03.33.46.766
12908;171936;34.72;520;03.33.46.777
12908;171931;34.72;521;03.33.46.777
12916;171930;34.72;522;03.33.46.777
12928;171931;34.72;523;03.33.46.777
12892;171929;34.72;524;03.33.46.777
12888;171933;34.72;525;03.33.46.865
12924;171930;34.72;526;03.33.46.865
12916;171943;34.72;527;03.33.46.865
12916;171939;34.72;528;03.33.46.865
12912;171937;34.72;529;03.33.46.865
12912;171936;34.72;530;03.33.46.865
12888;171935;34.72;531;03.33.46.865
12916;171941;34.72;532;03.33.46.865
12916;171946;34.72;533;03.33.46.876
12904;171949;34.72;534;03.33.46.876
12900;171955;34.72;535;03.33.46.876
12924;171944;34.72;536;03.33.46.876
12928;171946;34.72;537;03.33.46.876
12908;171951;34.72;538;03.33.46.876
12944;171950;34.72;539;03.33.46.876
12928;171953;34.72;540;03.33.46.876
12904;171960;34.72;541;03.33.46.876
12888;171943;34.72;542;03.33.46.898
12916;171960;34.72;543;03.33.46.898
12928;171950;34.72;544;03.33.46.898
12924;171958;34.72;545;03.33.46.898
12924;171954;34.72;546;03.33.46.898
12900;171960;34.72;547;03.33.46.898
12924;171952;34.72;548;03.33.46.898
12920;171953;34.72;549;03.33.46.909
12904;171958;34.72;550;03.33.46.986
12940;171954;34.72;551;03.33.46.986
12912;171961;34.72;552;03.33.46.986
12892;171957;34.72;553;03.33.46.986
12920;171961;34.72;554;03.33.46.996
12904;171967;34.72;555;03.33.46.996
12908;171964;34.72;556;03.33.46.996
12916;171970;34.72;557;03.33.46.996
12936;171974;34.72;558;03.33.46.996
12892;171968;34.72;559;03.33.46.996
12908;171978;34.72;560;03.33.46.996
12908;171977;34.72;561;03.33.46.996
12904;171982;34.72;562;03.33.46.996
12908;171987;34.72;563;03.33.46.996
12928;171983;34.72;564;03.33.46.996
12916;171994;34.72;565;03.33.46.996
12928;171994;34.72;566;03.33.46.996
12908;172005;34.72;567;03.33.47.007
12932;172009;34.72;568;03.33.47.007
12928;172014;34.72;569;03.33.47.007
12916;172012;34.72;570;03.33.47.007
12928;172015;34.72;571;03.33.47.007
12920;172023;34.72;572;03.33.47.007
12936;172018;34.72;573;03.33.47.007
12960;172030;34.72;574;03.33.47.007
12904;172040;34.68;575;03.33.47.128
12928;172042;34.68;576;03.33.47.128
12916;172050;34.68;577;03.33.47.128
12928;172044;34.68;578;03.33.47.128
12932;172044;34.68;579;03.33.47.128
12920;172048;34.68;580;03.33.47.128
12916;172052;34.68;581;03.33.47.128
12912;172054;34.68;582;03.33.47.128
12908;172057;34.68;583;03.33.47.128
12924;172064;34.68;584;03.33.47.128
12876;172054;34.68;585;03.33.47.128
12900;172073;34.68;586;03.33.47.128
12908;172068;34.68;587;03.33.47.138
12924;172078;34.68;588;03.33.47.138
12904;172085;34.68;589;03.33.47.138
12920;172077;34.68;590;03.33.47.138
12920;172089;34.68;591;03.33.47.138
12892;172081;34.68;592;03.33.47.138
12892;172086;34.68;593;03.33.47.138
12912;172086;34.68;594;03.33.47.138
12916;172093;34.68;595;03.33.47.138
12916;172089;34.68;596;03.33.47.138
12892;172084;34.68;597;03.33.47.138
12912;172082;34.68;598;03.33.47.138
12912;172091;34.68;599;03.33.47.138
12900;172079;34.68;600;03.33.47.258
12892;172090;34.68;601;03.33.47.258
12920;172084;34.68;602;03.33.47.258
12892;172089;34.68;603;03.33.47.258
12908;172084;34.68;604;03.33.47.258
12932;172086;34.68;605;03.33.47.258
12892;172083;34.68;606;03.33.47.258
12908;172084;34.68;607;03.33.47.269
12908;172081;34.68;608;03.33.47.269
12888;172085;34.68;609;03.33.47.269
12904;172095;34.68;610;03.33.47.269
12908;172093;34.68;611;03.33.47.269
12924;172097;34.68;612;03.33.47.269
12920;172101;34.68;613;03.33.47.269
12916;172093;34.68;614;03.33.47.269
12936;172100;34.68;615;03.33.47.269
12900;172102;34.68;616;03.33.47.269
12896;172110;34.68;617;03.33.47.269
12904;172106;34.68;618;03.33.47.269
12912;172106;34.68;619;03.33.47.269
12944;172107;34.68;620;03.33.47.280
12912;172120;34.68;621;03.33.47.280
12892;172130;34.68;622;03.33.47.280
12920;172140;34.68;623;03.33.47.280
12960;172154;34.68;624;03.33.47.280
12908;172166;34.68;625;03.33.47.357
12924;172164;34.68;626;03.33.47.357
12908;172191;34.68;627;03.33.47.357
12892;172195;34.68;628;03.33.47.357
12892;172203;34.68;629;03.33.47.368
12884;172215;34.68;630;03.33.47.368
12932;172232;34.68;631;03.33.47.368
12928;172241;34.68;632;03.33.47.368
12900;172254;34.68;633;03.33.47.368
12900;172269;34.68;634;03.33.47.368
12872;172280;34.68;635;03.33.47.368
12920;172289;34.68;636;03.33.47.368
12896;172298;34.68;637;03.33.47.368
12940;172307;34.68;638;03.33.47.379
12904;172311;34.68;639;03.33.47.379
12936;172314;34.68;640;03.33.47.379
12892;172322;34.68;641;03.33.47.379
12884;172330;34.68;642;03.33.47.390
12924;172332;34.68;643;03.33.47.390
12904;172334;34.68;644;03.33.47.390
12892;172347;34.68;645;03.33.47.401
12928;172353;34.68;646;03.33.47.401
12944;172345;34.68;647;03.33.47.401
12900;172359;34.68;648;03.33.47.401
12944;172359;34.68;649;03.33.47.401
12928;172363;34.68;650;03.33.47.488
12928;172378;34.68;651;03.33.47.488
12924;172387;34.68;652;03.33.47.488
12916;172396;34.68;653;03.33.47.488
12916;172412;34.68;654;03.33.47.488
12924;172418;34.68;655;03.33.47.488
12924;172420;34.68;656;03.33.47.488
12892;172430;34.68;657;03.33.47.488
12892;172436;34.68;658;03.33.47.488
12900;172445;34.68;659;03.33.47.488
12908;172448;34.68;660;03.33.47.488
12912;172456;34.68;661;03.33.47.488
12920;172463;34.68;662;03.33.47.488
12916;172469;34.68;663;03.33.47.499
12892;172480;34.68;664;03.33.47.499
12892;172490;34.68;665;03.33.47.499
12908;172495;34.68;666;03.33.47.499
12908;172511;34.68;667;03.33.47.499
12904;172530;34.68;668;03.33.47.499
12896;172536;34.68;669;03.33.47.499
12912;172556;34.68;670;03.33.47.499
12908;172569;34.68;671;03.33.47.499
12916;172575;34.68;672;03.33.47.499
12924;172600;34.68;673;03.33.47.499
12936;172601;34.68;674;03.33.47.499
12904;172622;34.68;675;03.33.47.620
12908;172639;34.68;676;03.33.47.620
12900;172657;34.68;677;03.33.47.620
12896;172653;34.68;678;03.33.47.620
12924;172672;34.68;679;03.33.47.620
12892;172665;34.68;680;03.33.47.620
12892;172679;34.68;681;03.33.47.620
12884;172702;34.68;682;03.33.47.620
12916;172706;34.68;683;03.33.47.631
12924;172715;34.68;684;03.33.47.631
12920;172722;34.68;685;03.33.47.631
12924;172722;34.68;686;03.33.47.631
12908;172731;34.68;687;03.33.47.631
12924;172733;34.68;688;03.33.47.631
12928;172745;34.68;689;03.33.47.631
12920;172741;34.68;690;03.33.47.631
12928;172756;34.68;691;03.33.47.631
12904;172759;34.68;692;03.33.47.631
12916;172763;34.68;693;03.33.47.642
12892;172766;34.68;694;03.33.47.642
12908;172763;34.68;695;03.33.47.642
12904;172764;34.68;696;03.33.47.642
12928;172760;34.68;697;03.33.47.642
12932;172763;34.68;698;03.33.47.642
12944;172762;34.68;699;03.33.47.642
12888;172764;34.68;700;03.33.47.752
12928;172772;34.68;701;03.33.47.752
12892;172775;34.68;702;03.33.47.752
12892;172783;34.68;703;03.33.47.752
12920;172785;34.68;704;03.33.47.752
12900;172790;34.68;705;03.33.47.752
12892;172798;34.68;706;03.33.47.763
12904;172801;34.68;707;03.33.47.763
12904;172799;34.68;708;03.33.47.763
12944;172812;34.68;709;03.33.47.763
12908;172806;34.68;710;03.33.47.763
12920;172804;34.68;711;03.33.47.763
12900;172801;34.68;712;03.33.47.763
12900;172814;34.68;713;03.33.47.763
12924;172815;34.68;714;03.33.47.763
12904;172825;34.68;715;03.33.47.763
12892;172828;34.68;716;03.33.47.763
12904;172835;34.68;717;03.33.47.763
12932;172836;34.68;718;03.33.47.763
12908;172844;34.68;719;03.33.47.774
12900;172844;34.68;720;03.33.47.774
12936;172855;34.68;721;03.33.47.774
12908;172864;34.68;722;03.33.47.774
12916;172873;34.68;723;03.33.47.774
12892;172876;34.68;724;03.33.47.774
12904;172882;34.68;725;03.33.47.861
12904;172899;34.68;726;03.33.47.861
12936;172902;34.68;727;03.33.47.861
12928;172904;34.68;728;03.33.47.862
12924;172910;34.68;729;03.33.47.873
12912;172897;34.68;730;03.33.47.873
12888;172908;34.68;731;03.33.47.873
12900;172903;34.68;732;03.33.47.873
12908;172901;34.68;733;03.33.47.873
12892;172915;34.68;734;03.33.47.873
12928;172920;34.68;735;03.33.47.873
12920;172908;34.68;736;03.33.47.884
12892;172905;34.68;737;03.33.47.884
12904;172906;34.68;738;03.33.47.884
12900;172898;34.68;739;03.33.47.884
12896;172892;34.68;740;03.33.47.884
12892;172893;34.68;741;03.33.47.884
12912;172890;34.68;742;03.33.47.884
12920;172880;34.68;743;03.33.47.884
12896;172873;34.68;744;03.33.47.884
12912;172872;34.68;745;03.33.47.884
12900;172868;34.68;746;03.33.47.895
12916;172862;34.68;747;03.33.47.895
12908;172853;34.68;748;03.33.47.895
12944;172847;34.68;749;03.33.47.895
12928;172844;34.68;750;03.33.47.994
12916;172830;34.68;751;03.33.47.994
12904;172831;34.68;752;03.33.47.994
12928;172816;34.68;753;03.33.47.994
12928;172828;34.68;754;03.33.47.994
12908;172822;34.68;755;03.33.47.994
12920;172820;34.68;756;03.33.47.994
12920;172824;34.68;757;03.33.47.994
12908;172827;34.68;758;03.33.48.016
12912;172809;34.68;759;03.33.48.016
12908;172805;34.68;760;03.33.48.016
12904;172808;34.68;761;03.33.48.016
12904;172812;34.68;762;03.33.48.016
12904;172804;34.68;763;03.33.48.016
12904;172801;34.68;764;03.33.48.016
12928;172803;34.68;765;03.33.48.016
12896;172802;34.68;766;03.33.48.016
12916;172799;34.68;767;03.33.48.016
12916;172806;34.68;768;03.33.48.016
12900;172802;34.68;769;03.33.48.027
12928;172805;34.68;770;03.33.48.027
12904;172807;34.68;771;03.33.48.027
12912;172810;34.68;772;03.33.48.027
12928;172808;34.68;773;03.33.48.027
12924;172802;34.68;774;03.33.48.027
12900;172802;34.72;775;03.33.48.115
12900;172791;34.72;776;03.33.48.115
12912;172787;34.72;777;03.33.48.115
12904;172779;34.72;778;03.33.48.115
12928;172757;34.72;779;03.33.48.115
12892;172747;34.72;780;03.33.48.115
12928;172730;34.72;781;03.33.48.115
12904;172710;34.72;782;03.33.48.115
12928;172683;34.72;783;03.33.48.115
12928;172671;34.72;784;03.33.48.126
12892;172638;34.72;785;03.33.48.126
12952;172622;34.72;786;03.33.48.126
12920;172591;34.72;787;03.33.48.126
12916;172567;34.72;788;03.33.48.126
12908;172550;34.72;789;03.33.48.126
12916;172535;34.72;790;03.33.48.126
12912;172517;34.72;791;03.33.48.126
12936;172496;34.72;792;03.33.48.126
12916;172488;34.72;793;03.33.48.126
12900;172479;34.72;794;03.33.48.126
12928;172465;34.72;795;03.33.48.126
12896;172452;34.72;796;03.33.48.137
12936;172442;34.72;797;03.33.48.137
12916;172442;34.72;798;03.33.48.137
12936;172427;34.72;799;03.33.48.137
12908;172414;34.72;800;03.33.48.246
12912;172411;34.72;801;03.33.48.246
12900;172407;34.72;802;03.33.48.246
12892;172403;34.72;803;03.33.48.246
12916;172395;34.72;804;03.33.48.246
12936;172390;34.72;805;03.33.48.246
12936;172381;34.72;806;03.33.48.257
12940;172386;34.72;807;03.33.48.257
12928;172386;34.72;808;03.33.48.257
12892;172374;34.72;809;03.33.48.257
12928;172375;34.72;810;03.33.48.257
12928;172373;34.72;811;03.33.48.257
12908;172366;34.72;812;03.33.48.257
12904;172359;34.72;813;03.33.48.257
12916;172354;34.72;814;03.33.48.257
12904;172353;34.72;815;03.33.48.257
12928;172350;34.72;816;03.33.48.257
12908;172339;34.72;817;03.33.48.257
12912;172333;34.72;818;03.33.48.268
12952;172324;34.72;819;03.33.48.268
12924;172309;34.72;820;03.33.48.268
12904;172304;34.72;821;03.33.48.268
12932;172291;34.72;822;03.33.48.268
12908;172273;34.72;823;03.33.48.268
12936;172248;34.72;824;03.33.48.268
12892;172219;34.68;825;03.33.48.366
12928;172206;34.68;826;03.33.48.366
12908;172170;34.68;827;03.33.48.366
12908;172145;34.68;828;03.33.48.366
12916;172112;34.68;829;03.33.48.366
12912;172082;34.68;830;03.33.48.366
12936;172038;34.68;831;03.33.48.366
12912;172011;34.68;832;03.33.48.366
12912;171971;34.68;833;03.33.48.376
12908;171935;34.68;834;03.33.48.376
12900;171905;34.68;835;03.33.48.376
12888;171865;34.68;836;03.33.48.376
12924;171832;34.68;837;03.33.48.376
12896;171791;34.68;838;03.33.48.376
12904;171757;34.68;839;03.33.48.376
12912;171724;34.68;840;03.33.48.376
12912;171690;34.68;841;03.33.48.376
12920;171667;34.68;842;03.33.48.387
12884;171637;34.68;843;03.33.48.387
12908;171616;34.68;844;03.33.48.387
12924;171575;34.68;845;03.33.48.387
12892;171558;34.68;846;03.33.48.387
12876;171529;34.68;847;03.33.48.387
12928;171505;34.68;848;03.33.48.387
12928;171490;34.68;849;03.33.48.387
12924;171464;34.68;850;03.33.48.486
12912;171447;34.68;851;03.33.48.486
12936;171433;34.68;852;03.33.48.486
12924;171408;34.68;853;03.33.48.486
12928;171392;34.68;854;03.33.48.486
12892;171371;34.68;855;03.33.48.486
12892;171359;34.68;856;03.33.48.486
12912;171352;34.68;857;03.33.48.486
12920;171344;34.68;858;03.33.48.486
12924;171336;34.68;859;03.33.48.497
12920;171325;34.68;860;03.33.48.497
12916;171315;34.68;861;03.33.48.497
12908;171325;34.68;862;03.33.48.497
12928;171309;34.68;863;03.33.48.497
12932;171306;34.68;864;03.33.48.497
12892;171300;34.68;865;03.33.48.497
12916;171299;34.68;866;03.33.48.497
12916;171284;34.68;867;03.33.48.519
12908;171297;34.68;868;03.33.48.519
12908;171286;34.68;869;03.33.48.519
12932;171274;34.68;870;03.33.48.519
12908;171270;34.68;871;03.33.48.519
12936;171276;34.68;872;03.33.48.519
12892;171273;34.68;873;03.33.48.519
12920;171268;34.68;874;03.33.48.519
12904;171275;34.68;875;03.33.48.607
12904;171266;34.68;876;03.33.48.607
12932;171262;34.68;877;03.33.48.607
12896;171248;34.68;878;03.33.48.607
12888;171242;34.68;879;03.33.48.607
12908;171247;34.68;880;03.33.48.607
12928;171233;34.68;881;03.33.48.618
12928;171228;34.68;882;03.33.48.618
12916;171227;34.68;883;03.33.48.618
12912;171232;34.68;884;03.33.48.618
12932;171230;34.68;885;03.33.48.618
12928;171218;34.68;886;03.33.48.618
12904;171216;34.68;887;03.33.48.618
12920;171212;34.68;888;03.33.48.618
12916;171218;34.68;889;03.33.48.618
12932;171217;34.68;890;03.33.48.618
12904;171205;34.68;891;03.33.48.618
12932;171208;34.68;892;03.33.48.618
12932;171205;34.68;893;03.33.48.629
12900;171196;34.68;894;03.33.48.629
12920;171201;34.68;895;03.33.48.629
12932;171195;34.68;896;03.33.48.629
12912;171196;34.68;897;03.33.48.629
12908;171189;34.68;898;03.33.48.629
12920;171196;34.68;899;03.33.48.629
12912;171198;34.68;900;03.33.48.738
12928;171200;34.68;901;03.33.48.738
12912;171203;34.68;902;03.33.48.749
12912;171204;34.68;903;03.33.48.749
12892;171218;34.68;904;03.33.48.749
12908;171221;34.68;905;03.33.48.749
12908;171226;34.68;906;03.33.48.749
12928;171225;34.68;907;03.33.48.749
12916;171229;34.68;908;03.33.48.749
12928;171231;34.68;909;03.33.48.749
12900;171231;34.68;910;03.33.48.749
12908;171234;34.68;911;03.33.48.749
12916;171233;34.68;912;03.33.48.749
12928;171240;34.68;913;03.33.48.749
12900;171251;34.68;914;03.33.48.760
12920;171257;34.68;915;03.33.48.760
12892;171267;34.68;916;03.33.48.760
12904;171257;34.68;917;03.33.48.760
12924;171263;34.68;918;03.33.48.760
12916;171274;34.68;919;03.33.48.760
12928;171272;34.68;920;03.33.48.760
12908;171282;34.68;921;03.33.48.760
12940;171280;34.68;922;03.33.48.760
12936;171282;34.68;923;03.33.48.760
12944;171283;34.68;924;03.33.48.760
12936;171292;34.68;925;03.33.48.880
12908;171298;34.68;926;03.33.48.880
12912;171307;34.68;927;03.33.48.880
12928;171314;34.68;928;03.33.48.880
12904;171327;34.68;929;03.33.48.880
12928;171340;34.68;930;03.33.48.880
12916;171356;34.68;931;03.33.48.880
12924;171360;34.68;932;03.33.48.880
12920;171364;34.68;933;03.33.48.880
12904;171386;34.68;934;03.33.48.880
12928;171384;34.68;935;03.33.48.891
12916;171400;34.68;936;03.33.48.891
12920;171412;34.68;937;03.33.48.891
12916;171432;34.68;938;03.33.48.891
12900;171445;34.68;939;03.33.48.891
12916;171455;34.68;940;03.33.48.891
12912;171477;34.68;941;03.33.48.891
12884;171499;34.68;942;03.33.48.891
12892;171493;34.68;943;03.33.48.891
12892;171517;34.68;944;03.33.48.891
12904;171521;34.68;945;03.33.48.891
12888;171537;34.68;946;03.33.48.891
12928;171542;34.68;947;03.33.48.891
12908;171545;34.68;948;03.33.48.902
12928;171559;34.68;949;03.33.48.902
12928;171561;34.68;950;03.33.48.990
12940;171566;34.68;951;03.33.48.990
12888;171566;34.68;952;03.33.48.990
12912;171579;34.68;953;03.33.48.990
12960;171583;34.68;954;03.33.48.990
12896;171586;34.68;955;03.33.48.990
12928;171585;34.68;956;03.33.48.990
12928;171577;34.68;957;03.33.49.001
12904;171574;34.68;958;03.33.49.001
12892;171573;34.68;959;03.33.49.001
12908;171581;34.68;960;03.33.49.001
12912;171572;34.68;961;03.33.49.001
12920;171564;34.68;962;03.33.49.001
12916;171572;34.68;963;03.33.49.001
12920;171574;34.68;964;03.33.49.001
12928;171568;34.68;965;03.33.49.001
12928;171573;34.68;966;03.33.49.012
12940;171582;34.68;967;03.33.49.023
12884;171574;34.68;968;03.33.49.023
12928;171578;34.68;969;03.33.49.023
12944;171583;34.68;970;03.33.49.023
12912;171577;34.68;971;03.33.49.023
12916;171586;34.68;972;03.33.49.023
12920;171572;34.68;973;03.33.49.023
12948;171580;34.68;974;03.33.49.034
12888;171583;34.72;975;03.33.49.111
12884;171585;34.72;976;03.33.49.111
12892;171584;34.72;977;03.33.49.122
12916;171593;34.72;978;03.33.49.122
12920;171602;34.72;979;03.33.49.122
12940;171605;34.72;980;03.33.49.122
12924;171605;34.72;981;03.33.49.122
12920;171615;34.72;982;03.33.49.122
12924;171607;34.72;983;03.33.49.122
12928;171624;34.72;984;03.33.49.122
12908;171634;34.72;985;03.33.49.122
12896;171655;34.72;986;03.33.49.122
12916;171669;34.72;987;03.33.49.122
12928;171672;34.72;988;03.33.49.122
12916;171684;34.72;989;03.33.49.122
12916;171698;34.72;990;03.33.49.122
12928;171724;34.72;991;03.33.49.133
12916;171740;34.72;992;03.33.49.133
12900;171769;34.72;993;03.33.49.133
12904;171800;34.72;994;03.33.49.133
12932;171828;34.72;995;03.33.49.133
12908;171859;34.72;996;03.33.49.133
12916;171884;34.72;997;03.33.49.133
12892;171904;34.72;998;03.33.49.133
12920;171935;34.72;999;03.33.49.133
d;e;f;03.33.50.405
12908;000939;34.72;000;03.33.50.536
12912;057589;34.72;001;03.33.50.536
12944;073922;34.72;002;03.33.50.536
12920;090314;34.72;003;03.33.50.536
12916;106704;34.72;004;03.33.50.536
12936;123090;34.72;005;03.33.50.536
12892;139458;34.72;006;03.33.50.536
12904;155860;34.72;007;03.33.50.536
12936;172257;34.72;008;03.33.50.536
12924;172936;34.72;009;03.33.50.536
12912;172941;34.72;010;03.33.50.536
12904;172947;34.72;011;03.33.50.536
12892;172944;34.72;012;03.33.50.547
12912;172939;34.72;013;03.33.50.547
12924;172933;34.72;014;03.33.50.547
12904;172938;34.72;015;03.33.50.547
12892;172932;34.72;016;03.33.50.547
12920;172934;34.72;017;03.33.50.579
12916;172927;34.72;018;03.33.50.579
12908;172927;34.72;019;03.33.50.579
12936;172925;34.72;020;03.33.50.579
12900;172921;34.72;021;03.33.50.579
12932;172929;34.72;022;03.33.50.579
12912;172921;34.72;023;03.33.50.579
12940;172916;34.72;024;03.33.50.579
12908;172922;34.72;025;03.33.50.656
12904;172916;34.72;026;03.33.50.656
12944;172917;34.72;027;03.33.50.656
12896;172918;34.72;028;03.33.50.656
12912;172909;34.72;029;03.33.50.656
12908;172906;34.72;030;03.33.50.656
12892;172898;34.72;031;03.33.50.656
12924;172907;34.72;032;03.33.50.656
12936;172903;34.72;033;03.33.50.667
12928;172897;34.72;034;03.33.50.667
12892;172894;34.72;035;03.33.50.667
12924;172895;34.72;036;03.33.50.667
12908;172895;34.72;037;03.33.50.667
12908;172896;34.72;038;03.33.50.667
12928;172898;34.72;039;03.33.50.667
12932;172899;34.72;040;03.33.50.667
12928;172899;34.72;041;03.33.50.667
12876;172893;34.72;042;03.33.50.667
12912;172891;34.72;043;03.33.50.667
12908;172894;34.72;044;03.33.50.667
12924;172888;34.72;045;03.33.50.667
12928;172893;34.72;046;03.33.50.678
12916;172877;34.72;047;03.33.50.678
12912;172886;34.72;048;03.33.50.678
12924;172888;34.72;049;03.33.50.678
12896;172887;34.72;050;03.33.50.787
12892;172875;34.72;051;03.33.50.787
12916;172882;34.72;052;03.33.50.798
12900;172880;34.72;053;03.33.50.798
12900;172873;34.72;054;03.33.50.798
12892;172868;34.72;055;03.33.50.798
12892;172874;34.72;056;03.33.50.798
12908;172870;34.72;057;03.33.50.798
12940;172869;34.72;058;03.33.50.798
12928;172867;34.72;059;03.33.50.798
12916;172865;34.72;060;03.33.50.798
12920;172865;34.72;061;03.33.50.798
12912;172868;34.72;062;03.33.50.798
12920;172863;34.72;063;03.33.50.798
12908;172851;34.72;064;03.33.50.809
12912;172858;34.72;065;03.33.50.809
12928;172848;34.72;066;03.33.50.809
12900;172847;34.72;067;03.33.50.809
12892;172846;34.72;068;03.33.50.809
12960;172851;34.72;069;03.33.50.809
12924;172840;34.72;070;03.33.50.809
12904;172834;34.72;071;03.33.50.809
12896;172831;34.72;072;03.33.50.809
12904;172828;34.72;073;03.33.50.809
12936;172828;34.72;074;03.33.50.809
12904;172824;34.72;075;03.33.50.907
12916;172823;34.72;076;03.33.50.907
12932;172817;34.72;077;03.33.50.907
12920;172819;34.72;078;03.33.50.907
12860;172816;34.72;079;03.33.50.907
12924;172816;34.72;080;03.33.50.907
12904;172817;34.72;081;03.33.50.907
12884;172814;34.72;082;03.33.50.907
12908;172808;34.72;083;03.33.50.929
12908;172808;34.72;084;03.33.50.929
12896;172815;34.72;085;03.33.50.929
12876;172810;34.72;086;03.33.50.929
12912;172811;34.72;087;03.33.50.929
12896;172810;34.72;088;03.33.50.929
12892;172811;34.72;089;03.33.50.929
12924;172814;34.72;090;03.33.50.929
12900;172812;34.72;091;03.33.50.929
12904;172802;34.72;092;03.33.50.929
12912;172809;34.72;093;03.33.50.929
12896;172811;34.72;094;03.33.50.929
12888;172801;34.72;095;03.33.50.940
12916;172803;34.72;096;03.33.50.940
12920;172802;34.72;097;03.33.50.940
12908;172807;34.72;098;03.33.50.940
12924;172799;34.72;099;03.33.50.940
12912;172798;34.68;100;03.33.51.028
12888;172789;34.68;101;03.33.51.028
12904;172787;34.68;102;03.33.51.028
12928;172800;34.68;103;03.33.51.028
12960;172793;34.68;104;03.33.51.028
12892;172799;34.68;105;03.33.51.028
12932;172792;34.68;106;03.33.51.028
12908;172788;34.68;107;03.33.51.028
12888;172785;34.68;108;03.33.51.028
12944;172777;34.68;109;03.33.51.039
12936;172778;34.68;110;03.33.51.039
12892;172778;34.68;111;03.33.51.039
12928;172775;34.68;112;03.33.51.039
12892;172768;34.68;113;03.33.51.039
12900;172768;34.68;114;03.33.51.039
12928;172762;34.68;115;03.33.51.039
12916;172760;34.68;116;03.33.51.039
12912;172744;34.68;117;03.33.51.050
12924;172745;34.68;118;03.33.51.050
12916;172738;34.68;119;03.33.51.050
12892;172737;34.68;120;03.33.51.050
12928;172735;34.68;121;03.33.51.050
12900;172730;34.68;122;03.33.51.050
12916;172743;34.68;123;03.33.51.050
12908;172720;34.68;124;03.33.51.050
12892;172727;34.68;125;03.33.51.149
12900;172715;34.68;126;03.33.51.149
12892;172714;34.68;127;03.33.51.149
12908;172712;34.68;128;03.33.51.149
12892;172705;34.68;129;03.33.51.149
12928;172711;34.68;130;03.33.51.149
12908;172703;34.68;131;03.33.51.159
12924;172708;34.68;132;03.33.51.159
12936;172694;34.68;133;03.33.51.159
12900;172698;34.68;134;03.33.51.159
12876;172691;34.68;135;03.33.51.159
12896;172695;34.68;136;03.33.51.159
12928;172686;34.68;137;03.33.51.159
12916;172684;34.68;138;03.33.51.159
12932;172678;34.68;139;03.33.51.159
12944;172674;34.68;140;03.33.51.159
12912;172660;34.68;141;03.33.51.159
12928;172662;34.68;142;03.33.51.159
12896;172643;34.68;143;03.33.51.170
12908;172627;34.68;144;03.33.51.170
12900;172617;34.68;145;03.33.51.170
12916;172611;34.68;146;03.33.51.170
12912;172618;34.68;147;03.33.51.170
12904;172608;34.68;148;03.33.51.170
12904;172598;34.68;149;03.33.51.170
12912;172592;34.68;150;03.33.51.280
12900;172588;34.68;151;03.33.51.291
12932;172572;34.68;152;03.33.51.291
12928;172569;34.68;153;03.33.51.291
12928;172570;34.68;154;03.33.51.291
12892;172553;34.68;155;03.33.51.291
12884;172561;34.68;156;03.33.51.291
12900;172550;34.68;157;03.33.51.291
12928;172553;34.68;158;03.33.51.291
12896;172551;34.68;159;03.33.51.302
12920;172544;34.68;160;03.33.51.302
12928;172535;34.68;161;03.33.51.302
12916;172537;34.68;162;03.33.51.302
12860;172538;34.68;163;03.33.51.302
12920;172537;34.68;164;03.33.51.302
12900;172536;34.68;165;03.33.51.302
12908;172532;34.68;166;03.33.51.302
12908;172524;34.68;167;03.33.51.302
12892;172525;34.68;168;03.33.51.313
12900;172532;34.68;169;03.33.51.313
12892;172513;34.68;170;03.33.51.313
12896;172514;34.68;171;03.33.51.313
12928;172523;34.68;172;03.33.51.313
12900;172506;34.68;173;03.33.51.313
12924;172510;34.68;174;03.33.51.313
12908;172506;34.68;175;03.33.51.434
12880;172507;34.68;176;03.33.51.434
12904;172506;34.68;177;03.33.51.434
12892;172508;34.68;178;03.33.51.434
12908;172507;34.68;179;03.33.51.434
12908;172505;34.68;180;03.33.51.434
12928;172515;34.68;181;03.33.51.434
12908;172511;34.68;182;03.33.51.434
12892;172503;34.68;183;03.33.51.434
12908;172507;34.68;184;03.33.51.434
12912;172507;34.68;185;03.33.51.445
12892;172514;34.68;186;03.33.51.445
12912;172510;34.68;187;03.33.51.445
12920;172511;34.68;188;03.33.51.445
12896;172508;34.68;189;03.33.51.445
12892;172514;34.68;190;03.33.51.445
12908;172520;34.68;191;03.33.51.445
12904;172522;34.68;192;03.33.51.445
12904;172525;34.68;193;03.33.51.445
12876;172518;34.68;194;03.33.51.445
12928;172530;34.68;195;03.33.51.445
12924;172534;34.68;196;03.33.51.445
12908;172528;34.68;197;03.33.51.445
12892;172538;34.68;198;03.33.51.456
12932;172531;34.68;199;03.33.51.456
12888;172535;34.68;200;03.33.51.555
12912;172538;34.68;201;03.33.51.555
12892;172527;34.68;202;03.33.51.555
12916;172521;34.68;203;03.33.51.555
12900;172534;34.68;204;03.33.51.555
12928;172513;34.68;205;03.33.51.555
12904;172515;34.68;206;03.33.51.566
12920;172517;34.68;207;03.33.51.566
12908;172511;34.68;208;03.33.51.566
12912;172511;34.68;209;03.33.51.566
12916;172502;34.68;210;03.33.51.566
12916;172500;34.68;211;03.33.51.566
12928;172499;34.68;212;03.33.51.566
12920;172493;34.68;213;03.33.51.566
12876;172490;34.68;214;03.33.51.566
12928;172497;34.68;215;03.33.51.566
12912;172496;34.68;216;03.33.51.566
12916;172482;34.68;217;03.33.51.566
12892;172477;34.68;218;03.33.51.566
12928;172481;34.68;219;03.33.51.577
12908;172478;34.68;220;03.33.51.577
12916;172482;34.68;221;03.33.51.577
12908;172476;34.68;222;03.33.51.577
12928;172470;34.68;223;03.33.51.577
12924;172472;34.68;224;03.33.51.577
12908;172472;34.68;225;03.33.51.654
12920;172481;34.68;226;03.33.51.654
12880;172479;34.68;227;03.33.51.654
12928;172476;34.68;228;03.33.51.664
12884;172479;34.68;229;03.33.51.664
12896;172465;34.68;230;03.33.51.664
12920;172483;34.68;231;03.33.51.664
12908;172478;34.68;232;03.33.51.664
12920;172482;34.68;233;03.33.51.664
12944;172482;34.68;234;03.33.51.664
12900;172481;34.68;235;03.33.51.664
12884;172485;34.68;236;03.33.51.664
12908;172484;34.68;237;03.33.51.675
12892;172497;34.68;238;03.33.51.675
12912;172479;34.68;239;03.33.51.675
12892;172481;34.68;240;03.33.51.675
12928;172488;34.68;241;03.33.51.675
12892;172490;34.68;242;03.33.51.686
12900;172492;34.68;243;03.33.51.686
12928;172490;34.68;244;03.33.51.686
12908;172495;34.68;245;03.33.51.697
12916;172499;34.68;246;03.33.51.697
12912;172492;34.68;247;03.33.51.697
12928;172490;34.68;248;03.33.51.697
12944;172500;34.68;249;03.33.51.697
12892;172493;34.68;250;03.33.51.785
12912;172481;34.68;251;03.33.51.785
12908;172485;34.68;252;03.33.51.785
12908;172492;34.68;253;03.33.51.785
12908;172481;34.68;254;03.33.51.785
12892;172485;34.68;255;03.33.51.785
12904;172489;34.68;256;03.33.51.785
12912;172486;34.68;257;03.33.51.785
12892;172482;34.68;258;03.33.51.785
12916;172485;34.68;259;03.33.51.785
12892;172484;34.68;260;03.33.51.785
12892;172483;34.68;261;03.33.51.796
12920;172485;34.68;262;03.33.51.796
12928;172491;34.68;263;03.33.51.796
12884;172483;34.68;264;03.33.51.796
12912;172485;34.68;265;03.33.51.796
12928;172494;34.68;266;03.33.51.796
12896;172493;34.68;267;03.33.51.796
12916;172493;34.68;268;03.33.51.796
12860;172491;34.68;269;03.33.51.796
12908;172493;34.68;270;03.33.51.796
12892;172498;34.68;271;03.33.51.796
12928;172506;34.68;272;03.33.51.796
12892;172508;34.68;273;03.33.51.796
12944;172506;34.68;274;03.33.51.796
12888;172508;34.68;275;03.33.51.917
12876;172506;34.68;276;03.33.51.917
12892;172507;34.68;277;03.33.51.917
12912;172514;34.68;278;03.33.51.917
12900;172516;34.68;279;03.33.51.917
12904;172514;34.68;280;03.33.51.917
12896;172519;34.68;281;03.33.51.917
12892;172526;34.68;282;03.33.51.928
12912;172525;34.68;283;03.33.51.928
12892;172525;34.68;284;03.33.51.928
12940;172529;34.68;285;03.33.51.928
12924;172518;34.68;286;03.33.51.928
12892;172520;34.68;287;03.33.51.928
12908;172524;34.68;288;03.33.51.928
12908;172523;34.68;289;03.33.51.928
12924;172526;34.68;290;03.33.51.928
12884;172528;34.68;291;03.33.51.928
12900;172533;34.68;292;03.33.51.939
12924;172536;34.68;293;03.33.51.939
12928;172548;34.68;294;03.33.51.939
12900;172537;34.68;295;03.33.51.939
12916;172538;34.68;296;03.33.51.939
12900;172536;34.68;297;03.33.51.939
12912;172536;34.68;298;03.33.51.939
12908;172537;34.68;299;03.33.51.939
12908;172541;34.68;300;03.33.52.026
12932;172540;34.68;301;03.33.52.026
12936;172544;34.68;302;03.33.52.026
12888;172539;34.68;303;03.33.52.026
12928;172529;34.68;304;03.33.52.026
12928;172525;34.68;305;03.33.52.036
12908;172534;34.68;306;03.33.52.036
12912;172521;34.68;307;03.33.52.036
12920;172520;34.68;308;03.33.52.047
12908;172510;34.68;309;03.33.52.047
12892;172510;34.68;310;03.33.52.047
12936;172501;34.68;311;03.33.52.047
12908;172501;34.68;312;03.33.52.048
12908;172495;34.68;313;03.33.52.048
12924;172483;34.68;314;03.33.52.059
12920;172475;34.68;315;03.33.52.059
12920;172474;34.68;316;03.33.52.059
12896;172468;34.68;317;03.33.52.059
12904;172464;34.68;318;03.33.52.059
12908;172452;34.68;319;03.33.52.059
12892;172456;34.68;320;03.33.52.059
12928;172453;34.68;321;03.33.52.059
12920;172452;34.68;322;03.33.52.070
12892;172445;34.68;323;03.33.52.070
12932;172442;34.68;324;03.33.52.070
12912;172435;34.68;325;03.33.52.147
12896;172426;34.68;326;03.33.52.147
12928;172428;34.68;327;03.33.52.158
12892;172427;34.68;328;03.33.52.158
12900;172423;34.68;329;03.33.52.158
12960;172420;34.68;330;03.33.52.158
12928;172418;34.68;331;03.33.52.158
12920;172415;34.68;332;03.33.52.158
12928;172411;34.68;333;03.33.52.158
12928;172411;34.68;334;03.33.52.158
12900;172408;34.68;335;03.33.52.158
12892;172410;34.68;336;03.33.52.158
12904;172409;34.68;337;03.33.52.158
12912;172405;34.68;338;03.33.52.158
12896;172408;34.68;339;03.33.52.158
12928;172405;34.68;340;03.33.52.169
12936;172403;34.68;341;03.33.52.169
12912;172403;34.68;342;03.33.52.169
12900;172399;34.68;343;03.33.52.169
12912;172408;34.68;344;03.33.52.169
12892;172403;34.68;345;03.33.52.169
12908;172405;34.68;346;03.33.52.169
12884;172404;34.68;347;03.33.52.169
12908;172411;34.68;348;03.33.52.169
12936;172395;34.68;349;03.33.52.169
12916;172403;34.72;350;03.33.52.279
12928;172413;34.72;351;03.33.52.279
12908;172410;34.72;352;03.33.52.279
12912;172410;34.72;353;03.33.52.279
12916;172414;34.72;354;03.33.52.279
12904;172412;34.72;355;03.33.52.279
12892;172416;34.72;356;03.33.52.279
12928;172417;34.72;357;03.33.52.279
12908;172422;34.72;358;03.33.52.279
12896;172421;34.72;359;03.33.52.279
12912;172413;34.72;360;03.33.52.279
12920;172418;34.72;361;03.33.52.290
12916;172413;34.72;362;03.33.52.290
12932;172404;34.72;363;03.33.52.290
12916;172406;34.72;364;03.33.52.290
12892;172403;34.72;365;03.33.52.290
12928;172406;34.72;366;03.33.52.290
12884;172415;34.72;367;03.33.52.290
12924;172409;34.72;368;03.33.52.290
12916;172415;34.72;369;03.33.52.290
12888;172417;34.72;370;03.33.52.290
12908;172415;34.72;371;03.33.52.290
12920;172413;34.72;372;03.33.52.290
12904;172421;34.72;373;03.33.52.290
12904;172421;34.72;374;03.33.52.301
12928;172420;34.72;375;03.33.52.410
12892;172416;34.72;376;03.33.52.410
12900;172415;34.72;377;03.33.52.410
12928;172415;34.72;378;03.33.52.410
12888;172420;34.72;379;03.33.52.410
12908;172420;34.72;380;03.33.52.410
12908;172409;34.72;381;03.33.52.410
12892;172417;34.72;382;03.33.52.411
12928;172417;34.72;383;03.33.52.422
12908;172421;34.72;384;03.33.52.422
12932;172413;34.72;385;03.33.52.422
12892;172412;34.72;386;03.33.52.422
12888;172418;34.72;387;03.33.52.422
12936;172417;34.72;388;03.33.52.422
12928;172415;34.72;389;03.33.52.422
12932;172417;34.72;390;03.33.52.422
12900;172421;34.72;391;03.33.52.422
12916;172417;34.72;392;03.33.52.422
12920;172423;34.72;393;03.33.52.422
12928;172419;34.72;394;03.33.52.422
12912;172413;34.72;395;03.33.52.422
12908;172408;34.72;396;03.33.52.422
12900;172414;34.72;397;03.33.52.433
12932;172414;34.72;398;03.33.52.433
12928;172412;34.72;399;03.33.52.433
12944;172410;34.68;400;03.33.52.543
12916;172408;34.68;401;03.33.52.543
12892;172406;34.68;402;03.33.52.543
12892;172407;34.68;403;03.33.52.543
12892;172398;34.68;404;03.33.52.554
12880;172392;34.68;405;03.33.52.554
12928;172392;34.68;406;03.33.52.554
12908;172399;34.68;407;03.33.52.554
12908;172393;34.68;408;03.33.52.554
12904;172394;34.68;409;03.33.52.554
12912;172392;34.68;410;03.33.52.554
12904;172399;34.68;411;03.33.52.554
12920;172400;34.68;412;03.33.52.554
12928;172397;34.68;413;03.33.52.554
12908;172391;34.68;414;03.33.52.554
12892;172395;34.68;415;03.33.52.554
12900;172386;34.68;416;03.33.52.554
12884;172383;34.68;417;03.33.52.565
12916;172385;34.68;418;03.33.52.565
12920;172371;34.68;419;03.33.52.565
12920;172366;34.68;420;03.33.52.565
12932;172374;34.68;421;03.33.52.565
12912;172366;34.68;422;03.33.52.565
12908;172365;34.68;423;03.33.52.565
12904;172367;34.68;424;03.33.52.565
12912;172368;34.68;425;03.33.52.686
12912;172365;34.68;426;03.33.52.686
12928;172376;34.68;427;03.33.52.686
12928;172374;34.68;428;03.33.52.686
12928;172380;34.68;429;03.33.52.686
12892;172371;34.68;430;03.33.52.686
12908;172379;34.68;431;03.33.52.686
12928;172386;34.68;432;03.33.52.686
12884;172392;34.68;433;03.33.52.686
12912;172392;34.68;434;03.33.52.686
12928;172395;34.68;435;03.33.52.686
12908;172392;34.68;436;03.33.52.686
12908;172402;34.68;437;03.33.52.697
12892;172399;34.68;438;03.33.52.697
12896;172401;34.68;439;03.33.52.697
12912;172407;34.68;440;03.33.52.697
12912;172409;34.68;441;03.33.52.697
12904;172412;34.68;442;03.33.52.697
12920;172418;34.68;443;03.33.52.697
12916;172416;34.68;444;03.33.52.697
12908;172420;34.68;445;03.33.52.697
12892;172425;34.68;446;03.33.52.697
12928;172421;34.68;447;03.33.52.697
12908;172431;34.68;448;03.33.52.697
12944;172433;34.68;449;03.33.52.697
12904;172426;34.72;450;03.33.52.795
12880;172432;34.72;451;03.33.52.795
12952;172426;34.72;452;03.33.52.795
12908;172435;34.72;453;03.33.52.795
12940;172437;34.72;454;03.33.52.795
12932;172431;34.72;455;03.33.52.795
12920;172431;34.72;456;03.33.52.795
12924;172432;34.72;457;03.33.52.795
12916;172418;34.72;458;03.33.52.806
12908;172423;34.72;459;03.33.52.806
12916;172421;34.72;460;03.33.52.806
12908;172411;34.72;461;03.33.52.806
12916;172413;34.72;462;03.33.52.806
12904;172403;34.72;463;03.33.52.806
12892;172409;34.72;464;03.33.52.806
12904;172398;34.72;465;03.33.52.806
12912;172386;34.72;466;03.33.52.806
12932;172381;34.72;467;03.33.52.817
12928;172363;34.72;468;03.33.52.817
12932;172354;34.72;469;03.33.52.817
12920;172351;34.72;470;03.33.52.817
12900;172340;34.72;471;03.33.52.817
12900;172330;34.72;472;03.33.52.817
12892;172326;34.72;473;03.33.52.817
12916;172311;34.72;474;03.33.52.817
12896;172313;34.72;475;03.33.52.916
12908;172299;34.72;476;03.33.52.916
12912;172298;34.72;477;03.33.52.916
12932;172299;34.72;478;03.33.52.916
12912;172287;34.72;479;03.33.52.916
12892;172273;34.72;480;03.33.52.916
12888;172279;34.72;481;03.33.52.916
12892;172268;34.72;482;03.33.52.927
12904;172255;34.72;483;03.33.52.927
12900;172251;34.72;484;03.33.52.927
12892;172246;34.72;485;03.33.52.927
12912;172243;34.72;486;03.33.52.927
12904;172240;34.72;487;03.33.52.927
12908;172239;34.72;488;03.33.52.927
12904;172228;34.72;489;03.33.52.927
12860;172223;34.72;490;03.33.52.927
12888;172219;34.72;491;03.33.52.927
12908;172209;34.72;492;03.33.52.927
12928;172216;34.72;493;03.33.52.927
12908;172199;34.72;494;03.33.52.938
12892;172197;34.72;495;03.33.52.938
12896;172191;34.72;496;03.33.52.938
12908;172182;34.72;497;03.33.52.938
12896;172181;34.72;498;03.33.52.938
12928;172182;34.72;499;03.33.52.938
12896;172175;34.72;500;03.33.53.035
12892;172168;34.72;501;03.33.53.046
12908;172165;34.72;502;03.33.53.046
12904;172161;34.72;503;03.33.53.046
12920;172156;34.72;504;03.33.53.046
12908;172143;34.72;505;03.33.53.046
12912;172137;34.72;506;03.33.53.046
12908;172126;34.72;507;03.33.53.046
12924;172128;34.72;508;03.33.53.046
12928;172120;34.72;509;03.33.53.046
12928;172116;34.72;510;03.33.53.057
12944;172108;34.72;511;03.33.53.057
12896;172099;34.72;512;03.33.53.057
12916;172103;34.72;513;03.33.53.057
12924;172098;34.72;514;03.33.53.057
12892;172095;34.72;515;03.33.53.057
12892;172087;34.72;516;03.33.53.057
12912;172083;34.72;517;03.33.53.057
12916;172086;34.72;518;03.33.53.057
12888;172089;34.72;519;03.33.53.057
12900;172094;34.72;520;03.33.53.057
12916;172087;34.72;521;03.33.53.057
12908;172095;34.72;522;03.33.53.068
12908;172090;34.72;523;03.33.53.068
12880;172102;34.72;524;03.33.53.068
12928;172098;34.72;525;03.33.53.156
12912;172100;34.72;526;03.33.53.156
12928;172095;34.72;527;03.33.53.156
12876;172103;34.72;528;03.33.53.156
12904;172106;34.72;529;03.33.53.156
12916;172101;34.72;530;03.33.53.156
12936;172106;34.72;531;03.33.53.156
12916;172101;34.72;532;03.33.53.156
12896;172099;34.72;533;03.33.53.167
12904;172107;34.72;534;03.33.53.167
12896;172111;34.72;535;03.33.53.167
12892;172106;34.72;536;03.33.53.167
12908;172104;34.72;537;03.33.53.167
12900;172105;34.72;538;03.33.53.167
12936;172106;34.72;539;03.33.53.167
12900;172102;34.72;540;03.33.53.167
12908;172100;34.72;541;03.33.53.167
12908;172099;34.72;542;03.33.53.178
12912;172098;34.72;543;03.33.53.178
12920;172105;34.72;544;03.33.53.178
12892;172102;34.72;545;03.33.53.178
12916;172099;34.72;546;03.33.53.178
12932;172096;34.72;547;03.33.53.178
12896;172103;34.72;548;03.33.53.178
12924;172114;34.72;549;03.33.53.178
12884;172099;34.68;550;03.33.53.276
12884;172110;34.68;551;03.33.53.276
12892;172106;34.68;552;03.33.53.276
12924;172103;34.68;553;03.33.53.276
12892;172109;34.68;554;03.33.53.276
12900;172107;34.68;555;03.33.53.276
12928;172105;34.68;556;03.33.53.287
12896;172107;34.68;557;03.33.53.287
12908;172113;34.68;558;03.33.53.287
12912;172116;34.68;559;03.33.53.287
12904;172124;34.68;560;03.33.53.287
12908;172122;34.68;561;03.33.53.287
12908;172129;34.68;562;03.33.53.287
12892;172132;34.68;563;03.33.53.287
12928;172133;34.68;564;03.33.53.287
12924;172139;34.68;565;03.33.53.287
12892;172138;34.68;566;03.33.53.287
12936;172150;34.68;567;03.33.53.287
12908;172153;34.68;568;03.33.53.287
12892;172152;34.68;569;03.33.53.298
12928;172167;34.68;570;03.33.53.298
12904;172166;34.68;571;03.33.53.298
12900;172174;34.68;572;03.33.53.298
12896;172171;34.68;573;03.33.53.298
12924;172192;34.68;574;03.33.53.298
12908;172185;34.68;575;03.33.53.396
12896;172192;34.68;576;03.33.53.396
12892;172193;34.68;577;03.33.53.407
12916;172191;34.68;578;03.33.53.407
12920;172209;34.68;579;03.33.53.407
12900;172203;34.68;580;03.33.53.407
12912;172209;34.68;581;03.33.53.407
12904;172217;34.68;582;03.33.53.407
12916;172224;34.68;583;03.33.53.407
12924;172226;34.68;584;03.33.53.407
12896;172238;34.68;585;03.33.53.407
12928;172244;34.68;586;03.33.53.407
12912;172245;34.68;587;03.33.53.407
12924;172250;34.68;588;03.33.53.407
12924;172258;34.68;589;03.33.53.407
12928;172265;34.68;590;03.33.53.407
12904;172267;34.68;591;03.33.53.418
12924;172276;34.68;592;03.33.53.418
12900;172281;34.68;593;03.33.53.418
12888;172291;34.68;594;03.33.53.418
12928;172300;34.68;595;03.33.53.418
12916;172291;34.68;596;03.33.53.418
12904;172311;34.68;597;03.33.53.418
12912;172320;34.68;598;03.33.53.418
12908;172327;34.68;599;03.33.53.418
12916;172329;34.72;600;03.33.53.538
12912;172327;34.72;601;03.33.53.538
12908;172339;34.72;602;03.33.53.538
12944;172351;34.72;603;03.33.53.538
12920;172344;34.72;604;03.33.53.538
12916;172353;34.72;605;03.33.53.538
12904;172348;34.72;606;03.33.53.538
12916;172344;34.72;607;03.33.53.538
12896;172347;34.72;608;03.33.53.538
12908;172346;34.72;609;03.33.53.538
12904;172341;34.72;610;03.33.53.549
12928;172352;34.72;611;03.33.53.549
12892;172338;34.72;612;03.33.53.549
12916;172339;34.72;613;03.33.53.549
12904;172332;34.72;614;03.33.53.549
12900;172325;34.72;615;03.33.53.549
12928;172318;34.72;616;03.33.53.549
12884;172320;34.72;617;03.33.53.549
12908;172314;34.72;618;03.33.53.549
12900;172303;34.72;619;03.33.53.549
12892;172300;34.72;620;03.33.53.549
12892;172304;34.72;621;03.33.53.549
12928;172296;34.72;622;03.33.53.549
12912;172289;34.72;623;03.33.53.560
12944;172285;34.72;624;03.33.53.560
12912;172293;34.72;625;03.33.53.659
12892;172293;34.72;626;03.33.53.659
12888;172293;34.72;627;03.33.53.659
12924;172287;34.72;628;03.33.53.659
12896;172281;34.72;629;03.33.53.659
12916;172281;34.72;630;03.33.53.670
12920;172285;34.72;631;03.33.53.670
12900;172290;34.72;632;03.33.53.670
12908;172284;34.72;633;03.33.53.670
12884;172281;34.72;634;03.33.53.670
12928;172289;34.72;635;03.33.53.670
12888;172288;34.72;636;03.33.53.670
12912;172286;34.72;637;03.33.53.670
12928;172283;34.72;638;03.33.53.670
12920;172283;34.72;639;03.33.53.670
12924;172281;34.72;640;03.33.53.670
12920;172284;34.72;641;03.33.53.681
12916;172286;34.72;642;03.33.53.681
12912;172290;34.72;643;03.33.53.681
12904;172290;34.72;644;03.33.53.681
12908;172291;34.72;645;03.33.53.681
12916;172286;34.72;646;03.33.53.681
12912;172291;34.72;647;03.33.53.681
12924;172293;34.72;648;03.33.53.681
12928;172291;34.72;649;03.33.53.692
12892;172288;34.68;650;03.33.53.779
12892;172287;34.68;651;03.33.53.779
12908;172285;34.68;652;03.33.53.779
12920;172289;34.68;653;03.33.53.790
12904;172291;34.68;654;03.33.53.790
12900;172283;34.68;655;03.33.53.790
12900;172300;34.68;656;03.33.53.790
12884;172299;34.68;657;03.33.53.790
12892;172296;34.68;658;03.33.53.790
12908;172295;34.68;659;03.33.53.801
12908;172286;34.68;660;03.33.53.801
12916;172287;34.68;661;03.33.53.801
12908;172291;34.68;662;03.33.53.801
12884;172288;34.68;663;03.33.53.801
12908;172287;34.68;664;03.33.53.801
12928;172290;34.68;665;03.33.53.801
12900;172299;34.68;666;03.33.53.801
12892;172291;34.68;667;03.33.53.801
12916;172291;34.68;668;03.33.53.801
12920;172282;34.68;669;03.33.53.801
12908;172290;34.68;670;03.33.53.801
12892;172283;34.68;671;03.33.53.801
12912;172287;34.68;672;03.33.53.801
12904;172289;34.68;673;03.33.53.812
12880;172286;34.68;674;03.33.53.812
12884;172285;34.68;675;03.33.53.910
12912;172281;34.68;676;03.33.53.910
12892;172285;34.68;677;03.33.53.910
12908;172285;34.68;678;03.33.53.910
12944;172284;34.68;679;03.33.53.910
12904;172285;34.68;680;03.33.53.910
12928;172286;34.68;681;03.33.53.910
12900;172291;34.68;682;03.33.53.910
12912;172293;34.68;683;03.33.53.910
12892;172293;34.68;684;03.33.53.910
12924;172303;34.68;685;03.33.53.910
12900;172301;34.68;686;03.33.53.921
12900;172293;34.68;687;03.33.53.921
12896;172303;34.68;688;03.33.53.921
12908;172308;34.68;689;03.33.53.921
12928;172310;34.68;690;03.33.53.921
12916;172310;34.68;691;03.33.53.921
12908;172311;34.68;692;03.33.53.921
12888;172316;34.68;693;03.33.53.921
12908;172312;34.68;694;03.33.53.921
12872;172317;34.68;695;03.33.53.921
12912;172320;34.68;696;03.33.53.921
12932;172323;34.68;697;03.33.53.921
12892;172323;34.68;698;03.33.53.921
12924;172323;34.68;699;03.33.53.932
12916;172335;34.72;700;03.33.54.031
12904;172327;34.72;701;03.33.54.031
12908;172329;34.72;702;03.33.54.031
12904;172339;34.72;703;03.33.54.031
12916;172334;34.72;704;03.33.54.031
12888;172332;34.72;705;03.33.54.031
12912;172328;34.72;706;03.33.54.031
12932;172325;34.72;707;03.33.54.031
12916;172333;34.72;708;03.33.54.042
12928;172330;34.72;709;03.33.54.042
12916;172335;34.72;710;03.33.54.042
12920;172338;34.72;711;03.33.54.042
12928;172345;34.72;712;03.33.54.042
12916;172336;34.72;713;03.33.54.042
12916;172344;34.72;714;03.33.54.042
12928;172353;34.72;715;03.33.54.042
12920;172344;34.72;716;03.33.54.053
12916;172346;34.72;717;03.33.54.053
12904;172350;34.72;718;03.33.54.053
12924;172354;34.72;719;03.33.54.053
12896;172355;34.72;720;03.33.54.053
12912;172355;34.72;721;03.33.54.053
12936;172358;34.72;722;03.33.54.053
12928;172355;34.72;723;03.33.54.053
12920;172363;34.72;724;03.33.54.053
12884;172361;34.72;725;03.33.54.173
12904;172356;34.72;726;03.33.54.173
12904;172360;34.72;727;03.33.54.173
12904;172366;34.72;728;03.33.54.184
12884;172365;34.72;729;03.33.54.184
12912;172375;34.72;730;03.33.54.184
12900;172376;34.72;731;03.33.54.184
12912;172375;34.72;732;03.33.54.184
12912;172370;34.72;733;03.33.54.184
12900;172378;34.72;734;03.33.54.184
12888;172390;34.72;735;03.33.54.184
12908;172386;34.72;736;03.33.54.184
12892;172390;34.72;737;03.33.54.184
12928;172379;34.72;738;03.33.54.184
12892;172382;34.72;739;03.33.54.184
12896;172381;34.72;740;03.33.54.184
12896;172373;34.72;741;03.33.54.195
12908;172372;34.72;742;03.33.54.195
12908;172372;34.72;743;03.33.54.195
12920;172370;34.72;744;03.33.54.195
12892;172358;34.72;745;03.33.54.195
12900;172354;34.72;746;03.33.54.195
12920;172339;34.72;747;03.33.54.195
12920;172336;34.72;748;03.33.54.195
12932;172327;34.72;749;03.33.54.195
12904;172325;34.68;750;03.33.54.272
12900;172314;34.68;751;03.33.54.284
12912;172303;34.68;752;03.33.54.284
12920;172306;34.68;753;03.33.54.284
12912;172300;34.68;754;03.33.54.284
12920;172298;34.68;755;03.33.54.284
12884;172292;34.68;756;03.33.54.284
12916;172289;34.68;757;03.33.54.284
12916;172280;34.68;758;03.33.54.306
12928;172282;34.68;759;03.33.54.306
12892;172265;34.68;760;03.33.54.317
12892;172271;34.68;761;03.33.54.317
12940;172268;34.68;762;03.33.54.317
12904;172261;34.68;763;03.33.54.317
12908;172253;34.68;764;03.33.54.317
12896;172253;34.68;765;03.33.54.317
12900;172244;34.68;766;03.33.54.317
12928;172244;34.68;767;03.33.54.317
12924;172244;34.68;768;03.33.54.317
12884;172245;34.68;769;03.33.54.317
12900;172251;34.68;770;03.33.54.317
12900;172254;34.68;771;03.33.54.317
12936;172261;34.68;772;03.33.54.317
12936;172256;34.68;773;03.33.54.328
12904;172248;34.68;774;03.33.54.328
12928;172250;34.68;775;03.33.54.405
12912;172252;34.68;776;03.33.54.405
12928;172253;34.68;777;03.33.54.405
12904;172260;34.68;778;03.33.54.405
12912;172257;34.68;779;03.33.54.405
12908;172258;34.68;780;03.33.54.405
12928;172258;34.68;781;03.33.54.405
12908;172260;34.68;782;03.33.54.405
12872;172260;34.68;783;03.33.54.405
12948;172270;34.68;784;03.33.54.405
12892;172273;34.68;785;03.33.54.405
12900;172284;34.68;786;03.33.54.416
12912;172289;34.68;787;03.33.54.416
12892;172286;34.68;788;03.33.54.416
12896;172288;34.68;789;03.33.54.416
12896;172285;34.68;790;03.33.54.416
12916;172289;34.68;791;03.33.54.416
12900;172294;34.68;792;03.33.54.416
12912;172295;34.68;793;03.33.54.416
12912;172297;34.68;794;03.33.54.416
12904;172305;34.68;795;03.33.54.416
12896;172299;34.68;796;03.33.54.416
12916;172309;34.68;797;03.33.54.416
12916;172313;34.68;798;03.33.54.416
12928;172308;34.68;799;03.33.54.427
12892;172311;34.68;800;03.33.54.536
12884;172314;34.68;801;03.33.54.536
12884;172318;34.68;802;03.33.54.536
12932;172317;34.68;803;03.33.54.536
12924;172325;34.68;804;03.33.54.536
12924;172326;34.68;805;03.33.54.536
12912;172322;34.68;806;03.33.54.536
12940;172323;34.68;807;03.33.54.547
12908;172329;34.68;808;03.33.54.547
12904;172330;34.68;809;03.33.54.547
12908;172328;34.68;810;03.33.54.547
12908;172326;34.68;811;03.33.54.547
12944;172332;34.68;812;03.33.54.547
12936;172330;34.68;813;03.33.54.547
12912;172336;34.68;814;03.33.54.547
12912;172336;34.68;815;03.33.54.547
12924;172339;34.68;816;03.33.54.547
12892;172348;34.68;817;03.33.54.558
12916;172334;34.68;818;03.33.54.558
12900;172351;34.68;819;03.33.54.558
12896;172357;34.68;820;03.33.54.558
12928;172352;34.68;821;03.33.54.558
12912;172359;34.68;822;03.33.54.558
12924;172361;34.68;823;03.33.54.558
12936;172368;34.68;824;03.33.54.569
12904;172379;34.68;825;03.33.54.668
12908;172371;34.68;826;03.33.54.668
12908;172380;34.68;827;03.33.54.679
12912;172385;34.68;828;03.33.54.679
12928;172392;34.68;829;03.33.54.679
12896;172390;34.68;830;03.33.54.679
12900;172391;34.68;831;03.33.54.679
12884;172393;34.68;832;03.33.54.679
12924;172398;34.68;833;03.33.54.679
12944;172403;34.68;834;03.33.54.679
12924;172407;34.68;835;03.33.54.679
12892;172399;34.68;836;03.33.54.679
12904;172410;34.68;837;03.33.54.679
12912;172412;34.68;838;03.33.54.679
12908;172404;34.68;839;03.33.54.679
12912;172417;34.68;840;03.33.54.690
12892;172412;34.68;841;03.33.54.690
12896;172408;34.68;842;03.33.54.690
12908;172405;34.68;843;03.33.54.690
12912;172407;34.68;844;03.33.54.690
12944;172405;34.68;845;03.33.54.690
12912;172414;34.68;846;03.33.54.690
12932;172404;34.68;847;03.33.54.690
12908;172414;34.68;848;03.33.54.690
12912;172403;34.68;849;03.33.54.690
12908;172397;34.68;850;03.33.54.788
12904;172394;34.68;851;03.33.54.788
12892;172399;34.68;852;03.33.54.788
12904;172390;34.68;853;03.33.54.788
12916;172391;34.68;854;03.33.54.788
12924;172384;34.68;855;03.33.54.788
12904;172379;34.68;856;03.33.54.788
12908;172370;34.68;857;03.33.54.788
12912;172368;34.68;858;03.33.54.788
12900;172366;34.68;859;03.33.54.788
12900;172354;34.68;860;03.33.54.799
12900;172354;34.68;861;03.33.54.799
12916;172355;34.68;862;03.33.54.799
12916;172349;34.68;863;03.33.54.799
12876;172335;34.68;864;03.33.54.799
12900;172346;34.68;865;03.33.54.799
12904;172345;34.68;866;03.33.54.799
12888;172334;34.68;867;03.33.54.810
12920;172331;34.68;868;03.33.54.810
12896;172324;34.68;869;03.33.54.810
12920;172320;34.68;870;03.33.54.810
12900;172300;34.68;871;03.33.54.810
12928;172299;34.68;872;03.33.54.810
12920;172285;34.68;873;03.33.54.810
12912;172272;34.68;874;03.33.54.810
12908;172273;34.68;875;03.33.54.909
12884;172264;34.68;876;03.33.54.909
12924;172241;34.68;877;03.33.54.909
12928;172229;34.68;878;03.33.54.909
12928;172233;34.68;879;03.33.54.909
12892;172225;34.68;880;03.33.54.909
12876;172219;34.68;881;03.33.54.909
12872;172217;34.68;882;03.33.54.909
12924;172203;34.68;883;03.33.54.920
12908;172200;34.68;884;03.33.54.920
12928;172200;34.68;885;03.33.54.920
12904;172203;34.68;886;03.33.54.920
12908;172192;34.68;887;03.33.54.920
12904;172196;34.68;888;03.33.54.920
12904;172188;34.68;889;03.33.54.920
12932;172188;34.68;890;03.33.54.920
12908;172182;34.68;891;03.33.54.920
12888;172185;34.68;892;03.33.54.942
12884;172174;34.68;893;03.33.54.942
12912;172177;34.68;894;03.33.54.942
12920;172179;34.68;895;03.33.54.942
12904;172184;34.68;896;03.33.54.942
12936;172172;34.68;897;03.33.54.942
12900;172177;34.68;898;03.33.54.942
12908;172175;34.68;899;03.33.54.953
12928;172178;34.72;900;03.33.55.030
12888;172174;34.72;901;03.33.55.030
12900;172182;34.72;902;03.33.55.030
12908;172182;34.72;903;03.33.55.030
12900;172187;34.72;904;03.33.55.041
12916;172190;34.72;905;03.33.55.041
12916;172195;34.72;906;03.33.55.041
12912;172192;34.72;907;03.33.55.041
12908;172200;34.72;908;03.33.55.041
12912;172197;34.72;909;03.33.55.041
12908;172202;34.72;910;03.33.55.041
12920;172205;34.72;911;03.33.55.041
12916;172220;34.72;912;03.33.55.041
12892;172220;34.72;913;03.33.55.041
12916;172211;34.72;914;03.33.55.041
12928;172224;34.72;915;03.33.55.041
12892;172220;34.72;916;03.33.55.041
12904;172229;34.72;917;03.33.55.041
12900;172220;34.72;918;03.33.55.052
12916;172228;34.72;919;03.33.55.052
12932;172236;34.72;920;03.33.55.052
12892;172241;34.72;921;03.33.55.052
12920;172242;34.72;922;03.33.55.052
12900;172247;34.72;923;03.33.55.052
12924;172252;34.72;924;03.33.55.052
12912;172247;34.72;925;03.33.55.161
12908;172256;34.72;926;03.33.55.172
12908;172253;34.72;927;03.33.55.172
12896;172260;34.72;928;03.33.55.172
12928;172262;34.72;929;03.33.55.172
12928;172261;34.72;930;03.33.55.172
12912;172270;34.72;931;03.33.55.172
12928;172266;34.72;932;03.33.55.172
12892;172266;34.72;933;03.33.55.172
12916;172269;34.72;934;03.33.55.172
12932;172279;34.72;935;03.33.55.172
12912;172275;34.72;936;03.33.55.172
12936;172272;34.72;937;03.33.55.172
12904;172280;34.72;938;03.33.55.172
12904;172271;34.72;939;03.33.55.183
12904;172274;34.72;940;03.33.55.183
12928;172281;34.72;941;03.33.55.183
12912;172274;34.72;942;03.33.55.183
12936;172276;34.72;943;03.33.55.183
12904;172274;34.72;944;03.33.55.183
12936;172273;34.72;945;03.33.55.183
12912;172281;34.72;946;03.33.55.183
12892;172275;34.72;947;03.33.55.183
12892;172278;34.72;948;03.33.55.183
12928;172279;34.72;949;03.33.55.183
12896;172286;34.72;950;03.33.55.282
12912;172279;34.72;951;03.33.55.282
12900;172281;34.72;952;03.33.55.282
12936;172281;34.72;953;03.33.55.282
12896;172283;34.72;954;03.33.55.282
12912;172284;34.72;955;03.33.55.282
12908;172287;34.72;956;03.33.55.282
12900;172289;34.72;957;03.33.55.282
12892;172290;34.72;958;03.33.55.304
12928;172287;34.72;959;03.33.55.304
12892;172279;34.72;960;03.33.55.304
12912;172291;34.72;961;03.33.55.304
12904;172288;34.72;962;03.33.55.304
12920;172283;34.72;963;03.33.55.304
12916;172294;34.72;964;03.33.55.304
12892;172298;34.72;965;03.33.55.304
12908;172297;34.72;966;03.33.55.304
12916;172296;34.72;967;03.33.55.304
12912;172303;34.72;968;03.33.55.315
12892;172304;34.72;969;03.33.55.315
12944;172310;34.72;970;03.33.55.315
12932;172307;34.72;971;03.33.55.315
12896;172313;34.72;972;03.33.55.315
12892;172312;34.72;973;03.33.55.315
12936;172320;34.72;974;03.33.55.315
12912;172321;34.72;975;03.33.55.403
12928;172321;34.72;976;03.33.55.403
12924;172324;34.72;977;03.33.55.403
12916;172333;34.72;978;03.33.55.403
12928;172332;34.72;979;03.33.55.403
12892;172342;34.72;980;03.33.55.403
12896;172345;34.72;981;03.33.55.403
12904;172347;34.72;982;03.33.55.414
12904;172349;34.72;983;03.33.55.414
12908;172348;34.72;984;03.33.55.414
12916;172354;34.72;985;03.33.55.414
12916;172357;34.72;986;03.33.55.414
12928;172353;34.72;987;03.33.55.414
12900;172355;34.72;988;03.33.55.414
12908;172366;34.72;989;03.33.55.414
12892;172363;34.72;990;03.33.55.414
12896;172359;34.72;991;03.33.55.414
12912;172366;34.72;992;03.33.55.457
12920;172363;34.72;993;03.33.55.457
12912;172363;34.72;994;03.33.55.457
12908;172366;34.72;995;03.33.55.457
12916;172358;34.72;996;03.33.55.457
12924;172355;34.72;997;03.33.55.457
12928;172355;34.72;998;03.33.55.468
12944;172340;34.72;999;03.33.55.468
12928;172343;34.68;000;03.33.55.523
12928;172324;34.68;001;03.33.55.523
12908;172313;34.68;002;03.33.55.523
12896;172314;34.68;003;03.33.55.534
12892;172301;34.68;004;03.33.55.534
12900;172290;34.68;005;03.33.55.534
12892;172286;34.68;006;03.33.55.534
12928;172273;34.68;007;03.33.55.534
12912;172267;34.68;008;03.33.55.534
12896;172258;34.68;009;03.33.55.534
12904;172254;34.68;010;03.33.55.534
12872;172251;34.68;011;03.33.55.534
12900;172239;34.68;012;03.33.55.534
12928;172228;34.68;013;03.33.55.534
12904;172218;34.68;014;03.33.55.534
12928;172216;34.68;015;03.33.55.545
12908;172208;34.68;016;03.33.55.545
12896;172201;34.68;017;03.33.55.545
12928;172200;34.68;018;03.33.55.545
12928;172203;34.68;019;03.33.55.545
12916;172196;34.68;020;03.33.55.545
12928;172197;34.68;021;03.33.55.545
12896;172194;34.68;022;03.33.55.545
12892;172190;34.68;023;03.33.55.545
12908;172182;34.68;024;03.33.55.545
12904;172186;34.68;025;03.33.55.688
12920;172183;34.68;026;03.33.55.688
12932;172192;34.68;027;03.33.55.688
12908;172184;34.68;028;03.33.55.688
12920;172183;34.68;029;03.33.55.688
12916;172194;34.68;030;03.33.55.688
12892;172187;34.68;031;03.33.55.688
12920;172195;34.68;032;03.33.55.688
12928;172190;34.68;033;03.33.55.710
12876;172194;34.68;034;03.33.55.710
12908;172187;34.68;035;03.33.55.710
12916;172185;34.68;036;03.33.55.710
12892;172201;34.68;037;03.33.55.710
12908;172204;34.68;038;03.33.55.710
12892;172207;34.68;039;03.33.55.710
12896;172217;34.68;040;03.33.55.710
12912;172218;34.68;041;03.33.55.710
12916;172220;34.68;042;03.33.55.721
12900;172226;34.68;043;03.33.55.721
12916;172228;34.68;044;03.33.55.721
12904;172228;34.68;045;03.33.55.721
12928;172232;34.68;046;03.33.55.721
12928;172236;34.68;047;03.33.55.721
12900;172238;34.68;048;03.33.55.721
12924;172237;34.68;049;03.33.55.721
12928;172238;34.68;050;03.33.55.798
12916;172245;34.68;051;03.33.55.798
12892;172256;34.68;052;03.33.55.798
12928;172252;34.68;053;03.33.55.798
12908;172253;34.68;054;03.33.55.798
12900;172259;34.68;055;03.33.55.798
12884;172257;34.68;056;03.33.55.798
12912;172260;34.68;057;03.33.55.798
12936;172265;34.68;058;03.33.55.809
12904;172265;34.68;059;03.33.55.809
12892;172267;34.68;060;03.33.55.809
12908;172273;34.68;061;03.33.55.809
12920;172289;34.68;062;03.33.55.809
12892;172287;34.68;063;03.33.55.809
12908;172290;34.68;064;03.33.55.809
12916;172283;34.68;065;03.33.55.809
12900;172290;34.68;066;03.33.55.809
12944;172289;34.68;067;03.33.55.809
12892;172292;34.68;068;03.33.55.809
12896;172284;34.68;069;03.33.55.809
12904;172289;34.68;070;03.33.55.809
12904;172293;34.68;071;03.33.55.819
12916;172298;34.68;072;03.33.55.819
12912;172291;34.68;073;03.33.55.819
12924;172289;34.68;074;03.33.55.819
12928;172286;34.68;075;03.33.55.907
12928;172287;34.68;076;03.33.55.907
12916;172297;34.68;077;03.33.55.907
12892;172294;34.68;078;03.33.55.907
12908;172293;34.68;079;03.33.55.907
12892;172302;34.68;080;03.33.55.918
12892;172296;34.68;081;03.33.55.918
12896;172310;34.68;082;03.33.55.918
12928;172306;34.68;083;03.33.55.918
12904;172309;34.68;084;03.33.55.918
12920;172305;34.68;085;03.33.55.918
12904;172315;34.68;086;03.33.55.918
12892;172321;34.68;087;03.33.55.929
12908;172321;34.68;088;03.33.55.929
12920;172325;34.68;089;03.33.55.929
12876;172326;34.68;090;03.33.55.929
12912;172334;34.68;091;03.33.55.929
12924;172330;34.68;092;03.33.55.929
12960;172338;34.68;093;03.33.55.929
12944;172338;34.68;094;03.33.55.929
12908;172341;34.68;095;03.33.55.929
12932;172340;34.68;096;03.33.55.929
12932;172343;34.68;097;03.33.55.929
12908;172345;34.68;098;03.33.55.929
12912;172344;34.68;099;03.33.55.929
12908;172345;34.72;100;03.33.56.028
12912;172350;34.72;101;03.33.56.038
12876;172339;34.72;102;03.33.56.038
12892;172353;34.72;103;03.33.56.038
12876;172338;34.72;104;03.33.56.038
12936;172339;34.72;105;03.33.56.038
12908;172343;34.72;106;03.33.56.038
12892;172350;34.72;107;03.33.56.038
12928;172350;34.72;108;03.33.56.038
12944;172343;34.72;109;03.33.56.038
12900;172349;34.72;110;03.33.56.038
12912;172349;34.72;111;03.33.56.038
12920;172348;34.72;112;03.33.56.038
12932;172349;34.72;113;03.33.56.038
12892;172341;34.72;114;03.33.56.049
12928;172346;34.72;115;03.33.56.049
12892;172350;34.72;116;03.33.56.049
12892;172349;34.72;117;03.33.56.071
12908;172341;34.72;118;03.33.56.071
12904;172350;34.72;119;03.33.56.071
12924;172346;34.72;120;03.33.56.071
12896;172346;34.72;121;03.33.56.071
12892;172341;34.72;122;03.33.56.071
12908;172337;34.72;123;03.33.56.071
12928;172331;34.72;124;03.33.56.071
12912;172320;34.72;125;03.33.56.159
12908;172319;34.72;126;03.33.56.159
12944;172297;34.72;127;03.33.56.159
12924;172293;34.72;128;03.33.56.159
12908;172283;34.72;129;03.33.56.159
12912;172273;34.72;130;03.33.56.159
12916;172285;34.72;131;03.33.56.159
12904;172262;34.72;132;03.33.56.159
12892;172261;34.72;133;03.33.56.159
12912;172248;34.72;134;03.33.56.159
12896;172244;34.72;135;03.33.56.170
12912;172230;34.72;136;03.33.56.170
12924;172222;34.72;137;03.33.56.170
12932;172224;34.72;138;03.33.56.170
12904;172214;34.72;139;03.33.56.170
12928;172217;34.72;140;03.33.56.170
12888;172217;34.72;141;03.33.56.170
12920;172213;34.72;142;03.33.56.170
12920;172208;34.72;143;03.33.56.170
12892;172209;34.72;144;03.33.56.170
12904;172211;34.72;145;03.33.56.170
12900;172212;34.72;146;03.33.56.170
12920;172196;34.72;147;03.33.56.170
12884;172204;34.72;148;03.33.56.181
12912;172204;34.72;149;03.33.56.181
12900;172207;34.68;150;03.33.56.291
12916;172196;34.68;151;03.33.56.291
12912;172198;34.68;152;03.33.56.291
12880;172197;34.68;153;03.33.56.291
12896;172199;34.68;154;03.33.56.291
12908;172196;34.68;155;03.33.56.291
12892;172198;34.68;156;03.33.56.301
12936;172202;34.68;157;03.33.56.301
12916;172209;34.68;158;03.33.56.301
12908;172210;34.68;159;03.33.56.301
12904;172212;34.68;160;03.33.56.301
12912;172204;34.68;161;03.33.56.301
12904;172216;34.68;162;03.33.56.301
12928;172206;34.68;163;03.33.56.301
12928;172215;34.68;164;03.33.56.301
12928;172219;34.68;165;03.33.56.301
12920;172219;34.68;166;03.33.56.301
12928;172227;34.68;167;03.33.56.301
12928;172223;34.68;168;03.33.56.312
12900;172228;34.68;169;03.33.56.312
12892;172239;34.68;170;03.33.56.312
12892;172246;34.68;171;03.33.56.312
12908;172239;34.68;172;03.33.56.312
12904;172243;34.68;173;03.33.56.312
12924;172249;34.68;174;03.33.56.312
12912;172243;34.68;175;03.33.56.422
12896;172247;34.68;176;03.33.56.422
12892;172252;34.68;177;03.33.56.433
12928;172261;34.68;178;03.33.56.433
12928;172256;34.68;179;03.33.56.433
12908;172254;34.68;180;03.33.56.433
12896;172257;34.68;181;03.33.56.433
12892;172255;34.68;182;03.33.56.433
12908;172259;34.68;183;03.33.56.433
12928;172261;34.68;184;03.33.56.444
12912;172262;34.68;185;03.33.56.444
12924;172264;34.68;186;03.33.56.444
12960;172264;34.68;187;03.33.56.444
12916;172268;34.68;188;03.33.56.444
12928;172274;34.68;189;03.33.56.444
12916;172282;34.68;190;03.33.56.444
12932;172287;34.68;191;03.33.56.444
12884;172288;34.68;192;03.33.56.444
12916;172292;34.68;193;03.33.56.444
12944;172295;34.68;194;03.33.56.455
12900;172295;34.68;195;03.33.56.455
12936;172302;34.68;196;03.33.56.455
12900;172298;34.68;197;03.33.56.455
12908;172307;34.68;198;03.33.56.455
12916;172306;34.68;199;03.33.56.455
12908;172304;34.72;200;03.33.56.532
12908;172315;34.72;201;03.33.56.532
12928;172307;34.72;202;03.33.56.532
12892;172314;34.72;203;03.33.56.532
12928;172319;34.72;204;03.33.56.532
12912;172320;34.72;205;03.33.56.532
12892;172338;34.72;206;03.33.56.532
12932;172333;34.72;207;03.33.56.532
12916;172335;34.72;208;03.33.56.532
12888;172332;34.72;209;03.33.56.532
12912;172339;34.72;210;03.33.56.532
12920;172340;34.72;211;03.33.56.532
12944;172338;34.72;212;03.33.56.543
12936;172345;34.72;213;03.33.56.543
12936;172345;34.72;214;03.33.56.543
12920;172347;34.72;215;03.33.56.543
12932;172344;34.72;216;03.33.56.543
12928;172353;34.72;217;03.33.56.543
12928;172343;34.72;218;03.33.56.543
12936;172361;34.72;219;03.33.56.543
12908;172349;34.72;220;03.33.56.543
12888;172354;34.72;221;03.33.56.543
12908;172359;34.72;222;03.33.56.543
12912;172363;34.72;223;03.33.56.543
12924;172356;34.72;224;03.33.56.543
12912;172359;34.72;225;03.33.56.653
12916;172348;34.72;226;03.33.56.653
12916;172369;34.72;227;03.33.56.653
12900;172365;34.72;228;03.33.56.653
12888;172362;34.72;229;03.33.56.653
12888;172359;34.72;230;03.33.56.653
12908;172358;34.72;231;03.33.56.653
12900;172356;34.72;232;03.33.56.653
12908;172357;34.72;233;03.33.56.664
12948;172360;34.72;234;03.33.56.664
12912;172365;34.72;235;03.33.56.664
12912;172361;34.72;236;03.33.56.664
12928;172359;34.72;237;03.33.56.664
12896;172355;34.72;238;03.33.56.664
12936;172364;34.72;239;03.33.56.664
12912;172356;34.72;240;03.33.56.664
12916;172362;34.72;241;03.33.56.664
12912;172366;34.72;242;03.33.56.664
12916;172369;34.72;243;03.33.56.664
12924;172362;34.72;244;03.33.56.664
12912;172372;34.72;245;03.33.56.664
12892;172367;34.72;246;03.33.56.674
12928;172366;34.72;247;03.33.56.674
12916;172370;34.72;248;03.33.56.674
12928;172366;34.72;249;03.33.56.674
12916;172364;34.68;250;03.33.56.784
12932;172361;34.68;251;03.33.56.784
12928;172364;34.68;252;03.33.56.784
12920;172359;34.68;253;03.33.56.784
12908;172354;34.68;254;03.33.56.795
12928;172345;34.68;255;03.33.56.795
12912;172342;34.68;256;03.33.56.795
12904;172338;34.68;257;03.33.56.795
12932;172333;34.68;258;03.33.56.795
12912;172325;34.68;259;03.33.56.795
12908;172329;34.68;260;03.33.56.795
12908;172329;34.68;261;03.33.56.795
12912;172330;34.68;262;03.33.56.795
12888;172325;34.68;263;03.33.56.795
12892;172329;34.68;264;03.33.56.795
12924;172329;34.68;265;03.33.56.795
12928;172328;34.68;266;03.33.56.795
12924;172341;34.68;267;03.33.56.806
12924;172341;34.68;268;03.33.56.806
12908;172344;34.68;269;03.33.56.806
12892;172351;34.68;270;03.33.56.806
12904;172340;34.68;271;03.33.56.806
12920;172339;34.68;272;03.33.56.806
12936;172336;34.68;273;03.33.56.806
12920;172341;34.68;274;03.33.56.806
12912;172341;34.68;275;03.33.56.927
12916;172333;34.68;276;03.33.56.927
12912;172347;34.68;277;03.33.56.927
12912;172358;34.68;278;03.33.56.927
12928;172357;34.68;279;03.33.56.927
12904;172360;34.68;280;03.33.56.927
12928;172360;34.68;281;03.33.56.927
12928;172364;34.68;282;03.33.56.927
12936;172347;34.68;283;03.33.56.927
12916;172359;34.68;284;03.33.56.927
12896;172350;34.68;285;03.33.56.927
12908;172364;34.68;286;03.33.56.927
12936;172363;34.68;287;03.33.56.938
12908;172357;34.68;288;03.33.56.938
12888;172353;34.68;289;03.33.56.938
12928;172343;34.68;290;03.33.56.938
12912;172338;34.68;291;03.33.56.938
12916;172331;34.68;292;03.33.56.938
12912;172329;34.68;293;03.33.56.938
12928;172331;34.68;294;03.33.56.938
12916;172322;34.68;295;03.33.56.938
12892;172316;34.68;296;03.33.56.938
12912;172307;34.68;297;03.33.56.938
12900;172303;34.68;298;03.33.56.938
12936;172298;34.68;299;03.33.56.938
12928;172288;34.72;300;03.33.57.057
12916;172285;34.72;301;03.33.57.057
12908;172290;34.72;302;03.33.57.057
12908;172276;34.72;303;03.33.57.057
12924;172272;34.72;304;03.33.57.057
12904;172272;34.72;305;03.33.57.057
12928;172263;34.72;306;03.33.57.057
12916;172247;34.72;307;03.33.57.057
12916;172241;34.72;308;03.33.57.068
12900;172242;34.72;309;03.33.57.068
12920;172238;34.72;310;03.33.57.068
12884;172230;34.72;311;03.33.57.068
12884;172232;34.72;312;03.33.57.068
12912;172230;34.72;313;03.33.57.068
12924;172228;34.72;314;03.33.57.068
12916;172217;34.72;315;03.33.57.068
12892;172228;34.72;316;03.33.57.068
12904;172227;34.72;317;03.33.57.068
12892;172211;34.72;318;03.33.57.068
12908;172219;34.72;319;03.33.57.068
12944;172208;34.72;320;03.33.57.068
12904;172214;34.72;321;03.33.57.079
12920;172214;34.72;322;03.33.57.079
12900;172209;34.72;323;03.33.57.079
12904;172216;34.72;324;03.33.57.079
12912;172208;34.72;325;03.33.57.156
12932;172221;34.72;326;03.33.57.156
12936;172220;34.72;327;03.33.57.156
12928;172216;34.72;328;03.33.57.156
12908;172219;34.72;329;03.33.57.156
12912;172215;34.72;330;03.33.57.167
12904;172215;34.72;331;03.33.57.167
12908;172220;34.72;332;03.33.57.167
12928;172219;34.72;333;03.33.57.167
12912;172221;34.72;334;03.33.57.167
12908;172213;34.72;335;03.33.57.167
12944;172225;34.72;336;03.33.57.167
12920;172217;34.72;337;03.33.57.167
12908;172226;34.72;338;03.33.57.167
12932;172221;34.72;339;03.33.57.167
12920;172232;34.72;340;03.33.57.167
12904;172221;34.72;341;03.33.57.167
12920;172230;34.72;342;03.33.57.167
12928;172224;34.72;343;03.33.57.178
12908;172211;34.72;344;03.33.57.178
12904;172222;34.72;345;03.33.57.178
12912;172224;34.72;346;03.33.57.178
12900;172214;34.72;347;03.33.57.178
12928;172208;34.72;348;03.33.57.178
12928;172201;34.72;349;03.33.57.178
12928;172198;34.68;350;03.33.57.298
12912;172193;34.68;351;03.33.57.298
12904;172189;34.68;352;03.33.57.298
12892;172189;34.68;353;03.33.57.298
12904;172185;34.68;354;03.33.57.298
12896;172181;34.68;355;03.33.57.298
12928;172178;34.68;356;03.33.57.298
12928;172179;34.68;357;03.33.57.298
12916;172192;34.68;358;03.33.57.298
12924;172177;34.68;359;03.33.57.298
12912;172190;34.68;360;03.33.57.298
12892;172188;34.68;361;03.33.57.298
12912;172198;34.68;362;03.33.57.298
12904;172196;34.68;363;03.33.57.309
12912;172203;34.68;364;03.33.57.309
12936;172206;34.68;365;03.33.57.309
12892;172205;34.68;366;03.33.57.309
12896;172209;34.68;367;03.33.57.309
12928;172215;34.68;368;03.33.57.309
12904;172229;34.68;369;03.33.57.309
12892;172226;34.68;370;03.33.57.309
12908;172232;34.68;371;03.33.57.309
12900;172231;34.68;372;03.33.57.309
12912;172235;34.68;373;03.33.57.309
12920;172239;34.68;374;03.33.57.309
12912;172245;34.68;375;03.33.57.408
12892;172244;34.68;376;03.33.57.408
12900;172259;34.68;377;03.33.57.408
12916;172256;34.68;378;03.33.57.408
12904;172263;34.68;379;03.33.57.408
12884;172256;34.68;380;03.33.57.408
12924;172261;34.68;381;03.33.57.408
12908;172254;34.68;382;03.33.57.408
12884;172262;34.68;383;03.33.57.430
12904;172248;34.68;384;03.33.57.430
12892;172250;34.68;385;03.33.57.430
12892;172243;34.68;386;03.33.57.430
12924;172226;34.68;387;03.33.57.430
12928;172228;34.68;388;03.33.57.430
12928;172213;34.68;389;03.33.57.430
12908;172202;34.68;390;03.33.57.430
12916;172191;34.68;391;03.33.57.430
12916;172191;34.68;392;03.33.57.430
12912;172178;34.68;393;03.33.57.430
12892;172163;34.68;394;03.33.57.441
12916;172159;34.68;395;03.33.57.441
12916;172141;34.68;396;03.33.57.441
12920;172138;34.68;397;03.33.57.441
12912;172121;34.68;398;03.33.57.441
12916;172124;34.68;399;03.33.57.441
12916;172111;34.72;400;03.33.57.529
12924;172098;34.72;401;03.33.57.529
12908;172096;34.72;402;03.33.57.529
12904;172085;34.72;403;03.33.57.529
12916;172086;34.72;404;03.33.57.529
12908;172074;34.72;405;03.33.57.529
12908;172075;34.72;406;03.33.57.529
12912;172061;34.72;407;03.33.57.540
12900;172055;34.72;408;03.33.57.540
12896;172059;34.72;409;03.33.57.540
12888;172061;34.72;410;03.33.57.540
12908;172045;34.72;411;03.33.57.540
12892;172052;34.72;412;03.33.57.540
12932;172058;34.72;413;03.33.57.540
12904;172055;34.72;414;03.33.57.540
12860;172068;34.72;415;03.33.57.540
12900;172064;34.72;416;03.33.57.540
12896;172067;34.72;417;03.33.57.540
12920;172077;34.72;418;03.33.57.540
12940;172077;34.72;419;03.33.57.540
12928;172074;34.72;420;03.33.57.551
12876;172083;34.72;421;03.33.57.551
12928;172089;34.72;422;03.33.57.551
12928;172100;34.72;423;03.33.57.551
12912;172105;34.72;424;03.33.57.551
12912;172107;34.72;425;03.33.57.660
12920;172112;34.72;426;03.33.57.660
12884;172121;34.72;427;03.33.57.660
12928;172124;34.72;428;03.33.57.671
12908;172129;34.72;429;03.33.57.671
12916;172128;34.72;430;03.33.57.671
12932;172130;34.72;431;03.33.57.671
12944;172127;34.72;432;03.33.57.671
12880;172134;34.72;433;03.33.57.671
12928;172135;34.72;434;03.33.57.671
12916;172147;34.72;435;03.33.57.671
12928;172149;34.72;436;03.33.57.682
12924;172149;34.72;437;03.33.57.682
12908;172151;34.72;438;03.33.57.682
12916;172142;34.72;439;03.33.57.682
12924;172141;34.72;440;03.33.57.682
12904;172151;34.72;441;03.33.57.682
12880;172144;34.72;442;03.33.57.693
12924;172140;34.72;443;03.33.57.693
12908;172131;34.72;444;03.33.57.704
12912;172128;34.72;445;03.33.57.704
12928;172120;34.72;446;03.33.57.704
12908;172115;34.72;447;03.33.57.704
12924;172112;34.72;448;03.33.57.704
12948;172123;34.72;449;03.33.57.704
12888;172104;34.68;450;03.33.57.788
12888;172094;34.68;451;03.33.57.788
12912;172099;34.68;452;03.33.57.788
12948;172094;34.68;453;03.33.57.788
12916;172101;34.68;454;03.33.57.788
12888;172097;34.68;455;03.33.57.788
12904;172106;34.68;456;03.33.57.788
12908;172116;34.68;457;03.33.57.799
12924;172110;34.68;458;03.33.57.799
12932;172120;34.68;459;03.33.57.799
12888;172126;34.68;460;03.33.57.799
12908;172128;34.68;461;03.33.57.799
12928;172132;34.68;462;03.33.57.799
12936;172129;34.68;463;03.33.57.799
12924;172140;34.68;464;03.33.57.799
12892;172144;34.68;465;03.33.57.799
12900;172148;34.68;466;03.33.57.799
12928;172134;34.68;467;03.33.57.799
12928;172138;34.68;468;03.33.57.799
12904;172137;34.68;469;03.33.57.799
12932;172140;34.68;470;03.33.57.810
12900;172154;34.68;471;03.33.57.810
12928;172150;34.68;472;03.33.57.810
12928;172147;34.68;473;03.33.57.810
12920;172144;34.68;474;03.33.57.810
12960;172140;34.68;475;03.33.57.919
12932;172137;34.68;476;03.33.57.919
12928;172135;34.68;477;03.33.57.919
12916;172123;34.68;478;03.33.57.930
12936;172128;34.68;479;03.33.57.930
12928;172129;34.68;480;03.33.57.930
12916;172129;34.68;481;03.33.57.930
12912;172119;34.68;482;03.33.57.930
12932;172120;34.68;483;03.33.57.930
12920;172120;34.68;484;03.33.57.930
12900;172112;34.68;485;03.33.57.930
12936;172106;34.68;486;03.33.57.930
12920;172113;34.68;487;03.33.57.930
12904;172111;34.68;488;03.33.57.930
12912;172112;34.68;489;03.33.57.930
12928;172107;34.68;490;03.33.57.930
12932;172113;34.68;491;03.33.57.941
12912;172106;34.68;492;03.33.57.941
12892;172108;34.68;493;03.33.57.941
12912;172104;34.68;494;03.33.57.941
12900;172112;34.68;495;03.33.57.952
12888;172107;34.68;496;03.33.57.952
12916;172103;34.68;497;03.33.57.952
12900;172097;34.68;498;03.33.57.952
12936;172106;34.68;499;03.33.57.952
12892;172109;34.72;500;03.33.58.040
12912;172102;34.72;501;03.33.58.040
12928;172112;34.72;502;03.33.58.040
12916;172108;34.72;503;03.33.58.040
12936;172122;34.72;504;03.33.58.040
12928;172116;34.72;505;03.33.58.040
12928;172125;34.72;506;03.33.58.040
12916;172120;34.72;507;03.33.58.040
12912;172128;34.72;508;03.33.58.062
12912;172132;34.72;509;03.33.58.062
12916;172141;34.72;510;03.33.58.062
12912;172143;34.72;511;03.33.58.062
12920;172150;34.72;512;03.33.58.062
12928;172153;34.72;513;03.33.58.062
12916;172166;34.72;514;03.33.58.062
12904;172168;34.72;515;03.33.58.062
12928;172169;34.72;516;03.33.58.062
12888;172169;34.72;517;03.33.58.062
12908;172171;34.72;518;03.33.58.062
12928;172165;34.72;519;03.33.58.062
12928;172163;34.72;520;03.33.58.073
12884;172165;34.72;521;03.33.58.073
12880;172154;34.72;522;03.33.58.073
12892;172154;34.72;523;03.33.58.073
12912;172141;34.72;524;03.33.58.073
12900;172129;34.72;525;03.33.58.161
12896;172121;34.72;526;03.33.58.161
12900;172126;34.72;527;03.33.58.161
12888;172117;34.72;528;03.33.58.161
12920;172101;34.72;529;03.33.58.161
12912;172098;34.72;530;03.33.58.161
12900;172098;34.72;531;03.33.58.161
12920;172092;34.72;532;03.33.58.161
12928;172075;34.72;533;03.33.58.172
12928;172072;34.72;534;03.33.58.172
12900;172075;34.72;535;03.33.58.172
12892;172066;34.72;536;03.33.58.172
12904;172062;34.72;537;03.33.58.172
12888;172053;34.72;538;03.33.58.172
12932;172058;34.72;539;03.33.58.172
12904;172052;34.72;540;03.33.58.172
12944;172052;34.72;541;03.33.58.172
12904;172044;34.72;542;03.33.58.172
12928;172042;34.72;543;03.33.58.183
12928;172038;34.72;544;03.33.58.183
12904;172028;34.72;545;03.33.58.183
12912;172020;34.72;546;03.33.58.183
12900;172017;34.72;547;03.33.58.183
12876;172018;34.72;548;03.33.58.183
12932;172017;34.72;549;03.33.58.183
12892;172004;34.72;550;03.33.58.281
12928;172005;34.72;551;03.33.58.281
12928;171996;34.72;552;03.33.58.281
12900;172005;34.72;553;03.33.58.281
12896;172000;34.72;554;03.33.58.281
12920;171991;34.72;555;03.33.58.292
12892;171998;34.72;556;03.33.58.292
12892;172002;34.72;557;03.33.58.292
12908;171993;34.72;558;03.33.58.292
12916;171993;34.72;559;03.33.58.292
12928;171999;34.72;560;03.33.58.292
12916;171999;34.72;561;03.33.58.292
12908;172007;34.72;562;03.33.58.292
12924;172000;34.72;563;03.33.58.292
12912;172007;34.72;564;03.33.58.292
12896;172002;34.72;565;03.33.58.292
12912;172003;34.72;566;03.33.58.292
12908;172006;34.72;567;03.33.58.303
12892;172000;34.72;568;03.33.58.303
12904;172001;34.72;569;03.33.58.303
12884;171999;34.72;570;03.33.58.303
12920;171998;34.72;571;03.33.58.303
12900;171995;34.72;572;03.33.58.303
12900;172001;34.72;573;03.33.58.314
12920;171995;34.72;574;03.33.58.314
d;e;f;03.33.59.598
12908;000977;34.68;575;03.33.59.696
12912;057517;34.68;576;03.33.59.696
12944;073999;34.68;577;03.33.59.696
12908;090357;34.68;578;03.33.59.707
12888;106705;34.68;579;03.33.59.707
12928;123095;34.68;580;03.33.59.707
12932;139461;34.68;581;03.33.59.707
12928;155873;34.68;582;03.33.59.707
12928;172283;34.68;583;03.33.59.707
12928;172146;34.68;584;03.33.59.718
12908;172153;34.68;585;03.33.59.718
12900;172143;34.68;586;03.33.59.718
12908;172130;34.68;587;03.33.59.718
12900;172132;34.68;588;03.33.59.718
12928;172134;34.68;589;03.33.59.718
12892;172132;34.68;590;03.33.59.718
12932;172123;34.68;591;03.33.59.718
12928;172133;34.68;592;03.33.59.718
12912;172137;34.68;593;03.33.59.718
12892;172132;34.68;594;03.33.59.718
12904;172128;34.68;595;03.33.59.718
12936;172119;34.68;596;03.33.59.718
12908;172124;34.68;597;03.33.59.729
12916;172111;34.68;598;03.33.59.729
12892;172116;34.68;599;03.33.59.729
12908;172112;34.68;600;03.33.59.828
12944;172111;34.68;601;03.33.59.828
12888;172113;34.68;602;03.33.59.828
12928;172099;34.68;603;03.33.59.828
12892;172100;34.68;604;03.33.59.828
12944;172102;34.68;605;03.33.59.828
12924;172099;34.68;606;03.33.59.828
12904;172111;34.68;607;03.33.59.828
12912;172103;34.68;608;03.33.59.839
12928;172111;34.68;609;03.33.59.839
12900;172100;34.68;610;03.33.59.839
12944;172096;34.68;611;03.33.59.839
12892;172095;34.68;612;03.33.59.839
12900;172097;34.68;613;03.33.59.839
12928;172097;34.68;614;03.33.59.839
12944;172093;34.68;615;03.33.59.839
12928;172095;34.68;616;03.33.59.839
12928;172101;34.68;617;03.33.59.839
12928;172097;34.68;618;03.33.59.839
12928;172089;34.68;619;03.33.59.839
12908;172099;34.68;620;03.33.59.850
12908;172096;34.68;621;03.33.59.850
12908;172090;34.68;622;03.33.59.850
12932;172094;34.68;623;03.33.59.850
12956;172091;34.68;624;03.33.59.850
12920;172089;34.72;625;03.33.59.960
12908;172097;34.72;626;03.33.59.960
12928;172094;34.72;627;03.33.59.960
12916;172085;34.72;628;03.33.59.960
12928;172094;34.72;629;03.33.59.960
12928;172092;34.72;630;03.33.59.960
12912;172096;34.72;631;03.33.59.960
12912;172088;34.72;632;03.33.59.960
12928;172086;34.72;633;03.33.59.971
12916;172091;34.72;634;03.33.59.971
12924;172094;34.72;635;03.33.59.971
12932;172092;34.72;636;03.33.59.971
12944;172094;34.72;637;03.33.59.971
12924;172097;34.72;638;03.33.59.971
12928;172104;34.72;639;03.33.59.971
12908;172102;34.72;640;03.33.59.971
12944;172100;34.72;641;03.33.59.971
12920;172103;34.72;642;03.33.59.971
12896;172090;34.72;643;03.33.59.971
12892;172101;34.72;644;03.33.59.971
12908;172093;34.72;645;03.33.59.982
12900;172109;34.72;646;03.33.59.982
12920;172104;34.72;647;03.33.59.982
12944;172109;34.72;648;03.33.59.982
12944;172114;34.72;649;03.33.59.982
12928;172100;34.72;650;03.34.00.069
12920;172113;34.72;651;03.34.00.069
12892;172108;34.72;652;03.34.00.069
12912;172115;34.72;653;03.34.00.080
12900;172123;34.72;654;03.34.00.080
12908;172117;34.72;655;03.34.00.080
12912;172121;34.72;656;03.34.00.080
12932;172127;34.72;657;03.34.00.080
12944;172120;34.72;658;03.34.00.080
12908;172125;34.72;659;03.34.00.080
12936;172121;34.72;660;03.34.00.080
12912;172120;34.72;661;03.34.00.080
12936;172127;34.72;662;03.34.00.080
12940;172133;34.72;663;03.34.00.080
12908;172125;34.72;664;03.34.00.080
12924;172131;34.72;665;03.34.00.080
12928;172134;34.72;666;03.34.00.091
12892;172131;34.72;667;03.34.00.091
12892;172134;34.72;668;03.34.00.091
12920;172141;34.72;669;03.34.00.091
12876;172135;34.72;670;03.34.00.091
12936;172137;34.72;671;03.34.00.091
12932;172137;34.72;672;03.34.00.102
12928;172145;34.72;673;03.34.00.102
12928;172139;34.72;674;03.34.00.102
12904;172143;34.68;675;03.34.00.201
12912;172149;34.68;676;03.34.00.201
12904;172145;34.68;677;03.34.00.201
12924;172144;34.68;678;03.34.00.201
12928;172147;34.68;679;03.34.00.201
12928;172148;34.68;680;03.34.00.201
12904;172150;34.68;681;03.34.00.201
12932;172152;34.68;682;03.34.00.201
12884;172148;34.68;683;03.34.00.201
12932;172142;34.68;684;03.34.00.212
12948;172142;34.68;685;03.34.00.212
12928;172137;34.68;686;03.34.00.212
12904;172130;34.68;687;03.34.00.212
12928;172125;34.68;688;03.34.00.212
12908;172114;34.68;689;03.34.00.212
12912;172112;34.68;690;03.34.00.212
12924;172112;34.68;691;03.34.00.212
12920;172088;34.68;692;03.34.00.234
12916;172094;34.68;693;03.34.00.234
12944;172086;34.68;694;03.34.00.234
12892;172069;34.68;695;03.34.00.234
12940;172063;34.68;696;03.34.00.234
12908;172068;34.68;697;03.34.00.234
12916;172068;34.68;698;03.34.00.234
12904;172060;34.68;699;03.34.00.234
12892;172059;34.68;700;03.34.00.333
12924;172055;34.68;701;03.34.00.333
12892;172051;34.68;702;03.34.00.333
12900;172052;34.68;703;03.34.00.333
12896;172049;34.68;704;03.34.00.333
12908;172043;34.68;705;03.34.00.333
12944;172037;34.68;706;03.34.00.333
12920;172030;34.68;707;03.34.00.333
12908;172041;34.68;708;03.34.00.333
12916;172032;34.68;709;03.34.00.344
12900;172034;34.68;710;03.34.00.344
12916;172034;34.68;711;03.34.00.344
12912;172031;34.68;712;03.34.00.344
12920;172026;34.68;713;03.34.00.344
12924;172021;34.68;714;03.34.00.344
12900;172027;34.68;715;03.34.00.344
12892;172031;34.68;716;03.34.00.344
12916;172034;34.68;717;03.34.00.377
12924;172023;34.68;718;03.34.00.377
12904;172028;34.68;719;03.34.00.377
12912;172034;34.68;720;03.34.00.377
12932;172025;34.68;721;03.34.00.377
12900;172031;34.68;722;03.34.00.377
12908;172033;34.68;723;03.34.00.377
12932;172029;34.68;724;03.34.00.377
12920;172031;34.68;725;03.34.00.453
12916;172040;34.68;726;03.34.00.453
12908;172035;34.68;727;03.34.00.453
12920;172035;34.68;728;03.34.00.453
12920;172043;34.68;729;03.34.00.453
12884;172046;34.68;730;03.34.00.453
12932;172039;34.68;731;03.34.00.453
12908;172049;34.68;732;03.34.00.464
12936;172047;34.68;733;03.34.00.464
12916;172045;34.68;734;03.34.00.464
12904;172053;34.68;735;03.34.00.464
12920;172054;34.68;736;03.34.00.464
12928;172050;34.68;737;03.34.00.464
12928;172048;34.68;738;03.34.00.464
12916;172052;34.68;739;03.34.00.464
12920;172060;34.68;740;03.34.00.464
12900;172060;34.68;741;03.34.00.464
12908;172059;34.68;742;03.34.00.475
12916;172056;34.68;743;03.34.00.475
12908;172064;34.68;744;03.34.00.475
12908;172061;34.68;745;03.34.00.475
12944;172062;34.68;746;03.34.00.475
12904;172055;34.68;747;03.34.00.475
12904;172056;34.68;748;03.34.00.475
12928;172065;34.68;749;03.34.00.486
12912;172059;34.68;750;03.34.00.585
12904;172063;34.68;751;03.34.00.585
12916;172058;34.68;752;03.34.00.585
12944;172057;34.68;753;03.34.00.596
12928;172066;34.68;754;03.34.00.596
12936;172058;34.68;755;03.34.00.596
