gsr; bvp; skt; skt2; Cont; time
12900;170471;33.68;725;04.03.48.045
12904;170473;33.68;726;04.03.48.045
12896;170469;33.68;727;04.03.48.045
12884;170461;33.68;728;04.03.48.056
12876;170463;33.68;729;04.03.48.056
12936;170460;33.68;730;04.03.48.056
12888;170459;33.68;731;04.03.48.056
12904;170462;33.68;732;04.03.48.056
12928;170457;33.68;733;04.03.48.067
12916;170442;33.68;734;04.03.48.067
12892;170445;33.68;735;04.03.48.067
12876;170442;33.68;736;04.03.48.083
12900;170441;33.68;737;04.03.48.083
12892;170441;33.68;738;04.03.48.083
12896;170430;33.68;739;04.03.48.083
12892;170434;33.68;740;04.03.48.083
12884;170426;33.68;741;04.03.48.083
12896;170420;33.68;742;04.03.48.083
12896;170422;33.68;743;04.03.48.083
12888;170431;33.68;744;04.03.48.083
12912;170423;33.68;745;04.03.48.083
12880;170414;33.68;746;04.03.48.083
12904;170411;33.68;747;04.03.48.083
12900;170410;33.68;748;04.03.48.083
12928;170411;33.68;749;04.03.48.083
12892;170418;33.68;750;04.03.48.170
12892;170413;33.68;751;04.03.48.170
12908;170414;33.68;752;04.03.48.170
12892;170413;33.68;753;04.03.48.170
12896;170413;33.68;754;04.03.48.170
12904;170415;33.68;755;04.03.48.170
12900;170408;33.68;756;04.03.48.181
12928;170409;33.68;757;04.03.48.181
12896;170408;33.68;758;04.03.48.181
12892;170409;33.68;759;04.03.48.181
12872;170408;33.68;760;04.03.48.181
12880;170397;33.68;761;04.03.48.181
12892;170402;33.68;762;04.03.48.181
12904;170398;33.68;763;04.03.48.181
12880;170401;33.68;764;04.03.48.192
12916;170401;33.68;765;04.03.48.192
12880;170400;33.68;766;04.03.48.192
12908;170398;33.68;767;04.03.48.203
12892;170393;33.68;768;04.03.48.203
12860;170400;33.68;769;04.03.48.203
12876;170393;33.68;770;04.03.48.203
12900;170401;33.68;771;04.03.48.203
12900;170399;33.68;772;04.03.48.214
12868;170393;33.68;773;04.03.48.214
12916;170389;33.68;774;04.03.48.214
12884;170390;33.68;775;04.03.48.291
12892;170392;33.68;776;04.03.48.302
12876;170388;33.68;777;04.03.48.302
12900;170405;33.68;778;04.03.48.302
12860;170385;33.68;779;04.03.48.302
12892;170393;33.68;780;04.03.48.302
12900;170393;33.68;781;04.03.48.302
12900;170403;33.68;782;04.03.48.302
12936;170389;33.68;783;04.03.48.302
12888;170394;33.68;784;04.03.48.302
12900;170403;33.68;785;04.03.48.302
12896;170400;33.68;786;04.03.48.302
12900;170401;33.68;787;04.03.48.302
12868;170403;33.68;788;04.03.48.302
12892;170398;33.68;789;04.03.48.313
12872;170406;33.68;790;04.03.48.313
12864;170397;33.68;791;04.03.48.313
12876;170395;33.68;792;04.03.48.313
12876;170398;33.68;793;04.03.48.313
12896;170399;33.68;794;04.03.48.313
12884;170393;33.68;795;04.03.48.313
12892;170400;33.68;796;04.03.48.313
12904;170393;33.68;797;04.03.48.313
12892;170391;33.68;798;04.03.48.313
12892;170388;33.68;799;04.03.48.313
12888;170392;33.68;800;04.03.48.444
12884;170393;33.68;801;04.03.48.444
12920;170393;33.68;802;04.03.48.444
12880;170400;33.68;803;04.03.48.444
12872;170390;33.68;804;04.03.48.444
12872;170393;33.68;805;04.03.48.444
12860;170395;33.68;806;04.03.48.444
12908;170398;33.68;807;04.03.48.444
12896;170395;33.68;808;04.03.48.444
12924;170394;33.68;809;04.03.48.444
12896;170389;33.68;810;04.03.48.455
12912;170391;33.68;811;04.03.48.455
12896;170390;33.68;812;04.03.48.455
12880;170402;33.68;813;04.03.48.455
12896;170404;33.68;814;04.03.48.455
12884;170404;33.68;815;04.03.48.455
12900;170399;33.68;816;04.03.48.455
12872;170407;33.68;817;04.03.48.455
12880;170395;33.68;818;04.03.48.455
12896;170400;33.68;819;04.03.48.455
12872;170403;33.68;820;04.03.48.455
12872;170403;33.68;821;04.03.48.455
12876;170401;33.68;822;04.03.48.466
12900;170415;33.68;823;04.03.48.466
12920;170413;33.68;824;04.03.48.466
12876;170414;33.64;825;04.03.48.565
12888;170410;33.64;826;04.03.48.565
12888;170413;33.64;827;04.03.48.565
12912;170410;33.64;828;04.03.48.565
12892;170416;33.64;829;04.03.48.565
12896;170417;33.64;830;04.03.48.565
12880;170400;33.64;831;04.03.48.576
12892;170413;33.64;832;04.03.48.576
12884;170413;33.64;833;04.03.48.576
12892;170415;33.64;834;04.03.48.576
12892;170409;33.64;835;04.03.48.576
12892;170421;33.64;836;04.03.48.576
12892;170416;33.64;837;04.03.48.576
12896;170413;33.64;838;04.03.48.576
12892;170417;33.64;839;04.03.48.576
12928;170413;33.64;840;04.03.48.576
12912;170421;33.64;841;04.03.48.576
12884;170413;33.64;842;04.03.48.576
12892;170412;33.64;843;04.03.48.576
12904;170421;33.64;844;04.03.48.576
12904;170423;33.64;845;04.03.48.587
12892;170424;33.64;846;04.03.48.587
12908;170424;33.64;847;04.03.48.587
12884;170422;33.64;848;04.03.48.587
12928;170420;33.64;849;04.03.48.587
12876;170419;33.64;850;04.03.48.675
12912;170424;33.64;851;04.03.48.675
12928;170429;33.64;852;04.03.48.675
12892;170431;33.64;853;04.03.48.686
12904;170425;33.64;854;04.03.48.686
12912;170427;33.64;855;04.03.48.686
12876;170430;33.64;856;04.03.48.686
12892;170430;33.64;857;04.03.48.686
12884;170436;33.64;858;04.03.48.686
12896;170433;33.64;859;04.03.48.697
12908;170439;33.64;860;04.03.48.697
12896;170439;33.64;861;04.03.48.697
12924;170430;33.64;862;04.03.48.697
12904;170443;33.64;863;04.03.48.697
12868;170436;33.64;864;04.03.48.697
12908;170435;33.64;865;04.03.48.697
12872;170434;33.64;866;04.03.48.697
12900;170443;33.64;867;04.03.48.697
12884;170444;33.64;868;04.03.48.697
12912;170440;33.64;869;04.03.48.697
12876;170432;33.64;870;04.03.48.697
12880;170443;33.64;871;04.03.48.697
12892;170446;33.64;872;04.03.48.697
12880;170440;33.64;873;04.03.48.708
12912;170439;33.64;874;04.03.48.708
12920;170439;33.68;875;04.03.48.806
12896;170453;33.68;876;04.03.48.806
12896;170445;33.68;877;04.03.48.806
12896;170445;33.68;878;04.03.48.806
12892;170444;33.68;879;04.03.48.806
12884;170450;33.68;880;04.03.48.806
12892;170451;33.68;881;04.03.48.806
12884;170454;33.68;882;04.03.48.806
12884;170455;33.68;883;04.03.48.817
12884;170458;33.68;884;04.03.48.817
12912;170451;33.68;885;04.03.48.817
12888;170461;33.68;886;04.03.48.817
12876;170460;33.68;887;04.03.48.817
12900;170460;33.68;888;04.03.48.817
12892;170458;33.68;889;04.03.48.817
12892;170450;33.68;890;04.03.48.817
12880;170453;33.68;891;04.03.48.817
12892;170447;33.68;892;04.03.48.839
12860;170445;33.68;893;04.03.48.839
12880;170448;33.68;894;04.03.48.839
12892;170443;33.68;895;04.03.48.839
12900;170437;33.68;896;04.03.48.839
12888;170440;33.68;897;04.03.48.839
12876;170432;33.68;898;04.03.48.839
12916;170428;33.68;899;04.03.48.839
12888;170429;33.68;900;04.03.48.927
12892;170432;33.68;901;04.03.48.927
12860;170426;33.68;902;04.03.48.927
12892;170421;33.68;903;04.03.48.927
12888;170411;33.68;904;04.03.48.927
12904;170405;33.68;905;04.03.48.927
12892;170401;33.68;906;04.03.48.927
12860;170394;33.68;907;04.03.48.927
12888;170396;33.68;908;04.03.48.938
12896;170397;33.68;909;04.03.48.938
12884;170397;33.68;910;04.03.48.938
12892;170393;33.68;911;04.03.48.938
12892;170392;33.68;912;04.03.48.938
12876;170391;33.68;913;04.03.48.938
12896;170390;33.68;914;04.03.48.938
12880;170388;33.68;915;04.03.48.938
12896;170393;33.68;916;04.03.48.938
12852;170389;33.68;917;04.03.48.938
12884;170386;33.68;918;04.03.48.949
12876;170388;33.68;919;04.03.48.949
12896;170389;33.68;920;04.03.48.949
12868;170392;33.68;921;04.03.48.949
12888;170393;33.68;922;04.03.48.949
12884;170387;33.68;923;04.03.48.949
12900;170388;33.68;924;04.03.48.949
12904;170382;33.64;925;04.03.49.059
12928;170390;33.64;926;04.03.49.059
12880;170385;33.64;927;04.03.49.059
12892;170379;33.64;928;04.03.49.059
12896;170382;33.64;929;04.03.49.059
12900;170392;33.64;930;04.03.49.070
12888;170390;33.64;931;04.03.49.070
12896;170388;33.64;932;04.03.49.070
12884;170381;33.64;933;04.03.49.070
12888;170385;33.64;934;04.03.49.070
12920;170380;33.64;935;04.03.49.070
12876;170382;33.64;936;04.03.49.070
12884;170383;33.64;937;04.03.49.070
12908;170381;33.64;938;04.03.49.070
12876;170383;33.64;939;04.03.49.070
12880;170386;33.64;940;04.03.49.070
12908;170381;33.64;941;04.03.49.070
12892;170383;33.64;942;04.03.49.081
12904;170383;33.64;943;04.03.49.081
12892;170378;33.64;944;04.03.49.081
12896;170383;33.64;945;04.03.49.081
12888;170384;33.64;946;04.03.49.081
12884;170378;33.64;947;04.03.49.081
12884;170380;33.64;948;04.03.49.081
12888;170387;33.64;949;04.03.49.081
12892;170380;33.64;950;04.03.49.178
12884;170372;33.64;951;04.03.49.178
12892;170378;33.64;952;04.03.49.178
12884;170381;33.64;953;04.03.49.178
12868;170381;33.64;954;04.03.49.178
12904;170380;33.64;955;04.03.49.178
12876;170372;33.64;956;04.03.49.178
12896;170380;33.64;957;04.03.49.178
12892;170380;33.64;958;04.03.49.189
12888;170371;33.64;959;04.03.49.189
12876;170377;33.64;960;04.03.49.189
12896;170379;33.64;961;04.03.49.189
12896;170384;33.64;962;04.03.49.189
12928;170376;33.64;963;04.03.49.189
12892;170375;33.64;964;04.03.49.189
12884;170381;33.64;965;04.03.49.189
12896;170381;33.64;966;04.03.49.189
12884;170378;33.64;967;04.03.49.200
12892;170370;33.64;968;04.03.49.200
12928;170379;33.64;969;04.03.49.200
12896;170375;33.64;970;04.03.49.200
12888;170387;33.64;971;04.03.49.200
12892;170377;33.64;972;04.03.49.200
12912;170389;33.64;973;04.03.49.200
12900;170382;33.64;974;04.03.49.200
12876;170387;33.64;975;04.03.49.299
12880;170389;33.64;976;04.03.49.299
12884;170384;33.64;977;04.03.49.299
12896;170385;33.64;978;04.03.49.299
12912;170390;33.64;979;04.03.49.299
12920;170386;33.64;980;04.03.49.299
12928;170398;33.64;981;04.03.49.299
12908;170391;33.64;982;04.03.49.299
12876;170393;33.64;983;04.03.49.299
12892;170396;33.64;984;04.03.49.299
12872;170389;33.64;985;04.03.49.310
12872;170387;33.64;986;04.03.49.310
12904;170393;33.64;987;04.03.49.310
12908;170392;33.64;988;04.03.49.310
12908;170390;33.64;989;04.03.49.310
12876;170398;33.64;990;04.03.49.310
12904;170407;33.64;991;04.03.49.310
12896;170398;33.64;992;04.03.49.310
12904;170401;33.64;993;04.03.49.310
12892;170406;33.64;994;04.03.49.310
12904;170402;33.64;995;04.03.49.310
12876;170406;33.64;996;04.03.49.310
12868;170400;33.64;997;04.03.49.310
12908;170404;33.64;998;04.03.49.321
12892;170405;33.64;999;04.03.49.321
12896;170406;33.64;000;04.03.49.420
12912;170413;33.64;001;04.03.49.420
12876;170405;33.64;002;04.03.49.420
12900;170409;33.64;003;04.03.49.420
12908;170408;33.64;004;04.03.49.420
12888;170405;33.64;005;04.03.49.420
12888;170413;33.64;006;04.03.49.431
12892;170406;33.64;007;04.03.49.431
12876;170409;33.64;008;04.03.49.431
12880;170414;33.64;009;04.03.49.431
12880;170419;33.64;010;04.03.49.431
12892;170413;33.64;011;04.03.49.431
12872;170410;33.64;012;04.03.49.431
12896;170420;33.64;013;04.03.49.431
12900;170421;33.64;014;04.03.49.431
12916;170415;33.64;015;04.03.49.431
12916;170418;33.64;016;04.03.49.431
12876;170408;33.64;017;04.03.49.431
12896;170420;33.64;018;04.03.49.431
12868;170418;33.64;019;04.03.49.442
12900;170426;33.64;020;04.03.49.442
12884;170413;33.64;021;04.03.49.442
12892;170417;33.64;022;04.03.49.442
12884;170415;33.64;023;04.03.49.442
12904;170428;33.64;024;04.03.49.442
12868;170427;33.68;025;04.03.49.551
12876;170426;33.68;026;04.03.49.551
12896;170429;33.68;027;04.03.49.562
12904;170431;33.68;028;04.03.49.562
12908;170430;33.68;029;04.03.49.562
12880;170432;33.68;030;04.03.49.562
12892;170433;33.68;031;04.03.49.562
12880;170426;33.68;032;04.03.49.562
12884;170433;33.68;033;04.03.49.562
12896;170429;33.68;034;04.03.49.562
12908;170428;33.68;035;04.03.49.562
12892;170430;33.68;036;04.03.49.562
12892;170436;33.68;037;04.03.49.562
12892;170434;33.68;038;04.03.49.562
12892;170438;33.68;039;04.03.49.562
12876;170434;33.68;040;04.03.49.573
12908;170436;33.68;041;04.03.49.573
12888;170437;33.68;042;04.03.49.573
12904;170439;33.68;043;04.03.49.573
12888;170438;33.68;044;04.03.49.573
12892;170439;33.68;045;04.03.49.573
12928;170447;33.68;046;04.03.49.573
12888;170442;33.68;047;04.03.49.573
12896;170441;33.68;048;04.03.49.573
12892;170441;33.68;049;04.03.49.573
12888;170446;33.68;050;04.03.49.694
12928;170432;33.68;051;04.03.49.694
12904;170433;33.68;052;04.03.49.694
12876;170428;33.68;053;04.03.49.694
12872;170420;33.68;054;04.03.49.694
12908;170418;33.68;055;04.03.49.694
12896;170417;33.68;056;04.03.49.694
12860;170407;33.68;057;04.03.49.694
12896;170408;33.68;058;04.03.49.694
12888;170409;33.68;059;04.03.49.694
12876;170403;33.68;060;04.03.49.694
12888;170400;33.68;061;04.03.49.705
12876;170397;33.68;062;04.03.49.705
12884;170390;33.68;063;04.03.49.705
12904;170387;33.68;064;04.03.49.705
12892;170390;33.68;065;04.03.49.705
12892;170380;33.68;066;04.03.49.705
12856;170386;33.68;067;04.03.49.705
12908;170380;33.68;068;04.03.49.705
12880;170375;33.68;069;04.03.49.705
12860;170372;33.68;070;04.03.49.705
12884;170372;33.68;071;04.03.49.705
12916;170375;33.68;072;04.03.49.705
12880;170367;33.68;073;04.03.49.705
12920;170364;33.68;074;04.03.49.716
12868;170362;33.68;075;04.03.49.804
12880;170365;33.68;076;04.03.49.804
12884;170354;33.68;077;04.03.49.804
12880;170358;33.68;078;04.03.49.804
12896;170347;33.68;079;04.03.49.804
12872;170352;33.68;080;04.03.49.804
12892;170356;33.68;081;04.03.49.804
12884;170348;33.68;082;04.03.49.804
12880;170354;33.68;083;04.03.49.815
12896;170357;33.68;084;04.03.49.815
12884;170348;33.68;085;04.03.49.815
12900;170348;33.68;086;04.03.49.815
12888;170341;33.68;087;04.03.49.815
12896;170338;33.68;088;04.03.49.815
12912;170337;33.68;089;04.03.49.815
12876;170336;33.68;090;04.03.49.815
12888;170340;33.68;091;04.03.49.815
12900;170334;33.68;092;04.03.49.837
12884;170339;33.68;093;04.03.49.837
12892;170341;33.68;094;04.03.49.837
12864;170324;33.68;095;04.03.49.837
12904;170327;33.68;096;04.03.49.837
12908;170341;33.68;097;04.03.49.837
12892;170335;33.68;098;04.03.49.837
12896;170334;33.68;099;04.03.49.837
12916;170338;33.68;100;04.03.49.924
12880;170340;33.68;101;04.03.49.924
12860;170345;33.68;102;04.03.49.924
12880;170337;33.68;103;04.03.49.924
12868;170333;33.68;104;04.03.49.935
12908;170339;33.68;105;04.03.49.935
12912;170340;33.68;106;04.03.49.935
12900;170337;33.68;107;04.03.49.935
12880;170341;33.68;108;04.03.49.935
12892;170346;33.68;109;04.03.49.935
12900;170331;33.68;110;04.03.49.935
12892;170337;33.68;111;04.03.49.935
12900;170337;33.68;112;04.03.49.935
12884;170335;33.68;113;04.03.49.935
12912;170335;33.68;114;04.03.49.935
12900;170337;33.68;115;04.03.49.935
12888;170333;33.68;116;04.03.49.935
12868;170340;33.68;117;04.03.49.946
12868;170337;33.68;118;04.03.49.946
12860;170331;33.68;119;04.03.49.946
12900;170330;33.68;120;04.03.49.946
12880;170333;33.68;121;04.03.49.946
12892;170336;33.68;122;04.03.49.946
12876;170332;33.68;123;04.03.49.946
12904;170327;33.68;124;04.03.49.946
12876;170337;33.68;125;04.03.50.066
12900;170335;33.68;126;04.03.50.066
12892;170341;33.68;127;04.03.50.066
12860;170331;33.68;128;04.03.50.066
12928;170331;33.68;129;04.03.50.066
12896;170342;33.68;130;04.03.50.066
12876;170335;33.68;131;04.03.50.066
12872;170344;33.68;132;04.03.50.066
12912;170341;33.68;133;04.03.50.077
12880;170345;33.68;134;04.03.50.077
12912;170333;33.68;135;04.03.50.077
12896;170343;33.68;136;04.03.50.077
12900;170346;33.68;137;04.03.50.077
12888;170350;33.68;138;04.03.50.077
12888;170345;33.68;139;04.03.50.077
12884;170341;33.68;140;04.03.50.077
12904;170344;33.68;141;04.03.50.077
12884;170347;33.68;142;04.03.50.077
12892;170353;33.68;143;04.03.50.077
12884;170358;33.68;144;04.03.50.077
12900;170345;33.68;145;04.03.50.088
12888;170348;33.68;146;04.03.50.088
12860;170354;33.68;147;04.03.50.088
12896;170364;33.68;148;04.03.50.088
12888;170354;33.68;149;04.03.50.088
12884;170356;33.68;150;04.03.50.176
12888;170354;33.68;151;04.03.50.176
12892;170368;33.68;152;04.03.50.176
12896;170362;33.68;153;04.03.50.176
12884;170371;33.68;154;04.03.50.176
12884;170368;33.68;155;04.03.50.176
12896;170367;33.68;156;04.03.50.176
12884;170361;33.68;157;04.03.50.187
12920;170371;33.68;158;04.03.50.198
12888;170369;33.68;159;04.03.50.198
12888;170365;33.68;160;04.03.50.198
12904;170369;33.68;161;04.03.50.198
12896;170365;33.68;162;04.03.50.198
12888;170366;33.68;163;04.03.50.198
12904;170366;33.68;164;04.03.50.198
12888;170370;33.68;165;04.03.50.198
12892;170370;33.68;166;04.03.50.198
12860;170379;33.68;167;04.03.50.209
12892;170372;33.68;168;04.03.50.209
12872;170380;33.68;169;04.03.50.209
12884;170370;33.68;170;04.03.50.209
12916;170376;33.68;171;04.03.50.209
12908;170378;33.68;172;04.03.50.209
12896;170376;33.68;173;04.03.50.209
12884;170383;33.68;174;04.03.50.209
12876;170377;33.68;175;04.03.50.296
12888;170378;33.68;176;04.03.50.296
12892;170381;33.68;177;04.03.50.296
12892;170390;33.68;178;04.03.50.296
12880;170388;33.68;179;04.03.50.296
12912;170387;33.68;180;04.03.50.307
12884;170390;33.68;181;04.03.50.307
12884;170381;33.68;182;04.03.50.307
12880;170388;33.68;183;04.03.50.307
12892;170394;33.68;184;04.03.50.307
12892;170392;33.68;185;04.03.50.307
12892;170391;33.68;186;04.03.50.307
12892;170390;33.68;187;04.03.50.307
12872;170389;33.68;188;04.03.50.307
12896;170389;33.68;189;04.03.50.307
12904;170396;33.68;190;04.03.50.307
12888;170396;33.68;191;04.03.50.307
12880;170390;33.68;192;04.03.50.329
12888;170396;33.68;193;04.03.50.329
12876;170401;33.68;194;04.03.50.329
12896;170400;33.68;195;04.03.50.329
12892;170404;33.68;196;04.03.50.329
12892;170407;33.68;197;04.03.50.329
12896;170404;33.68;198;04.03.50.340
12908;170403;33.68;199;04.03.50.340
12908;170408;33.68;200;04.03.50.417
12876;170408;33.68;201;04.03.50.417
12904;170402;33.68;202;04.03.50.428
12872;170409;33.68;203;04.03.50.428
12912;170399;33.68;204;04.03.50.428
12888;170407;33.68;205;04.03.50.428
12900;170400;33.68;206;04.03.50.428
12904;170411;33.68;207;04.03.50.428
12908;170415;33.68;208;04.03.50.428
12876;170419;33.68;209;04.03.50.428
12896;170415;33.68;210;04.03.50.439
12860;170415;33.68;211;04.03.50.439
12872;170408;33.68;212;04.03.50.439
12880;170413;33.68;213;04.03.50.439
12888;170420;33.68;214;04.03.50.439
12884;170415;33.68;215;04.03.50.439
12888;170408;33.68;216;04.03.50.439
12856;170420;33.68;217;04.03.50.439
12884;170418;33.68;218;04.03.50.439
12908;170417;33.68;219;04.03.50.450
12892;170418;33.68;220;04.03.50.450
12904;170414;33.68;221;04.03.50.450
12892;170406;33.68;222;04.03.50.450
12880;170407;33.68;223;04.03.50.450
12900;170413;33.68;224;04.03.50.450
12896;170405;33.68;225;04.03.50.559
12908;170403;33.68;226;04.03.50.559
12900;170400;33.68;227;04.03.50.559
12884;170382;33.68;228;04.03.50.559
12896;170393;33.68;229;04.03.50.559
12868;170383;33.68;230;04.03.50.559
12920;170390;33.68;231;04.03.50.559
12884;170383;33.68;232;04.03.50.559
12904;170382;33.68;233;04.03.50.559
12924;170367;33.68;234;04.03.50.570
12892;170369;33.68;235;04.03.50.570
12868;170361;33.68;236;04.03.50.570
12904;170358;33.68;237;04.03.50.570
12908;170348;33.68;238;04.03.50.570
12892;170353;33.68;239;04.03.50.570
12888;170350;33.68;240;04.03.50.570
12904;170351;33.68;241;04.03.50.570
12864;170345;33.68;242;04.03.50.570
12880;170339;33.68;243;04.03.50.570
12892;170339;33.68;244;04.03.50.570
12896;170335;33.68;245;04.03.50.570
12900;170336;33.68;246;04.03.50.570
12912;170328;33.68;247;04.03.50.581
12892;170321;33.68;248;04.03.50.581
12912;170330;33.68;249;04.03.50.581
12884;170327;33.68;250;04.03.50.690
12892;170321;33.68;251;04.03.50.690
12928;170323;33.68;252;04.03.50.690
12892;170322;33.68;253;04.03.50.690
12896;170320;33.68;254;04.03.50.690
12888;170319;33.68;255;04.03.50.701
12888;170322;33.68;256;04.03.50.701
12892;170314;33.68;257;04.03.50.701
12912;170305;33.68;258;04.03.50.701
12884;170308;33.68;259;04.03.50.701
12876;170309;33.68;260;04.03.50.701
12892;170311;33.68;261;04.03.50.701
12880;170297;33.68;262;04.03.50.701
12888;170311;33.68;263;04.03.50.701
12888;170302;33.68;264;04.03.50.701
12864;170309;33.68;265;04.03.50.701
12908;170308;33.68;266;04.03.50.701
12896;170298;33.68;267;04.03.50.712
12908;170301;33.68;268;04.03.50.712
12880;170301;33.68;269;04.03.50.712
12896;170299;33.68;270;04.03.50.712
12868;170305;33.68;271;04.03.50.712
12880;170308;33.68;272;04.03.50.723
12860;170308;33.68;273;04.03.50.723
12892;170313;33.68;274;04.03.50.723
12896;170314;33.68;275;04.03.50.800
12900;170315;33.68;276;04.03.50.800
12892;170319;33.68;277;04.03.50.811
12904;170309;33.68;278;04.03.50.811
12900;170314;33.68;279;04.03.50.811
12904;170312;33.68;280;04.03.50.811
12860;170309;33.68;281;04.03.50.811
12892;170320;33.68;282;04.03.50.811
12900;170328;33.68;283;04.03.50.822
12928;170323;33.68;284;04.03.50.833
12868;170322;33.68;285;04.03.50.833
12900;170331;33.68;286;04.03.50.833
12868;170323;33.68;287;04.03.50.833
12904;170322;33.68;288;04.03.50.833
12888;170323;33.68;289;04.03.50.833
12896;170322;33.68;290;04.03.50.833
12916;170325;33.68;291;04.03.50.833
12884;170328;33.68;292;04.03.50.833
12892;170318;33.68;293;04.03.50.833
12880;170321;33.68;294;04.03.50.833
12880;170317;33.68;295;04.03.50.833
12888;170328;33.68;296;04.03.50.833
12900;170325;33.68;297;04.03.50.833
12892;170319;33.68;298;04.03.50.844
12876;170325;33.68;299;04.03.50.844
12892;170318;33.68;300;04.03.50.965
12912;170328;33.68;301;04.03.50.965
12872;170318;33.68;302;04.03.50.965
12892;170329;33.68;303;04.03.50.965
12904;170328;33.68;304;04.03.50.965
12880;170319;33.68;305;04.03.50.965
12876;170316;33.68;306;04.03.50.965
12900;170318;33.68;307;04.03.50.965
12872;170319;33.68;308;04.03.50.965
12892;170323;33.68;309;04.03.50.965
12900;170322;33.68;310;04.03.50.965
12880;170326;33.68;311;04.03.50.976
12896;170329;33.68;312;04.03.50.976
12860;170331;33.68;313;04.03.50.976
12880;170327;33.68;314;04.03.50.976
12892;170328;33.68;315;04.03.50.976
12912;170326;33.68;316;04.03.50.976
12876;170329;33.68;317;04.03.50.976
12872;170334;33.68;318;04.03.50.976
12888;170330;33.68;319;04.03.50.976
12856;170331;33.68;320;04.03.50.976
12884;170332;33.68;321;04.03.50.976
12884;170342;33.68;322;04.03.50.976
12912;170337;33.68;323;04.03.50.976
12892;170335;33.68;324;04.03.50.987
12908;170339;33.64;325;04.03.51.052
12888;170333;33.64;326;04.03.51.052
12900;170339;33.64;327;04.03.51.052
12872;170341;33.64;328;04.03.51.052
12896;170341;33.64;329;04.03.51.052
12904;170346;33.64;330;04.03.51.052
12880;170345;33.64;331;04.03.51.052
12900;170339;33.64;332;04.03.51.063
12900;170342;33.64;333;04.03.51.063
12904;170347;33.64;334;04.03.51.063
12888;170348;33.64;335;04.03.51.063
12888;170346;33.64;336;04.03.51.063
12928;170351;33.64;337;04.03.51.063
12900;170352;33.64;338;04.03.51.063
12904;170348;33.64;339;04.03.51.063
12896;170356;33.64;340;04.03.51.063
12896;170355;33.64;341;04.03.51.063
12888;170349;33.64;342;04.03.51.063
12912;170356;33.64;343;04.03.51.063
12884;170357;33.64;344;04.03.51.063
12896;170365;33.64;345;04.03.51.063
12896;170360;33.64;346;04.03.51.075
12896;170357;33.64;347;04.03.51.075
12896;170364;33.64;348;04.03.51.075
12908;170362;33.64;349;04.03.51.075
12896;170364;33.64;350;04.03.51.185
12928;170362;33.64;351;04.03.51.185
12904;170362;33.64;352;04.03.51.185
12880;170357;33.64;353;04.03.51.185
12892;170363;33.64;354;04.03.51.196
12896;170359;33.64;355;04.03.51.196
12904;170361;33.64;356;04.03.51.196
12912;170366;33.64;357;04.03.51.196
12892;170364;33.64;358;04.03.51.196
12900;170365;33.64;359;04.03.51.196
12892;170363;33.64;360;04.03.51.196
12912;170367;33.64;361;04.03.51.196
12884;170360;33.64;362;04.03.51.196
12896;170375;33.64;363;04.03.51.196
12896;170367;33.64;364;04.03.51.196
12904;170366;33.64;365;04.03.51.196
12892;170374;33.64;366;04.03.51.196
12888;170371;33.64;367;04.03.51.207
12888;170380;33.64;368;04.03.51.207
12884;170385;33.64;369;04.03.51.207
12892;170386;33.64;370;04.03.51.207
12900;170375;33.64;371;04.03.51.207
12892;170387;33.64;372;04.03.51.207
12884;170386;33.64;373;04.03.51.207
12892;170385;33.64;374;04.03.51.207
12888;170392;33.68;375;04.03.51.305
12884;170388;33.68;376;04.03.51.305
12912;170392;33.68;377;04.03.51.305
12880;170397;33.68;378;04.03.51.305
12876;170386;33.68;379;04.03.51.305
12896;170397;33.68;380;04.03.51.305
12908;170389;33.68;381;04.03.51.305
12884;170397;33.68;382;04.03.51.305
12888;170398;33.68;383;04.03.51.326
12896;170395;33.68;384;04.03.51.326
12892;170390;33.68;385;04.03.51.326
12924;170397;33.68;386;04.03.51.326
12896;170409;33.68;387;04.03.51.326
12864;170407;33.68;388;04.03.51.326
12884;170403;33.68;389;04.03.51.326
12880;170406;33.68;390;04.03.51.326
12904;170415;33.68;391;04.03.51.326
12900;170415;33.68;392;04.03.51.326
12900;170408;33.68;393;04.03.51.326
12896;170409;33.68;394;04.03.51.326
12896;170420;33.68;395;04.03.51.326
12916;170419;33.68;396;04.03.51.337
12868;170414;33.68;397;04.03.51.337
12880;170416;33.68;398;04.03.51.337
12904;170413;33.68;399;04.03.51.337
12900;170420;33.68;400;04.03.51.425
12904;170414;33.68;401;04.03.51.425
12904;170419;33.68;402;04.03.51.425
12888;170415;33.68;403;04.03.51.425
12904;170419;33.68;404;04.03.51.425
12888;170418;33.68;405;04.03.51.425
12912;170412;33.68;406;04.03.51.425
12892;170404;33.68;407;04.03.51.425
12912;170404;33.68;408;04.03.51.425
12880;170400;33.68;409;04.03.51.425
12928;170395;33.68;410;04.03.51.436
12928;170394;33.68;411;04.03.51.436
12892;170385;33.68;412;04.03.51.436
12880;170384;33.68;413;04.03.51.436
12912;170384;33.68;414;04.03.51.436
12928;170380;33.68;415;04.03.51.436
12904;170373;33.68;416;04.03.51.436
12888;170364;33.68;417;04.03.51.436
12912;170359;33.68;418;04.03.51.436
12884;170363;33.68;419;04.03.51.436
12900;170357;33.68;420;04.03.51.436
12872;170346;33.68;421;04.03.51.436
12888;170351;33.68;422;04.03.51.447
12912;170349;33.68;423;04.03.51.447
12920;170341;33.68;424;04.03.51.447
12904;170338;33.64;425;04.03.51.546
12896;170333;33.64;426;04.03.51.546
12896;170333;33.64;427;04.03.51.546
12892;170335;33.64;428;04.03.51.546
12916;170331;33.64;429;04.03.51.546
12920;170322;33.64;430;04.03.51.546
12892;170332;33.64;431;04.03.51.557
12900;170328;33.64;432;04.03.51.557
12884;170329;33.64;433;04.03.51.557
12892;170328;33.64;434;04.03.51.557
12872;170322;33.64;435;04.03.51.557
12888;170320;33.64;436;04.03.51.557
12896;170324;33.64;437;04.03.51.557
12880;170327;33.64;438;04.03.51.557
12880;170320;33.64;439;04.03.51.557
12892;170317;33.64;440;04.03.51.557
12860;170320;33.64;441;04.03.51.557
12912;170316;33.64;442;04.03.51.557
12900;170317;33.64;443;04.03.51.557
12892;170316;33.64;444;04.03.51.568
12892;170307;33.64;445;04.03.51.568
12884;170312;33.64;446;04.03.51.568
12876;170312;33.64;447;04.03.51.568
12928;170315;33.64;448;04.03.51.568
12892;170310;33.64;449;04.03.51.568
12900;170306;33.64;450;04.03.51.678
12904;170316;33.64;451;04.03.51.678
12916;170311;33.64;452;04.03.51.689
12904;170309;33.64;453;04.03.51.689
12872;170309;33.64;454;04.03.51.689
12872;170312;33.64;455;04.03.51.689
12892;170305;33.64;456;04.03.51.689
12912;170311;33.64;457;04.03.51.689
12896;170312;33.64;458;04.03.51.689
12888;170311;33.64;459;04.03.51.689
12872;170309;33.64;460;04.03.51.689
12892;170317;33.64;461;04.03.51.689
12896;170308;33.64;462;04.03.51.689
12888;170311;33.64;463;04.03.51.689
12876;170310;33.64;464;04.03.51.689
12904;170313;33.64;465;04.03.51.699
12892;170308;33.64;466;04.03.51.699
12884;170314;33.64;467;04.03.51.699
12928;170311;33.64;468;04.03.51.699
12904;170311;33.64;469;04.03.51.699
12928;170319;33.64;470;04.03.51.699
12896;170312;33.64;471;04.03.51.699
12928;170314;33.64;472;04.03.51.699
12904;170315;33.64;473;04.03.51.699
12900;170302;33.64;474;04.03.51.699
12868;170306;33.64;475;04.03.51.819
12892;170308;33.64;476;04.03.51.819
12904;170320;33.64;477;04.03.51.819
12888;170309;33.64;478;04.03.51.819
12916;170309;33.64;479;04.03.51.819
12904;170308;33.64;480;04.03.51.819
12928;170305;33.64;481;04.03.51.819
12896;170313;33.64;482;04.03.51.819
12904;170310;33.64;483;04.03.51.819
12892;170316;33.64;484;04.03.51.819
12904;170315;33.64;485;04.03.51.830
12888;170322;33.64;486;04.03.51.830
12896;170316;33.64;487;04.03.51.830
12896;170320;33.64;488;04.03.51.830
12888;170317;33.64;489;04.03.51.830
12892;170321;33.64;490;04.03.51.830
12860;170321;33.64;491;04.03.51.830
12912;170327;33.64;492;04.03.51.830
12892;170325;33.64;493;04.03.51.830
12896;170319;33.64;494;04.03.51.830
12892;170321;33.64;495;04.03.51.830
12880;170329;33.64;496;04.03.51.830
12888;170320;33.64;497;04.03.51.841
12896;170325;33.64;498;04.03.51.841
12944;170333;33.64;499;04.03.51.841
12928;170330;33.64;500;04.03.51.929
12896;170337;33.64;501;04.03.51.929
12896;170329;33.64;502;04.03.51.929
12924;170336;33.64;503;04.03.51.929
12888;170340;33.64;504;04.03.51.929
12896;170338;33.64;505;04.03.51.929
12888;170339;33.64;506;04.03.51.940
12880;170339;33.64;507;04.03.51.940
12860;170344;33.64;508;04.03.51.940
12908;170340;33.64;509;04.03.51.940
12888;170344;33.64;510;04.03.51.940
12904;170341;33.64;511;04.03.51.940
12896;170345;33.64;512;04.03.51.940
12876;170343;33.64;513;04.03.51.951
12896;170353;33.64;514;04.03.51.951
12876;170344;33.64;515;04.03.51.951
12888;170350;33.64;516;04.03.51.951
12928;170350;33.64;517;04.03.51.951
12888;170342;33.64;518;04.03.51.951
12892;170350;33.64;519;04.03.51.951
12908;170348;33.64;520;04.03.51.951
12880;170345;33.64;521;04.03.51.951
12908;170353;33.64;522;04.03.51.951
12888;170348;33.64;523;04.03.51.951
12932;170351;33.64;524;04.03.51.951
12920;170355;33.68;525;04.03.52.050
12912;170353;33.68;526;04.03.52.050
12892;170364;33.68;527;04.03.52.061
12916;170360;33.68;528;04.03.52.061
12876;170348;33.68;529;04.03.52.061
12900;170360;33.68;530;04.03.52.061
12900;170362;33.68;531;04.03.52.061
12892;170366;33.68;532;04.03.52.061
12888;170361;33.68;533;04.03.52.061
12892;170363;33.68;534;04.03.52.061
12912;170370;33.68;535;04.03.52.061
12904;170371;33.68;536;04.03.52.061
12884;170379;33.68;537;04.03.52.061
12928;170380;33.68;538;04.03.52.061
12896;170377;33.68;539;04.03.52.061
12912;170389;33.68;540;04.03.52.071
12896;170377;33.68;541;04.03.52.071
12896;170381;33.68;542;04.03.52.071
12896;170379;33.68;543;04.03.52.071
12896;170387;33.68;544;04.03.52.071
12904;170381;33.68;545;04.03.52.071
12888;170387;33.68;546;04.03.52.071
12884;170387;33.68;547;04.03.52.071
12880;170386;33.68;548;04.03.52.071
12912;170384;33.68;549;04.03.52.071
12884;170393;33.68;550;04.03.52.180
12852;170394;33.68;551;04.03.52.180
12876;170393;33.68;552;04.03.52.180
12864;170386;33.68;553;04.03.52.180
12880;170390;33.68;554;04.03.52.180
12904;170387;33.68;555;04.03.52.180
12884;170391;33.68;556;04.03.52.180
12892;170385;33.68;557;04.03.52.180
12892;170393;33.68;558;04.03.52.180
12896;170402;33.68;559;04.03.52.180
12896;170393;33.68;560;04.03.52.180
12896;170399;33.68;561;04.03.52.191
12916;170401;33.68;562;04.03.52.191
12884;170398;33.68;563;04.03.52.191
12904;170400;33.68;564;04.03.52.191
12880;170405;33.68;565;04.03.52.191
12892;170402;33.68;566;04.03.52.191
12884;170403;33.68;567;04.03.52.191
12884;170404;33.68;568;04.03.52.191
12868;170413;33.68;569;04.03.52.191
12884;170397;33.68;570;04.03.52.191
12900;170404;33.68;571;04.03.52.191
12896;170406;33.68;572;04.03.52.191
12908;170411;33.68;573;04.03.52.191
12928;170416;33.68;574;04.03.52.202
12912;170414;33.64;575;04.03.52.312
12928;170415;33.64;576;04.03.52.312
12908;170422;33.64;577;04.03.52.312
12892;170431;33.64;578;04.03.52.312
12892;170431;33.64;579;04.03.52.312
12888;170419;33.64;580;04.03.52.312
12892;170434;33.64;581;04.03.52.312
12896;170432;33.64;582;04.03.52.323
12876;170425;33.64;583;04.03.52.323
12864;170430;33.64;584;04.03.52.323
12900;170434;33.64;585;04.03.52.323
12900;170428;33.64;586;04.03.52.323
12900;170434;33.64;587;04.03.52.323
12904;170433;33.64;588;04.03.52.323
12896;170435;33.64;589;04.03.52.323
12900;170438;33.64;590;04.03.52.323
12872;170430;33.64;591;04.03.52.323
12900;170431;33.64;592;04.03.52.323
12892;170425;33.64;593;04.03.52.323
12920;170425;33.64;594;04.03.52.323
12896;170420;33.64;595;04.03.52.324
12888;170419;33.64;596;04.03.52.324
12896;170416;33.64;597;04.03.52.335
12892;170412;33.64;598;04.03.52.335
12904;170405;33.64;599;04.03.52.335
12892;170407;33.64;600;04.03.52.423
12912;170402;33.64;601;04.03.52.423
12896;170400;33.64;602;04.03.52.423
12888;170389;33.64;603;04.03.52.423
12884;170397;33.64;604;04.03.52.434
12876;170393;33.64;605;04.03.52.434
12900;170383;33.64;606;04.03.52.434
12904;170387;33.64;607;04.03.52.434
12872;170376;33.64;608;04.03.52.434
12892;170370;33.64;609;04.03.52.434
12904;170376;33.64;610;04.03.52.434
12884;170360;33.64;611;04.03.52.434
12896;170363;33.64;612;04.03.52.444
12896;170368;33.64;613;04.03.52.444
12892;170362;33.64;614;04.03.52.444
12904;170367;33.64;615;04.03.52.444
12892;170358;33.64;616;04.03.52.444
12888;170364;33.64;617;04.03.52.444
12880;170362;33.64;618;04.03.52.444
12904;170359;33.64;619;04.03.52.444
12904;170355;33.64;620;04.03.52.444
12900;170363;33.64;621;04.03.52.444
12888;170358;33.64;622;04.03.52.455
12880;170351;33.64;623;04.03.52.455
12936;170359;33.64;624;04.03.52.455
12888;170364;33.64;625;04.03.52.543
12904;170361;33.64;626;04.03.52.554
12896;170356;33.64;627;04.03.52.554
12884;170357;33.64;628;04.03.52.554
12904;170351;33.64;629;04.03.52.554
12896;170348;33.64;630;04.03.52.554
12904;170346;33.64;631;04.03.52.554
12892;170350;33.64;632;04.03.52.554
12876;170346;33.64;633;04.03.52.554
12920;170345;33.64;634;04.03.52.554
12880;170347;33.64;635;04.03.52.554
12908;170345;33.64;636;04.03.52.554
12896;170344;33.64;637;04.03.52.554
12904;170349;33.64;638;04.03.52.554
12888;170348;33.64;639;04.03.52.554
12884;170348;33.64;640;04.03.52.565
12912;170348;33.64;641;04.03.52.565
12904;170354;33.64;642;04.03.52.565
12916;170354;33.64;643;04.03.52.565
12916;170351;33.64;644;04.03.52.565
12884;170349;33.64;645;04.03.52.565
12860;170344;33.64;646;04.03.52.565
12892;170344;33.64;647;04.03.52.565
12892;170350;33.64;648;04.03.52.565
12928;170350;33.64;649;04.03.52.565
12860;170344;33.64;650;04.03.52.675
12920;170339;33.64;651;04.03.52.675
12900;170345;33.64;652;04.03.52.675
12896;170346;33.64;653;04.03.52.675
12896;170352;33.64;654;04.03.52.675
12900;170348;33.64;655;04.03.52.675
12908;170354;33.64;656;04.03.52.675
12916;170354;33.64;657;04.03.52.675
12856;170342;33.64;658;04.03.52.675
12928;170347;33.64;659;04.03.52.675
12860;170345;33.64;660;04.03.52.686
12884;170338;33.64;661;04.03.52.686
12872;170339;33.64;662;04.03.52.686
12892;170342;33.64;663;04.03.52.686
12884;170339;33.64;664;04.03.52.686
12896;170339;33.64;665;04.03.52.686
12884;170339;33.64;666;04.03.52.686
12904;170348;33.64;667;04.03.52.686
12892;170337;33.64;668;04.03.52.686
12908;170335;33.64;669;04.03.52.686
12872;170347;33.64;670;04.03.52.686
12876;170346;33.64;671;04.03.52.686
12900;170345;33.64;672;04.03.52.686
12876;170343;33.64;673;04.03.52.697
12900;170357;33.64;674;04.03.52.697
12872;170347;33.64;675;04.03.52.806
12928;170349;33.64;676;04.03.52.806
12884;170354;33.64;677;04.03.52.806
12900;170353;33.64;678;04.03.52.806
12888;170354;33.64;679;04.03.52.806
12892;170350;33.64;680;04.03.52.817
12892;170359;33.64;681;04.03.52.817
12892;170370;33.64;682;04.03.52.817
12884;170363;33.64;683;04.03.52.817
12892;170363;33.64;684;04.03.52.817
12880;170364;33.64;685;04.03.52.817
12900;170373;33.64;686;04.03.52.817
12892;170364;33.64;687;04.03.52.817
12904;170369;33.64;688;04.03.52.817
12900;170370;33.64;689;04.03.52.817
12872;170371;33.64;690;04.03.52.817
12868;170373;33.64;691;04.03.52.817
12892;170370;33.64;692;04.03.52.817
12876;170369;33.64;693;04.03.52.817
12896;170367;33.64;694;04.03.52.828
12892;170370;33.64;695;04.03.52.828
12884;170372;33.64;696;04.03.52.828
12904;170375;33.64;697;04.03.52.828
12888;170367;33.64;698;04.03.52.828
12892;170377;33.64;699;04.03.52.828
12896;170377;33.64;700;04.03.52.938
12896;170375;33.64;701;04.03.52.938
12884;170377;33.64;702;04.03.52.949
12892;170373;33.64;703;04.03.52.949
12868;170378;33.64;704;04.03.52.949
12896;170383;33.64;705;04.03.52.949
12872;170380;33.64;706;04.03.52.949
12880;170378;33.64;707;04.03.52.949
12896;170378;33.64;708;04.03.52.949
12892;170383;33.64;709;04.03.52.949
12884;170378;33.64;710;04.03.52.949
12884;170383;33.64;711;04.03.52.949
12892;170390;33.64;712;04.03.52.949
12904;170392;33.64;713;04.03.52.949
12916;170390;33.64;714;04.03.52.949
12872;170395;33.64;715;04.03.52.960
12904;170392;33.64;716;04.03.52.960
12908;170391;33.64;717;04.03.52.960
12908;170391;33.64;718;04.03.52.960
12912;170393;33.64;719;04.03.52.960
12904;170393;33.64;720;04.03.52.960
12900;170397;33.64;721;04.03.52.960
12892;170392;33.64;722;04.03.52.960
12888;170392;33.64;723;04.03.52.960
12892;170388;33.64;724;04.03.52.960
12860;170401;33.64;725;04.03.53.051
12892;170396;33.64;726;04.03.53.051
12896;170403;33.64;727;04.03.53.062
12896;170402;33.64;728;04.03.53.062
12888;170398;33.64;729;04.03.53.062
12880;170396;33.64;730;04.03.53.062
12888;170400;33.64;731;04.03.53.062
12908;170403;33.64;732;04.03.53.062
12892;170409;33.64;733;04.03.53.073
12884;170410;33.64;734;04.03.53.073
12896;170408;33.64;735;04.03.53.073
12900;170410;33.64;736;04.03.53.084
12896;170416;33.64;737;04.03.53.084
12896;170418;33.64;738;04.03.53.084
12916;170418;33.64;739;04.03.53.084
12892;170418;33.64;740;04.03.53.084
12904;170417;33.64;741;04.03.53.084
12828;170415;33.64;742;04.03.53.084
12904;170416;33.64;743;04.03.53.084
12868;170430;33.64;744;04.03.53.084
12892;170434;33.64;745;04.03.53.084
12904;170426;33.64;746;04.03.53.084
12892;170421;33.64;747;04.03.53.084
12904;170426;33.64;748;04.03.53.084
12928;170441;33.64;749;04.03.53.095
12900;170435;33.64;750;04.03.53.192
12892;170437;33.64;751;04.03.53.192
12892;170438;33.64;752;04.03.53.192
12908;170443;33.64;753;04.03.53.192
12904;170435;33.64;754;04.03.53.192
12920;170434;33.64;755;04.03.53.192
12900;170447;33.64;756;04.03.53.192
12884;170439;33.64;757;04.03.53.192
12896;170438;33.64;758;04.03.53.192
12892;170444;33.64;759;04.03.53.192
12900;170439;33.64;760;04.03.53.192
12892;170442;33.64;761;04.03.53.203
12896;170445;33.64;762;04.03.53.203
12908;170450;33.64;763;04.03.53.203
12900;170441;33.64;764;04.03.53.203
12892;170448;33.64;765;04.03.53.203
12888;170449;33.64;766;04.03.53.203
12888;170445;33.64;767;04.03.53.203
12860;170443;33.64;768;04.03.53.203
12896;170446;33.64;769;04.03.53.203
12892;170444;33.64;770;04.03.53.203
12888;170443;33.64;771;04.03.53.203
12888;170429;33.64;772;04.03.53.203
12888;170428;33.64;773;04.03.53.203
12900;170423;33.64;774;04.03.53.203
12888;170418;33.64;775;04.03.53.313
12888;170411;33.64;776;04.03.53.313
12844;170418;33.64;777;04.03.53.313
12896;170412;33.64;778;04.03.53.313
12928;170407;33.64;779;04.03.53.313
12912;170399;33.64;780;04.03.53.313
12896;170389;33.64;781;04.03.53.313
12900;170396;33.64;782;04.03.53.324
12920;170390;33.64;783;04.03.53.324
12884;170393;33.64;784;04.03.53.324
12904;170385;33.64;785;04.03.53.324
12884;170379;33.64;786;04.03.53.324
12880;170389;33.64;787;04.03.53.324
12904;170382;33.64;788;04.03.53.324
12880;170377;33.64;789;04.03.53.324
12884;170371;33.64;790;04.03.53.324
12912;170372;33.64;791;04.03.53.324
12892;170369;33.64;792;04.03.53.324
12888;170366;33.64;793;04.03.53.324
12908;170358;33.64;794;04.03.53.324
12892;170359;33.64;795;04.03.53.325
12904;170361;33.64;796;04.03.53.326
12908;170355;33.64;797;04.03.53.337
12888;170358;33.64;798;04.03.53.337
12928;170359;33.64;799;04.03.53.337
12892;170360;33.64;800;04.03.53.447
12876;170359;33.64;801;04.03.53.447
12888;170355;33.64;802;04.03.53.447
12900;170355;33.64;803;04.03.53.447
12888;170346;33.64;804;04.03.53.447
12916;170357;33.64;805;04.03.53.458
12896;170346;33.64;806;04.03.53.458
12892;170349;33.64;807;04.03.53.458
12900;170356;33.64;808;04.03.53.458
12876;170342;33.64;809;04.03.53.458
12908;170342;33.64;810;04.03.53.458
12908;170345;33.64;811;04.03.53.458
12912;170347;33.64;812;04.03.53.458
12888;170349;33.64;813;04.03.53.458
12896;170345;33.64;814;04.03.53.458
12860;170341;33.64;815;04.03.53.458
12892;170341;33.64;816;04.03.53.458
12876;170339;33.64;817;04.03.53.469
12884;170337;33.64;818;04.03.53.469
12892;170336;33.64;819;04.03.53.469
12904;170343;33.64;820;04.03.53.469
12884;170345;33.64;821;04.03.53.469
12876;170350;33.64;822;04.03.53.469
12880;170345;33.64;823;04.03.53.480
12908;170344;33.64;824;04.03.53.480
12904;170337;33.64;825;04.03.53.545
12884;170343;33.64;826;04.03.53.545
12912;170341;33.64;827;04.03.53.545
12888;170347;33.64;828;04.03.53.556
12892;170348;33.64;829;04.03.53.556
12868;170347;33.64;830;04.03.53.556
12892;170342;33.64;831;04.03.53.556
12868;170348;33.64;832;04.03.53.556
12884;170353;33.64;833;04.03.53.556
12876;170346;33.64;834;04.03.53.556
12856;170344;33.64;835;04.03.53.556
12884;170341;33.64;836;04.03.53.556
12880;170350;33.64;837;04.03.53.567
12884;170334;33.64;838;04.03.53.567
12880;170339;33.64;839;04.03.53.567
12904;170342;33.64;840;04.03.53.567
12876;170349;33.64;841;04.03.53.567
12892;170351;33.64;842;04.03.53.578
12884;170350;33.64;843;04.03.53.578
12884;170354;33.64;844;04.03.53.578
12892;170347;33.64;845;04.03.53.589
12892;170346;33.64;846;04.03.53.589
12892;170357;33.64;847;04.03.53.589
12900;170344;33.64;848;04.03.53.589
12876;170349;33.64;849;04.03.53.589
12888;170344;33.64;850;04.03.53.677
12904;170350;33.64;851;04.03.53.677
12900;170351;33.64;852;04.03.53.677
12884;170343;33.64;853;04.03.53.677
12904;170351;33.64;854;04.03.53.677
12916;170352;33.64;855;04.03.53.677
12880;170353;33.64;856;04.03.53.677
12900;170355;33.64;857;04.03.53.677
12860;170351;33.64;858;04.03.53.677
12896;170344;33.64;859;04.03.53.677
12876;170342;33.64;860;04.03.53.677
12872;170352;33.64;861;04.03.53.677
12868;170353;33.64;862;04.03.53.688
12900;170354;33.64;863;04.03.53.688
12904;170359;33.64;864;04.03.53.688
12892;170345;33.64;865;04.03.53.688
12892;170355;33.64;866;04.03.53.688
12884;170368;33.64;867;04.03.53.699
12888;170354;33.64;868;04.03.53.699
12900;170363;33.64;869;04.03.53.699
12876;170359;33.64;870;04.03.53.699
12892;170363;33.64;871;04.03.53.699
12912;170357;33.64;872;04.03.53.699
12860;170359;33.64;873;04.03.53.699
12920;170364;33.64;874;04.03.53.699
12912;170375;33.64;875;04.03.53.809
12884;170372;33.64;876;04.03.53.809
12860;170372;33.64;877;04.03.53.809
12904;170369;33.64;878;04.03.53.809
12880;170365;33.64;879;04.03.53.809
12884;170375;33.64;880;04.03.53.809
12876;170377;33.64;881;04.03.53.809
12872;170371;33.64;882;04.03.53.809
12884;170372;33.64;883;04.03.53.820
12900;170373;33.64;884;04.03.53.820
12868;170376;33.64;885;04.03.53.820
12860;170375;33.64;886;04.03.53.820
12912;170374;33.64;887;04.03.53.820
12880;170379;33.64;888;04.03.53.820
12920;170380;33.64;889;04.03.53.820
12888;170381;33.64;890;04.03.53.820
12892;170387;33.64;891;04.03.53.820
12884;170392;33.64;892;04.03.53.820
12912;170385;33.64;893;04.03.53.820
12892;170386;33.64;894;04.03.53.820
12876;170393;33.64;895;04.03.53.820
12900;170387;33.64;896;04.03.53.830
12892;170385;33.64;897;04.03.53.830
12908;170392;33.64;898;04.03.53.830
12928;170408;33.64;899;04.03.53.830
12884;170396;33.64;900;04.03.53.939
12868;170396;33.64;901;04.03.53.939
12884;170409;33.64;902;04.03.53.950
12884;170401;33.64;903;04.03.53.950
12860;170403;33.64;904;04.03.53.950
12884;170402;33.64;905;04.03.53.950
12896;170404;33.64;906;04.03.53.950
12904;170410;33.64;907;04.03.53.950
12892;170406;33.64;908;04.03.53.950
12888;170408;33.64;909;04.03.53.950
12880;170412;33.64;910;04.03.53.950
12900;170408;33.64;911;04.03.53.961
12912;170416;33.64;912;04.03.53.961
12880;170414;33.64;913;04.03.53.961
12912;170416;33.64;914;04.03.53.961
12896;170419;33.64;915;04.03.53.961
12900;170411;33.64;916;04.03.53.961
12916;170417;33.64;917;04.03.53.961
12860;170413;33.64;918;04.03.53.961
12900;170425;33.64;919;04.03.53.961
12928;170423;33.64;920;04.03.53.961
12888;170422;33.64;921;04.03.53.961
12868;170415;33.64;922;04.03.53.961
12888;170423;33.64;923;04.03.53.961
12892;170417;33.64;924;04.03.53.961
12876;170418;33.64;925;04.03.54.082
12860;170426;33.64;926;04.03.54.082
12880;170426;33.64;927;04.03.54.082
12880;170419;33.64;928;04.03.54.082
12892;170424;33.64;929;04.03.54.082
12888;170429;33.64;930;04.03.54.082
12852;170436;33.64;931;04.03.54.082
12872;170432;33.64;932;04.03.54.082
12892;170433;33.64;933;04.03.54.082
12868;170439;33.64;934;04.03.54.082
12896;170443;33.64;935;04.03.54.082
12916;170440;33.64;936;04.03.54.082
12860;170444;33.64;937;04.03.54.092
12860;170437;33.64;938;04.03.54.092
12872;170444;33.64;939;04.03.54.092
12884;170445;33.64;940;04.03.54.092
12876;170440;33.64;941;04.03.54.092
12884;170448;33.64;942;04.03.54.103
12880;170444;33.64;943;04.03.54.103
12884;170450;33.64;944;04.03.54.103
12904;170454;33.64;945;04.03.54.103
12880;170450;33.64;946;04.03.54.103
12888;170448;33.64;947;04.03.54.103
12892;170453;33.64;948;04.03.54.103
12904;170445;33.64;949;04.03.54.103
12872;170450;33.64;950;04.03.54.180
12904;170436;33.64;951;04.03.54.180
12884;170441;33.64;952;04.03.54.180
12896;170443;33.64;953;04.03.54.180
12864;170431;33.64;954;04.03.54.180
12912;170429;33.64;955;04.03.54.180
12896;170422;33.64;956;04.03.54.180
12872;170419;33.64;957;04.03.54.190
12876;170423;33.64;958;04.03.54.190
12860;170420;33.64;959;04.03.54.190
12904;170406;33.64;960;04.03.54.190
12904;170409;33.64;961;04.03.54.190
12904;170393;33.64;962;04.03.54.190
12888;170399;33.64;963;04.03.54.190
12928;170394;33.64;964;04.03.54.190
12888;170393;33.64;965;04.03.54.190
12892;170393;33.64;966;04.03.54.201
12860;170383;33.64;967;04.03.54.212
12868;170378;33.64;968;04.03.54.212
12892;170384;33.64;969;04.03.54.212
12896;170378;33.64;970;04.03.54.212
12880;170379;33.64;971;04.03.54.212
12880;170373;33.64;972;04.03.54.212
12880;170372;33.64;973;04.03.54.212
12924;170363;33.64;974;04.03.54.223
12900;170362;33.68;975;04.03.54.300
12880;170367;33.68;976;04.03.54.300
12884;170372;33.68;977;04.03.54.300
12892;170362;33.68;978;04.03.54.311
12924;170360;33.68;979;04.03.54.311
12904;170361;33.68;980;04.03.54.311
12900;170362;33.68;981;04.03.54.311
12896;170375;33.68;982;04.03.54.311
12880;170367;33.68;983;04.03.54.311
12884;170361;33.68;984;04.03.54.311
12864;170361;33.68;985;04.03.54.311
12860;170351;33.68;986;04.03.54.311
12860;170350;33.68;987;04.03.54.311
12860;170352;33.68;988;04.03.54.311
12912;170350;33.68;989;04.03.54.311
12912;170349;33.68;990;04.03.54.322
12872;170356;33.68;991;04.03.54.322
12888;170340;33.68;992;04.03.54.322
12896;170350;33.68;993;04.03.54.322
12876;170341;33.68;994;04.03.54.322
12884;170345;33.68;995;04.03.54.322
12888;170348;33.68;996;04.03.54.322
12904;170347;33.68;997;04.03.54.322
12888;170347;33.68;998;04.03.54.322
12900;170352;33.68;999;04.03.54.322
12880;170337;33.68;000;04.03.54.442
12876;170350;33.68;001;04.03.54.442
12856;170355;33.68;002;04.03.54.442
12900;170351;33.68;003;04.03.54.442
12892;170354;33.68;004;04.03.54.442
12872;170343;33.68;005;04.03.54.442
12884;170347;33.68;006;04.03.54.442
12876;170349;33.68;007;04.03.54.442
12880;170351;33.68;008;04.03.54.442
12884;170347;33.68;009;04.03.54.442
12876;170344;33.68;010;04.03.54.442
12892;170345;33.68;011;04.03.54.442
12876;170344;33.68;012;04.03.54.442
12912;170340;33.68;013;04.03.54.453
12912;170349;33.68;014;04.03.54.453
12888;170346;33.68;015;04.03.54.453
12916;170348;33.68;016;04.03.54.453
12876;170344;33.68;017;04.03.54.453
12892;170339;33.68;018;04.03.54.453
12868;170349;33.68;019;04.03.54.453
12892;170344;33.68;020;04.03.54.453
12884;170355;33.68;021;04.03.54.453
12892;170355;33.68;022;04.03.54.453
12884;170351;33.68;023;04.03.54.453
12932;170348;33.68;024;04.03.54.453
12880;170345;33.64;025;04.03.54.552
12880;170345;33.64;026;04.03.54.552
12876;170341;33.64;027;04.03.54.552
12912;170343;33.64;028;04.03.54.552
12884;170358;33.64;029;04.03.54.552
12856;170344;33.64;030;04.03.54.552
12892;170343;33.64;031;04.03.54.552
12880;170345;33.64;032;04.03.54.552
12884;170357;33.64;033;04.03.54.574
12880;170360;33.64;034;04.03.54.574
12896;170357;33.64;035;04.03.54.574
12900;170362;33.64;036;04.03.54.574
12896;170350;33.64;037;04.03.54.574
12900;170354;33.64;038;04.03.54.574
12904;170353;33.64;039;04.03.54.574
12904;170356;33.64;040;04.03.54.574
12888;170359;33.64;041;04.03.54.574
12880;170357;33.64;042;04.03.54.574
12896;170357;33.64;043;04.03.54.585
12888;170357;33.64;044;04.03.54.585
12888;170365;33.64;045;04.03.54.585
12908;170363;33.64;046;04.03.54.585
12880;170361;33.64;047;04.03.54.585
12888;170366;33.64;048;04.03.54.585
12892;170374;33.64;049;04.03.54.585
12876;170374;33.64;050;04.03.54.673
12908;170374;33.64;051;04.03.54.673
12884;170367;33.64;052;04.03.54.673
12916;170373;33.64;053;04.03.54.673
12884;170375;33.64;054;04.03.54.673
12860;170374;33.64;055;04.03.54.684
12908;170376;33.64;056;04.03.54.684
12928;170376;33.64;057;04.03.54.684
12904;170373;33.64;058;04.03.54.684
12888;170378;33.64;059;04.03.54.684
12884;170376;33.64;060;04.03.54.684
12880;170382;33.64;061;04.03.54.684
12908;170379;33.64;062;04.03.54.684
12900;170376;33.64;063;04.03.54.684
12892;170378;33.64;064;04.03.54.684
12900;170389;33.64;065;04.03.54.684
12864;170386;33.64;066;04.03.54.684
12928;170387;33.64;067;04.03.54.684
12912;170395;33.64;068;04.03.54.695
12896;170386;33.64;069;04.03.54.695
12912;170388;33.64;070;04.03.54.695
12884;170384;33.64;071;04.03.54.695
12888;170393;33.64;072;04.03.54.695
12908;170387;33.64;073;04.03.54.695
12920;170393;33.64;074;04.03.54.695
12896;170392;33.64;075;04.03.54.804
12896;170403;33.64;076;04.03.54.815
12884;170399;33.64;077;04.03.54.815
12900;170397;33.64;078;04.03.54.815
12888;170390;33.64;079;04.03.54.815
12876;170398;33.64;080;04.03.54.815
12896;170395;33.64;081;04.03.54.815
12900;170397;33.64;082;04.03.54.815
12920;170393;33.64;083;04.03.54.815
12868;170398;33.64;084;04.03.54.815
12884;170401;33.64;085;04.03.54.815
12912;170400;33.64;086;04.03.54.815
12904;170396;33.64;087;04.03.54.815
12868;170402;33.64;088;04.03.54.815
12900;170403;33.64;089;04.03.54.826
12896;170405;33.64;090;04.03.54.826
12880;170408;33.64;091;04.03.54.826
12884;170406;33.64;092;04.03.54.826
12884;170411;33.64;093;04.03.54.826
12900;170403;33.64;094;04.03.54.826
12888;170408;33.64;095;04.03.54.826
12884;170407;33.64;096;04.03.54.826
12876;170399;33.64;097;04.03.54.826
12884;170410;33.64;098;04.03.54.826
12888;170411;33.64;099;04.03.54.826
12896;170415;33.64;100;04.03.54.936
12884;170409;33.64;101;04.03.54.936
12888;170418;33.64;102;04.03.54.936
12912;170416;33.64;103;04.03.54.936
12912;170419;33.64;104;04.03.54.936
12884;170422;33.64;105;04.03.54.936
12896;170424;33.64;106;04.03.54.936
12896;170419;33.64;107;04.03.54.936
12896;170425;33.64;108;04.03.54.947
12892;170434;33.64;109;04.03.54.947
12892;170433;33.64;110;04.03.54.947
12912;170429;33.64;111;04.03.54.947
12896;170436;33.64;112;04.03.54.947
12900;170441;33.64;113;04.03.54.947
12884;170431;33.64;114;04.03.54.947
12904;170429;33.64;115;04.03.54.947
12912;170437;33.64;116;04.03.54.947
12880;170443;33.64;117;04.03.54.947
12892;170443;33.64;118;04.03.54.948
12900;170445;33.64;119;04.03.54.948
12876;170436;33.64;120;04.03.54.959
12928;170448;33.64;121;04.03.54.959
12896;170451;33.64;122;04.03.54.959
12876;170446;33.64;123;04.03.54.959
12944;170443;33.64;124;04.03.54.959
12876;170444;33.60;125;04.03.55.069
12860;170446;33.60;126;04.03.55.069
12904;170444;33.60;127;04.03.55.069
12896;170456;33.60;128;04.03.55.069
12896;170466;33.60;129;04.03.55.069
12868;170454;33.60;130;04.03.55.069
12928;170462;33.60;131;04.03.55.069
12904;170464;33.60;132;04.03.55.069
12876;170464;33.60;133;04.03.55.080
12896;170454;33.60;134;04.03.55.080
12908;170457;33.60;135;04.03.55.080
12900;170456;33.60;136;04.03.55.080
12928;170445;33.60;137;04.03.55.080
12892;170448;33.60;138;04.03.55.080
12904;170441;33.60;139;04.03.55.080
12888;170447;33.60;140;04.03.55.080
12884;170437;33.60;141;04.03.55.080
12904;170443;33.60;142;04.03.55.091
12896;170439;33.60;143;04.03.55.091
12904;170431;33.60;144;04.03.55.091
12904;170422;33.60;145;04.03.55.091
12896;170417;33.60;146;04.03.55.091
12880;170421;33.60;147;04.03.55.091
12904;170418;33.60;148;04.03.55.091
12888;170409;33.60;149;04.03.55.091
12868;170412;33.60;150;04.03.55.178
12892;170406;33.60;151;04.03.55.178
12884;170399;33.60;152;04.03.55.178
12896;170400;33.60;153;04.03.55.178
12888;170398;33.60;154;04.03.55.189
12896;170392;33.60;155;04.03.55.189
12896;170390;33.60;156;04.03.55.189
12896;170391;33.60;157;04.03.55.189
12904;170387;33.60;158;04.03.55.189
12896;170376;33.60;159;04.03.55.189
12876;170380;33.60;160;04.03.55.189
12880;170379;33.60;161;04.03.55.201
12888;170384;33.60;162;04.03.55.201
12888;170375;33.60;163;04.03.55.201
12888;170383;33.60;164;04.03.55.201
12916;170382;33.60;165;04.03.55.201
12908;170377;33.60;166;04.03.55.201
12892;170377;33.60;167;04.03.55.201
12884;170370;33.60;168;04.03.55.201
12904;170376;33.60;169;04.03.55.201
12900;170373;33.60;170;04.03.55.201
12888;170376;33.60;171;04.03.55.201
12888;170372;33.60;172;04.03.55.201
12880;170369;33.60;173;04.03.55.201
12892;170382;33.60;174;04.03.55.201
12896;170377;33.64;175;04.03.55.300
12892;170376;33.64;176;04.03.55.311
12888;170374;33.64;177;04.03.55.311
12912;170370;33.64;178;04.03.55.311
12912;170367;33.64;179;04.03.55.311
12888;170361;33.64;180;04.03.55.311
12892;170370;33.64;181;04.03.55.311
12880;170371;33.64;182;04.03.55.311
12868;170374;33.64;183;04.03.55.311
12920;170374;33.64;184;04.03.55.311
12884;170368;33.64;185;04.03.55.311
12876;170367;33.64;186;04.03.55.311
12888;170363;33.64;187;04.03.55.311
12860;170362;33.64;188;04.03.55.311
12896;170363;33.64;189;04.03.55.311
12884;170363;33.64;190;04.03.55.322
12904;170369;33.64;191;04.03.55.322
12892;170369;33.64;192;04.03.55.322
12892;170370;33.64;193;04.03.55.322
12860;170361;33.64;194;04.03.55.322
12876;170357;33.64;195;04.03.55.322
12896;170365;33.64;196;04.03.55.322
12896;170362;33.64;197;04.03.55.322
12892;170367;33.64;198;04.03.55.322
12912;170358;33.64;199;04.03.55.322
12908;170367;33.64;200;04.03.55.433
12892;170362;33.64;201;04.03.55.433
12888;170368;33.64;202;04.03.55.433
12876;170366;33.64;203;04.03.55.433
12896;170361;33.64;204;04.03.55.433
12888;170361;33.64;205;04.03.55.433
12900;170359;33.64;206;04.03.55.433
12884;170362;33.64;207;04.03.55.433
12888;170364;33.64;208;04.03.55.433
12904;170359;33.64;209;04.03.55.433
12884;170367;33.64;210;04.03.55.433
12880;170361;33.64;211;04.03.55.433
12884;170362;33.64;212;04.03.55.433
12896;170359;33.64;213;04.03.55.444
12860;170353;33.64;214;04.03.55.444
12900;170361;33.64;215;04.03.55.444
12896;170355;33.64;216;04.03.55.444
12880;170355;33.64;217;04.03.55.455
12876;170358;33.64;218;04.03.55.455
12908;170360;33.64;219;04.03.55.455
12912;170362;33.64;220;04.03.55.455
12884;170360;33.64;221;04.03.55.455
12896;170358;33.64;222;04.03.55.455
12892;170361;33.64;223;04.03.55.455
12916;170360;33.64;224;04.03.55.455
12896;170365;33.64;225;04.03.55.564
12900;170355;33.64;226;04.03.55.564
12888;170365;33.64;227;04.03.55.564
12892;170361;33.64;228;04.03.55.564
12880;170366;33.64;229;04.03.55.564
12876;170365;33.64;230;04.03.55.564
12896;170371;33.64;231;04.03.55.564
12904;170374;33.64;232;04.03.55.564
12896;170372;33.64;233;04.03.55.575
12872;170374;33.64;234;04.03.55.575
12868;170374;33.64;235;04.03.55.575
12888;170382;33.64;236;04.03.55.575
12876;170378;33.64;237;04.03.55.575
12888;170386;33.64;238;04.03.55.575
12876;170373;33.64;239;04.03.55.575
12884;170383;33.64;240;04.03.55.575
12868;170377;33.64;241;04.03.55.575
12908;170383;33.64;242;04.03.55.575
12928;170380;33.64;243;04.03.55.575
12884;170393;33.64;244;04.03.55.575
12920;170389;33.64;245;04.03.55.575
12892;170392;33.64;246;04.03.55.586
12888;170391;33.64;247;04.03.55.586
12896;170387;33.64;248;04.03.55.586
12916;170386;33.64;249;04.03.55.586
12928;170389;33.64;250;04.03.55.695
12900;170385;33.64;251;04.03.55.695
12892;170399;33.64;252;04.03.55.695
12916;170387;33.64;253;04.03.55.705
12860;170400;33.64;254;04.03.55.705
12896;170395;33.64;255;04.03.55.705
12912;170400;33.64;256;04.03.55.705
12880;170401;33.64;257;04.03.55.705
12904;170391;33.64;258;04.03.55.705
12860;170398;33.64;259;04.03.55.705
12892;170402;33.64;260;04.03.55.705
12888;170397;33.64;261;04.03.55.705
12876;170397;33.64;262;04.03.55.705
12904;170408;33.64;263;04.03.55.705
12908;170412;33.64;264;04.03.55.705
12904;170412;33.64;265;04.03.55.705
12884;170405;33.64;266;04.03.55.716
12884;170408;33.64;267;04.03.55.716
12880;170409;33.64;268;04.03.55.716
12880;170410;33.64;269;04.03.55.716
12904;170412;33.64;270;04.03.55.716
12916;170409;33.64;271;04.03.55.716
12900;170407;33.64;272;04.03.55.716
12892;170413;33.64;273;04.03.55.716
12928;170412;33.64;274;04.03.55.716
12920;170409;33.64;275;04.03.55.804
12892;170407;33.64;276;04.03.55.804
12896;170404;33.64;277;04.03.55.804
12908;170416;33.64;278;04.03.55.804
12876;170417;33.64;279;04.03.55.804
12868;170416;33.64;280;04.03.55.804
12860;170417;33.64;281;04.03.55.804
12896;170416;33.64;282;04.03.55.804
12884;170418;33.64;283;04.03.55.804
12884;170423;33.64;284;04.03.55.804
12860;170424;33.64;285;04.03.55.804
12884;170425;33.64;286;04.03.55.804
12900;170430;33.64;287;04.03.55.815
12888;170432;33.64;288;04.03.55.815
12916;170427;33.64;289;04.03.55.815
12888;170433;33.64;290;04.03.55.815
12908;170424;33.64;291;04.03.55.815
12880;170434;33.64;292;04.03.55.815
12908;170434;33.64;293;04.03.55.815
12896;170441;33.64;294;04.03.55.815
12880;170443;33.64;295;04.03.55.815
12896;170437;33.64;296;04.03.55.815
12880;170435;33.64;297;04.03.55.815
12888;170436;33.64;298;04.03.55.815
12904;170442;33.64;299;04.03.55.815
12888;170451;33.64;300;04.03.55.924
12884;170453;33.64;301;04.03.55.924
12888;170438;33.64;302;04.03.55.924
12884;170449;33.64;303;04.03.55.924
12912;170446;33.64;304;04.03.55.924
12888;170444;33.64;305;04.03.55.924
12888;170452;33.64;306;04.03.55.924
12888;170452;33.64;307;04.03.55.924
12896;170461;33.64;308;04.03.55.935
12920;170453;33.64;309;04.03.55.935
12904;170460;33.64;310;04.03.55.935
12896;170470;33.64;311;04.03.55.935
12904;170459;33.64;312;04.03.55.935
12880;170470;33.64;313;04.03.55.935
12880;170463;33.64;314;04.03.55.935
12892;170456;33.64;315;04.03.55.935
12884;170456;33.64;316;04.03.55.935
12896;170456;33.64;317;04.03.55.935
12896;170457;33.64;318;04.03.55.935
12880;170449;33.64;319;04.03.55.935
12892;170447;33.64;320;04.03.55.935
12896;170453;33.64;321;04.03.55.946
12880;170443;33.64;322;04.03.55.946
12884;170435;33.64;323;04.03.55.946
12896;170438;33.64;324;04.03.55.946
12888;170426;33.64;325;04.03.56.056
12860;170428;33.64;326;04.03.56.056
12880;170432;33.64;327;04.03.56.056
12916;170420;33.64;328;04.03.56.056
12860;170412;33.64;329;04.03.56.067
12872;170416;33.64;330;04.03.56.067
12908;170407;33.64;331;04.03.56.067
12892;170404;33.64;332;04.03.56.067
12888;170404;33.64;333;04.03.56.067
12892;170399;33.64;334;04.03.56.067
12896;170393;33.64;335;04.03.56.067
12876;170398;33.64;336;04.03.56.067
12912;170389;33.64;337;04.03.56.067
12892;170388;33.64;338;04.03.56.067
12888;170393;33.64;339;04.03.56.067
12880;170386;33.64;340;04.03.56.067
12900;170387;33.64;341;04.03.56.067
12904;170385;33.64;342;04.03.56.078
12896;170389;33.64;343;04.03.56.078
12892;170381;33.64;344;04.03.56.078
12900;170391;33.64;345;04.03.56.078
12900;170381;33.64;346;04.03.56.078
12900;170380;33.64;347;04.03.56.078
12900;170381;33.64;348;04.03.56.078
12928;170388;33.64;349;04.03.56.078
12888;170376;33.64;350;04.03.56.187
12892;170381;33.64;351;04.03.56.198
12884;170374;33.64;352;04.03.56.198
12908;170376;33.64;353;04.03.56.198
12900;170381;33.64;354;04.03.56.198
12896;170366;33.64;355;04.03.56.198
12860;170374;33.64;356;04.03.56.198
12896;170364;33.64;357;04.03.56.198
12876;170362;33.64;358;04.03.56.198
12884;170369;33.64;359;04.03.56.198
12864;170372;33.64;360;04.03.56.198
12896;170372;33.64;361;04.03.56.198
12868;170373;33.64;362;04.03.56.198
12912;170365;33.64;363;04.03.56.209
12900;170368;33.64;364;04.03.56.209
12896;170369;33.64;365;04.03.56.209
12900;170369;33.64;366;04.03.56.209
12888;170379;33.64;367;04.03.56.209
12900;170371;33.64;368;04.03.56.209
12860;170373;33.64;369;04.03.56.209
12896;170374;33.64;370;04.03.56.209
12924;170378;33.64;371;04.03.56.209
12928;170375;33.64;372;04.03.56.209
12888;170374;33.64;373;04.03.56.209
12928;170370;33.64;374;04.03.56.209
12896;170373;33.64;375;04.03.56.308
12904;170372;33.64;376;04.03.56.308
12908;170371;33.64;377;04.03.56.308
12896;170368;33.64;378;04.03.56.308
12912;170369;33.64;379;04.03.56.308
12896;170364;33.64;380;04.03.56.308
12876;170371;33.64;381;04.03.56.308
12876;170369;33.64;382;04.03.56.308
12880;170369;33.64;383;04.03.56.330
12884;170368;33.64;384;04.03.56.330
12892;170368;33.64;385;04.03.56.330
12904;170366;33.64;386;04.03.56.330
12880;170373;33.64;387;04.03.56.330
12872;170360;33.64;388;04.03.56.330
12896;170358;33.64;389;04.03.56.330
12860;170367;33.64;390;04.03.56.330
12896;170360;33.64;391;04.03.56.330
12888;170368;33.64;392;04.03.56.330
12912;170366;33.64;393;04.03.56.349
12928;170371;33.64;394;04.03.56.349
12912;170372;33.64;395;04.03.56.349
12880;170370;33.64;396;04.03.56.349
12912;170370;33.64;397;04.03.56.349
12888;170373;33.64;398;04.03.56.349
12900;170371;33.64;399;04.03.56.349
12892;170368;33.64;400;04.03.56.437
12888;170372;33.64;401;04.03.56.437
12884;170371;33.64;402;04.03.56.448
12876;170375;33.64;403;04.03.56.448
12896;170379;33.64;404;04.03.56.448
12896;170376;33.64;405;04.03.56.448
12912;170367;33.64;406;04.03.56.448
12904;170369;33.64;407;04.03.56.448
12904;170373;33.64;408;04.03.56.470
12912;170376;33.64;409;04.03.56.470
12872;170378;33.64;410;04.03.56.480
12884;170376;33.64;411;04.03.56.480
12888;170387;33.64;412;04.03.56.480
12892;170385;33.64;413;04.03.56.480
12904;170378;33.64;414;04.03.56.480
12884;170387;33.64;415;04.03.56.480
12892;170374;33.64;416;04.03.56.480
12876;170390;33.64;417;04.03.56.480
12896;170385;33.64;418;04.03.56.480
12908;170387;33.64;419;04.03.56.480
12912;170386;33.64;420;04.03.56.480
12888;170402;33.64;421;04.03.56.480
12888;170392;33.64;422;04.03.56.480
12888;170390;33.64;423;04.03.56.491
12924;170389;33.64;424;04.03.56.491
12876;170394;33.64;425;04.03.56.579
12892;170382;33.64;426;04.03.56.579
12880;170397;33.64;427;04.03.56.579
12860;170393;33.64;428;04.03.56.579
12912;170397;33.64;429;04.03.56.579
12892;170397;33.64;430;04.03.56.579
12888;170399;33.64;431;04.03.56.579
12896;170395;33.64;432;04.03.56.579
12928;170401;33.64;433;04.03.56.590
12884;170403;33.64;434;04.03.56.590
12912;170404;33.64;435;04.03.56.590
12892;170407;33.64;436;04.03.56.590
12860;170406;33.64;437;04.03.56.590
12860;170397;33.64;438;04.03.56.590
12912;170407;33.64;439;04.03.56.590
12900;170406;33.64;440;04.03.56.590
12904;170407;33.64;441;04.03.56.590
12892;170404;33.64;442;04.03.56.622
12928;170412;33.64;443;04.03.56.622
12892;170410;33.64;444;04.03.56.622
12872;170413;33.64;445;04.03.56.622
12888;170410;33.64;446;04.03.56.622
12868;170411;33.64;447;04.03.56.622
12928;170418;33.64;448;04.03.56.622
12916;170420;33.64;449;04.03.56.622
12868;170420;33.64;450;04.03.56.699
12892;170416;33.64;451;04.03.56.699
12888;170418;33.64;452;04.03.56.699
12900;170422;33.64;453;04.03.56.699
12900;170423;33.64;454;04.03.56.699
12896;170424;33.64;455;04.03.56.699
12888;170430;33.64;456;04.03.56.699
12900;170418;33.64;457;04.03.56.710
12928;170426;33.64;458;04.03.56.710
12896;170428;33.64;459;04.03.56.710
12892;170430;33.64;460;04.03.56.710
12884;170427;33.64;461;04.03.56.710
12884;170429;33.64;462;04.03.56.710
12892;170436;33.64;463;04.03.56.710
12912;170432;33.64;464;04.03.56.721
12896;170432;33.64;465;04.03.56.721
12876;170435;33.64;466;04.03.56.721
12872;170432;33.64;467;04.03.56.743
12880;170439;33.64;468;04.03.56.743
12892;170439;33.64;469;04.03.56.743
12860;170445;33.64;470;04.03.56.743
12928;170443;33.64;471;04.03.56.743
12896;170435;33.64;472;04.03.56.743
12896;170440;33.64;473;04.03.56.754
12904;170444;33.64;474;04.03.56.754
12884;170440;33.64;475;04.03.56.798
12880;170443;33.64;476;04.03.56.798
12884;170438;33.64;477;04.03.56.798
12884;170434;33.64;478;04.03.56.809
12872;170445;33.64;479;04.03.56.809
12896;170438;33.64;480;04.03.56.809
12908;170446;33.64;481;04.03.56.809
12860;170440;33.64;482;04.03.56.809
12892;170445;33.64;483;04.03.56.809
12928;170456;33.64;484;04.03.56.809
12900;170444;33.64;485;04.03.56.809
12908;170450;33.64;486;04.03.56.809
12896;170443;33.64;487;04.03.56.809
12860;170442;33.64;488;04.03.56.809
12876;170443;33.64;489;04.03.56.809
12888;170429;33.64;490;04.03.56.809
12860;170425;33.64;491;04.03.56.820
12896;170418;33.64;492;04.03.56.820
12900;170421;33.64;493;04.03.56.820
12888;170417;33.64;494;04.03.56.820
12900;170414;33.64;495;04.03.56.820
12912;170407;33.64;496;04.03.56.820
12912;170404;33.64;497;04.03.56.820
12884;170403;33.64;498;04.03.56.820
12900;170392;33.64;499;04.03.56.820
12900;170396;33.64;500;04.03.56.929
12888;170398;33.64;501;04.03.56.929
12884;170394;33.64;502;04.03.56.929
12908;170388;33.64;503;04.03.56.929
12912;170383;33.64;504;04.03.56.929
12908;170380;33.64;505;04.03.56.929
12904;170381;33.64;506;04.03.56.929
12892;170380;33.64;507;04.03.56.929
12872;170392;33.64;508;04.03.56.929
12880;170379;33.64;509;04.03.56.929
12856;170378;33.64;510;04.03.56.929
12860;170378;33.64;511;04.03.56.940
12908;170366;33.64;512;04.03.56.940
12944;170375;33.64;513;04.03.56.940
12884;170371;33.64;514;04.03.56.940
12860;170376;33.64;515;04.03.56.940
12872;170373;33.64;516;04.03.56.940
12888;170374;33.64;517;04.03.56.940
12884;170363;33.64;518;04.03.56.940
12916;170368;33.64;519;04.03.56.940
12904;170371;33.64;520;04.03.56.940
12896;170372;33.64;521;04.03.56.940
12864;170354;33.64;522;04.03.56.940
12892;170360;33.64;523;04.03.56.940
12940;170364;33.64;524;04.03.56.951
12904;170360;33.60;525;04.03.57.071
12884;170369;33.60;526;04.03.57.071
12888;170368;33.60;527;04.03.57.071
12876;170356;33.60;528;04.03.57.071
12888;170357;33.60;529;04.03.57.071
12892;170359;33.60;530;04.03.57.071
12900;170358;33.60;531;04.03.57.071
12884;170359;33.60;532;04.03.57.082
12928;170353;33.60;533;04.03.57.082
12892;170356;33.60;534;04.03.57.082
12916;170354;33.60;535;04.03.57.082
12888;170351;33.60;536;04.03.57.082
12908;170348;33.60;537;04.03.57.082
12908;170354;33.60;538;04.03.57.082
12908;170357;33.60;539;04.03.57.082
12864;170353;33.60;540;04.03.57.082
12912;170349;33.60;541;04.03.57.093
12896;170358;33.60;542;04.03.57.104
12912;170348;33.60;543;04.03.57.104
12872;170345;33.60;544;04.03.57.104
12880;170353;33.60;545;04.03.57.104
12896;170350;33.60;546;04.03.57.104
12872;170350;33.60;547;04.03.57.104
12900;170353;33.60;548;04.03.57.104
12908;170341;33.60;549;04.03.57.115
12896;170351;33.60;550;04.03.57.192
12876;170358;33.60;551;04.03.57.192
12928;170355;33.60;552;04.03.57.192
12904;170351;33.60;553;04.03.57.192
12904;170349;33.60;554;04.03.57.203
12876;170352;33.60;555;04.03.57.203
12880;170347;33.60;556;04.03.57.203
12896;170350;33.60;557;04.03.57.203
12880;170347;33.60;558;04.03.57.203
12884;170348;33.60;559;04.03.57.203
12892;170340;33.60;560;04.03.57.203
12912;170350;33.60;561;04.03.57.203
12896;170353;33.60;562;04.03.57.203
12892;170352;33.60;563;04.03.57.203
12880;170344;33.60;564;04.03.57.203
12876;170348;33.60;565;04.03.57.203
12900;170343;33.60;566;04.03.57.214
12872;170348;33.60;567;04.03.57.214
12912;170349;33.60;568;04.03.57.214
12892;170343;33.60;569;04.03.57.214
12900;170355;33.60;570;04.03.57.214
12892;170350;33.60;571;04.03.57.224
12892;170349;33.60;572;04.03.57.224
12892;170357;33.60;573;04.03.57.224
12904;170359;33.60;574;04.03.57.224
12904;170359;33.64;575;04.03.57.345
12892;170364;33.64;576;04.03.57.345
12880;170355;33.64;577;04.03.57.345
12928;170362;33.64;578;04.03.57.345
12928;170360;33.64;579;04.03.57.345
12892;170372;33.64;580;04.03.57.345
12900;170364;33.64;581;04.03.57.345
12904;170371;33.64;582;04.03.57.345
12892;170367;33.64;583;04.03.57.345
12888;170376;33.64;584;04.03.57.345
12888;170368;33.64;585;04.03.57.345
12892;170379;33.64;586;04.03.57.345
12884;170372;33.64;587;04.03.57.355
12896;170377;33.64;588;04.03.57.355
12904;170375;33.64;589;04.03.57.355
12892;170376;33.64;590;04.03.57.355
12928;170375;33.64;591;04.03.57.355
12904;170379;33.64;592;04.03.57.378
12896;170382;33.64;593;04.03.57.378
12908;170380;33.64;594;04.03.57.378
12876;170390;33.64;595;04.03.57.378
12892;170386;33.64;596;04.03.57.378
12904;170394;33.64;597;04.03.57.378
12884;170381;33.64;598;04.03.57.378
12928;170387;33.64;599;04.03.57.378
12912;170381;33.64;600;04.03.57.433
12900;170388;33.64;601;04.03.57.433
12892;170392;33.64;602;04.03.57.433
12892;170390;33.64;603;04.03.57.433
12904;170384;33.64;604;04.03.57.433
12900;170387;33.64;605;04.03.57.433
12872;170401;33.64;606;04.03.57.433
12892;170390;33.64;607;04.03.57.433
12860;170393;33.64;608;04.03.57.433
12900;170401;33.64;609;04.03.57.443
12904;170396;33.64;610;04.03.57.443
12876;170403;33.64;611;04.03.57.443
12900;170402;33.64;612;04.03.57.443
12884;170406;33.64;613;04.03.57.443
12884;170399;33.64;614;04.03.57.443
12876;170408;33.64;615;04.03.57.443
12912;170409;33.64;616;04.03.57.443
12892;170410;33.64;617;04.03.57.465
12904;170407;33.64;618;04.03.57.465
12904;170415;33.64;619;04.03.57.465
12912;170417;33.64;620;04.03.57.465
12880;170412;33.64;621;04.03.57.465
12904;170405;33.64;622;04.03.57.465
12896;170406;33.64;623;04.03.57.465
12908;170400;33.64;624;04.03.57.465
12884;170412;33.64;625;04.03.57.553
12896;170411;33.64;626;04.03.57.553
12916;170413;33.64;627;04.03.57.553
12884;170412;33.64;628;04.03.57.564
12884;170413;33.64;629;04.03.57.564
12904;170412;33.64;630;04.03.57.564
12912;170418;33.64;631;04.03.57.564
12876;170423;33.64;632;04.03.57.564
12892;170423;33.64;633;04.03.57.564
12892;170425;33.64;634;04.03.57.564
12876;170429;33.64;635;04.03.57.564
12896;170430;33.64;636;04.03.57.564
12916;170427;33.64;637;04.03.57.564
12876;170433;33.64;638;04.03.57.564
12908;170423;33.64;639;04.03.57.575
12884;170426;33.64;640;04.03.57.575
12880;170429;33.64;641;04.03.57.575
12892;170432;33.64;642;04.03.57.575
12876;170425;33.64;643;04.03.57.575
12912;170432;33.64;644;04.03.57.575
12892;170435;33.64;645;04.03.57.575
12892;170430;33.64;646;04.03.57.575
12896;170432;33.64;647;04.03.57.575
12896;170438;33.64;648;04.03.57.575
12916;170441;33.64;649;04.03.57.575
12896;170443;33.64;650;04.03.57.684
12868;170441;33.64;651;04.03.57.695
12904;170444;33.64;652;04.03.57.695
12912;170446;33.64;653;04.03.57.695
12912;170443;33.64;654;04.03.57.695
12868;170442;33.64;655;04.03.57.695
12880;170444;33.64;656;04.03.57.695
12896;170442;33.64;657;04.03.57.695
12900;170438;33.64;658;04.03.57.695
12900;170433;33.64;659;04.03.57.695
12892;170433;33.64;660;04.03.57.695
12884;170427;33.64;661;04.03.57.695
12876;170429;33.64;662;04.03.57.695
12900;170429;33.64;663;04.03.57.695
12880;170424;33.64;664;04.03.57.706
12884;170419;33.64;665;04.03.57.706
12880;170412;33.64;666;04.03.57.706
12876;170404;33.64;667;04.03.57.706
12904;170397;33.64;668;04.03.57.706
12896;170396;33.64;669;04.03.57.706
12892;170392;33.64;670;04.03.57.706
12880;170392;33.64;671;04.03.57.706
12904;170387;33.64;672;04.03.57.706
12884;170379;33.64;673;04.03.57.706
12912;170379;33.64;674;04.03.57.706
12884;170369;33.64;675;04.03.57.805
12888;170365;33.64;676;04.03.57.805
12892;170378;33.64;677;04.03.57.805
12912;170371;33.64;678;04.03.57.805
12928;170359;33.64;679;04.03.57.805
12900;170370;33.64;680;04.03.57.805
12860;170365;33.64;681;04.03.57.805
12916;170356;33.64;682;04.03.57.805
12900;170350;33.64;683;04.03.57.817
12904;170356;33.64;684;04.03.57.817
12896;170358;33.64;685;04.03.57.817
12888;170359;33.64;686;04.03.57.817
12892;170357;33.64;687;04.03.57.817
12876;170350;33.64;688;04.03.57.817
12884;170358;33.64;689;04.03.57.817
12844;170349;33.64;690;04.03.57.817
12896;170337;33.64;691;04.03.57.817
12876;170355;33.64;692;04.03.57.817
12864;170350;33.64;693;04.03.57.817
12872;170348;33.64;694;04.03.57.828
12892;170351;33.64;695;04.03.57.828
12904;170358;33.64;696;04.03.57.828
12904;170349;33.64;697;04.03.57.828
12896;170341;33.64;698;04.03.57.828
12896;170347;33.64;699;04.03.57.828
12896;170337;33.64;700;04.03.57.927
12904;170344;33.64;701;04.03.57.927
12888;170337;33.64;702;04.03.57.927
12932;170344;33.64;703;04.03.57.927
12920;170334;33.64;704;04.03.57.927
12892;170336;33.64;705;04.03.57.927
12904;170333;33.64;706;04.03.57.927
12896;170333;33.64;707;04.03.57.927
12884;170332;33.64;708;04.03.57.938
12904;170331;33.64;709;04.03.57.938
12908;170331;33.64;710;04.03.57.938
12896;170346;33.64;711;04.03.57.938
12896;170340;33.64;712;04.03.57.938
12864;170334;33.64;713;04.03.57.938
12904;170343;33.64;714;04.03.57.938
12856;170334;33.64;715;04.03.57.938
12908;170336;33.64;716;04.03.57.938
12888;170339;33.64;717;04.03.57.938
12892;170334;33.64;718;04.03.57.938
12892;170328;33.64;719;04.03.57.938
12912;170329;33.64;720;04.03.57.938
12896;170328;33.64;721;04.03.57.949
12860;170325;33.64;722;04.03.57.949
12892;170327;33.64;723;04.03.57.949
12908;170321;33.64;724;04.03.57.949
12904;170330;33.64;725;04.03.58.047
12880;170326;33.64;726;04.03.58.047
12892;170331;33.64;727;04.03.58.047
12892;170333;33.64;728;04.03.58.047
12928;170317;33.64;729;04.03.58.058
12900;170330;33.64;730;04.03.58.058
12912;170318;33.64;731;04.03.58.058
12876;170323;33.64;732;04.03.58.058
12888;170322;33.64;733;04.03.58.058
12868;170324;33.64;734;04.03.58.058
12920;170322;33.64;735;04.03.58.058
12896;170328;33.64;736;04.03.58.058
12896;170326;33.64;737;04.03.58.058
12892;170332;33.64;738;04.03.58.058
12900;170318;33.64;739;04.03.58.070
12900;170321;33.64;740;04.03.58.070
12896;170325;33.64;741;04.03.58.070
12872;170327;33.64;742;04.03.58.070
12880;170333;33.64;743;04.03.58.070
12904;170327;33.64;744;04.03.58.070
12872;170331;33.64;745;04.03.58.070
12884;170324;33.64;746;04.03.58.070
12884;170329;33.64;747;04.03.58.070
12872;170344;33.64;748;04.03.58.070
12912;170336;33.64;749;04.03.58.070
12872;170331;33.64;750;04.03.58.180
12888;170335;33.64;751;04.03.58.180
12896;170334;33.64;752;04.03.58.191
12892;170340;33.64;753;04.03.58.191
12896;170341;33.64;754;04.03.58.191
12892;170343;33.64;755;04.03.58.191
12904;170334;33.64;756;04.03.58.191
12896;170336;33.64;757;04.03.58.191
12876;170338;33.64;758;04.03.58.191
12892;170334;33.64;759;04.03.58.191
12868;170340;33.64;760;04.03.58.191
12908;170346;33.64;761;04.03.58.191
12892;170342;33.64;762;04.03.58.191
12888;170346;33.64;763;04.03.58.191
12892;170343;33.64;764;04.03.58.202
12912;170341;33.64;765;04.03.58.202
12880;170350;33.64;766;04.03.58.202
12912;170349;33.64;767;04.03.58.202
12912;170346;33.64;768;04.03.58.202
12896;170352;33.64;769;04.03.58.202
12904;170349;33.64;770;04.03.58.202
12888;170352;33.64;771;04.03.58.202
12880;170349;33.64;772;04.03.58.202
12880;170353;33.64;773;04.03.58.202
12904;170351;33.64;774;04.03.58.202
12928;170363;33.64;775;04.03.58.323
12884;170360;33.64;776;04.03.58.323
12884;170359;33.64;777;04.03.58.323
12892;170352;33.64;778;04.03.58.323
12864;170360;33.64;779;04.03.58.323
12880;170364;33.64;780;04.03.58.323
12908;170364;33.64;781;04.03.58.323
12876;170371;33.64;782;04.03.58.323
12876;170362;33.64;783;04.03.58.323
12892;170366;33.64;784;04.03.58.323
12892;170365;33.64;785;04.03.58.323
12888;170365;33.64;786;04.03.58.323
12900;170360;33.64;787;04.03.58.334
12888;170372;33.64;788;04.03.58.334
12900;170375;33.64;789;04.03.58.334
12904;170372;33.64;790;04.03.58.334
12884;170383;33.64;791;04.03.58.334
12896;170383;33.64;792;04.03.58.334
12884;170389;33.64;793;04.03.58.334
12896;170388;33.64;794;04.03.58.334
12912;170376;33.64;795;04.03.58.334
12860;170380;33.64;796;04.03.58.334
12904;170388;33.64;797;04.03.58.334
12892;170384;33.64;798;04.03.58.334
12892;170380;33.64;799;04.03.58.345
12904;170377;33.64;800;04.03.58.432
12892;170383;33.64;801;04.03.58.432
12884;170388;33.64;802;04.03.58.432
12896;170387;33.64;803;04.03.58.432
12920;170386;33.64;804;04.03.58.432
12892;170391;33.64;805;04.03.58.432
12884;170394;33.64;806;04.03.58.432
12896;170387;33.64;807;04.03.58.432
12888;170396;33.64;808;04.03.58.454
12912;170394;33.64;809;04.03.58.454
12892;170400;33.64;810;04.03.58.454
12892;170399;33.64;811;04.03.58.454
12896;170399;33.64;812;04.03.58.454
12888;170408;33.64;813;04.03.58.454
12892;170408;33.64;814;04.03.58.465
12920;170407;33.64;815;04.03.58.465
12892;170398;33.64;816;04.03.58.465
12884;170401;33.64;817;04.03.58.476
12892;170410;33.64;818;04.03.58.476
12924;170412;33.64;819;04.03.58.476
12912;170409;33.64;820;04.03.58.476
12856;170403;33.64;821;04.03.58.476
12896;170413;33.64;822;04.03.58.476
12884;170410;33.64;823;04.03.58.476
12904;170412;33.64;824;04.03.58.487
12920;170410;33.60;825;04.03.58.553
12888;170402;33.60;826;04.03.58.553
12896;170403;33.60;827;04.03.58.553
12876;170402;33.60;828;04.03.58.553
12884;170402;33.60;829;04.03.58.564
12872;170406;33.60;830;04.03.58.564
12908;170404;33.60;831;04.03.58.564
12888;170379;33.60;832;04.03.58.564
12864;170385;33.60;833;04.03.58.564
12880;170372;33.60;834;04.03.58.564
12884;170370;33.60;835;04.03.58.564
12892;170373;33.60;836;04.03.58.564
12876;170371;33.60;837;04.03.58.564
12872;170364;33.60;838;04.03.58.575
12916;170358;33.60;839;04.03.58.575
12888;170362;33.60;840;04.03.58.575
12896;170361;33.60;841;04.03.58.575
12896;170359;33.60;842;04.03.58.575
12896;170350;33.60;843;04.03.58.575
12900;170342;33.60;844;04.03.58.575
12884;170347;33.60;845;04.03.58.575
12900;170343;33.60;846;04.03.58.575
12884;170342;33.60;847;04.03.58.575
12892;170337;33.60;848;04.03.58.575
12908;170332;33.60;849;04.03.58.575
12896;170339;33.60;850;04.03.58.685
12892;170328;33.60;851;04.03.58.685
12892;170329;33.60;852;04.03.58.685
12876;170337;33.60;853;04.03.58.685
12880;170339;33.60;854;04.03.58.685
12900;170330;33.60;855;04.03.58.685
12884;170328;33.60;856;04.03.58.685
12872;170333;33.60;857;04.03.58.685
12896;170329;33.60;858;04.03.58.685
12876;170327;33.60;859;04.03.58.685
12892;170330;33.60;860;04.03.58.685
12900;170332;33.60;861;04.03.58.685
12892;170328;33.60;862;04.03.58.685
12884;170327;33.60;863;04.03.58.685
12912;170332;33.60;864;04.03.58.697
12876;170326;33.60;865;04.03.58.697
12888;170327;33.60;866;04.03.58.697
12880;170325;33.60;867;04.03.58.697
12904;170325;33.60;868;04.03.58.697
12900;170320;33.60;869;04.03.58.708
12904;170317;33.60;870;04.03.58.708
12928;170319;33.60;871;04.03.58.708
12880;170310;33.60;872;04.03.58.708
12884;170313;33.60;873;04.03.58.708
12888;170322;33.60;874;04.03.58.708
12888;170320;33.60;875;04.03.58.819
12912;170324;33.60;876;04.03.58.819
12872;170320;33.60;877;04.03.58.819
12876;170319;33.60;878;04.03.58.819
12884;170322;33.60;879;04.03.58.819
12888;170318;33.60;880;04.03.58.819
12892;170319;33.60;881;04.03.58.819
12912;170315;33.60;882;04.03.58.819
12896;170317;33.60;883;04.03.58.819
12876;170321;33.60;884;04.03.58.819
12884;170312;33.60;885;04.03.58.819
12892;170322;33.60;886;04.03.58.819
12892;170325;33.60;887;04.03.58.819
12896;170323;33.60;888;04.03.58.830
12872;170322;33.60;889;04.03.58.830
12880;170316;33.60;890;04.03.58.830
12880;170317;33.60;891;04.03.58.830
12900;170314;33.60;892;04.03.58.830
12896;170314;33.60;893;04.03.58.830
12904;170324;33.60;894;04.03.58.830
12864;170316;33.60;895;04.03.58.830
12872;170321;33.60;896;04.03.58.830
12892;170315;33.60;897;04.03.58.830
12860;170323;33.60;898;04.03.58.830
12904;170318;33.60;899;04.03.58.830
12900;170312;33.60;900;04.03.58.951
12880;170318;33.60;901;04.03.58.951
12900;170317;33.60;902;04.03.58.951
12892;170319;33.60;903;04.03.58.951
12920;170317;33.60;904;04.03.58.951
12876;170318;33.60;905;04.03.58.951
12880;170322;33.60;906;04.03.58.951
12880;170319;33.60;907;04.03.58.951
12876;170329;33.60;908;04.03.58.951
12888;170331;33.60;909;04.03.58.951
12876;170324;33.60;910;04.03.58.962
12928;170329;33.60;911;04.03.58.962
12892;170342;33.60;912;04.03.58.962
12896;170327;33.60;913;04.03.58.962
12888;170325;33.60;914;04.03.58.962
12904;170324;33.60;915;04.03.58.962
12888;170336;33.60;916;04.03.58.962
12884;170335;33.60;917;04.03.58.962
12892;170337;33.60;918;04.03.58.962
12912;170331;33.60;919;04.03.58.962
12880;170344;33.60;920;04.03.58.962
12908;170346;33.60;921;04.03.58.962
12868;170330;33.60;922;04.03.58.962
12884;170337;33.60;923;04.03.58.973
12920;170333;33.60;924;04.03.58.973
12880;170341;33.60;925;04.03.59.050
12908;170335;33.60;926;04.03.59.050
12892;170342;33.60;927;04.03.59.050
12904;170342;33.60;928;04.03.59.050
12892;170338;33.60;929;04.03.59.050
12896;170349;33.60;930;04.03.59.050
12888;170345;33.60;931;04.03.59.061
12912;170344;33.60;932;04.03.59.061
12884;170347;33.60;933;04.03.59.061
12912;170355;33.60;934;04.03.59.061
12896;170348;33.60;935;04.03.59.061
12888;170365;33.60;936;04.03.59.061
12896;170371;33.60;937;04.03.59.061
12884;170361;33.60;938;04.03.59.061
12928;170364;33.60;939;04.03.59.061
12888;170363;33.60;940;04.03.59.072
12896;170357;33.60;941;04.03.59.072
12880;170366;33.60;942;04.03.59.083
12928;170366;33.60;943;04.03.59.083
12888;170365;33.60;944;04.03.59.083
12912;170373;33.60;945;04.03.59.083
12928;170365;33.60;946;04.03.59.083
12928;170376;33.60;947;04.03.59.083
12892;170370;33.60;948;04.03.59.094
12904;170377;33.60;949;04.03.59.094
12916;170373;33.60;950;04.03.59.170
12884;170371;33.60;951;04.03.59.181
12912;170371;33.60;952;04.03.59.181
12896;170380;33.60;953;04.03.59.181
12916;170375;33.60;954;04.03.59.181
12896;170375;33.60;955;04.03.59.181
12900;170380;33.60;956;04.03.59.181
12856;170372;33.60;957;04.03.59.181
12888;170368;33.60;958;04.03.59.181
12896;170377;33.60;959;04.03.59.181
12892;170386;33.60;960;04.03.59.181
12892;170386;33.60;961;04.03.59.192
12884;170386;33.60;962;04.03.59.192
12872;170389;33.60;963;04.03.59.192
12928;170386;33.60;964;04.03.59.192
12872;170388;33.60;965;04.03.59.192
12908;170386;33.60;966;04.03.59.192
12896;170387;33.60;967;04.03.59.192
12920;170393;33.60;968;04.03.59.192
12884;170391;33.60;969;04.03.59.192
12904;170388;33.60;970;04.03.59.192
12892;170394;33.60;971;04.03.59.192
12884;170395;33.60;972;04.03.59.192
12896;170390;33.60;973;04.03.59.192
12896;170398;33.60;974;04.03.59.203
12860;170392;33.60;975;04.03.59.313
12884;170391;33.60;976;04.03.59.313
12872;170401;33.60;977;04.03.59.313
12892;170401;33.60;978;04.03.59.313
12900;170396;33.60;979;04.03.59.313
12896;170395;33.60;980;04.03.59.313
12892;170394;33.60;981;04.03.59.313
12928;170398;33.60;982;04.03.59.313
12900;170386;33.60;983;04.03.59.313
12884;170385;33.60;984;04.03.59.313
12900;170383;33.60;985;04.03.59.313
12920;170374;33.60;986;04.03.59.324
12892;170372;33.60;987;04.03.59.324
12908;170378;33.60;988;04.03.59.324
12920;170376;33.60;989;04.03.59.324
12896;170367;33.60;990;04.03.59.324
12888;170359;33.60;991;04.03.59.324
12860;170360;33.60;992;04.03.59.324
12888;170365;33.60;993;04.03.59.324
12888;170359;33.60;994;04.03.59.324
12876;170356;33.60;995;04.03.59.324
12892;170341;33.60;996;04.03.59.324
12888;170337;33.60;997;04.03.59.324
12904;170346;33.60;998;04.03.59.324
12896;170344;33.60;999;04.03.59.324
12916;170335;33.60;000;04.03.59.468
12860;170339;33.60;001;04.03.59.468
12888;170332;33.60;002;04.03.59.468
12904;170325;33.60;003;04.03.59.468
12892;170337;33.60;004;04.03.59.468
12864;170324;33.60;005;04.03.59.468
12860;170323;33.60;006;04.03.59.468
12892;170331;33.60;007;04.03.59.468
12888;170316;33.60;008;04.03.59.490
12888;170321;33.60;009;04.03.59.490
12872;170327;33.60;010;04.03.59.490
12900;170332;33.60;011;04.03.59.490
12872;170324;33.60;012;04.03.59.490
12880;170325;33.60;013;04.03.59.490
12888;170326;33.60;014;04.03.59.490
12888;170326;33.60;015;04.03.59.490
12880;170323;33.60;016;04.03.59.501
12900;170315;33.60;017;04.03.59.501
12896;170320;33.60;018;04.03.59.501
12888;170319;33.60;019;04.03.59.501
12880;170315;33.60;020;04.03.59.501
12892;170317;33.60;021;04.03.59.501
12888;170310;33.60;022;04.03.59.501
12900;170309;33.60;023;04.03.59.501
12916;170315;33.60;024;04.03.59.501
12904;170317;33.60;025;04.03.59.555
12880;170320;33.60;026;04.03.59.555
12896;170315;33.60;027;04.03.59.555
12892;170315;33.60;028;04.03.59.555
12920;170322;33.60;029;04.03.59.555
12904;170325;33.60;030;04.03.59.555
12916;170321;33.60;031;04.03.59.566
12888;170323;33.60;032;04.03.59.566
12860;170325;33.60;033;04.03.59.577
12904;170325;33.60;034;04.03.59.577
12892;170320;33.60;035;04.03.59.577
12908;170322;33.60;036;04.03.59.577
12916;170324;33.60;037;04.03.59.577
12896;170320;33.60;038;04.03.59.588
12912;170324;33.60;039;04.03.59.588
12876;170319;33.60;040;04.03.59.588
12860;170317;33.60;041;04.03.59.588
12872;170320;33.60;042;04.03.59.588
12904;170323;33.60;043;04.03.59.588
12896;170324;33.60;044;04.03.59.588
12900;170322;33.60;045;04.03.59.588
12900;170327;33.60;046;04.03.59.588
12916;170315;33.60;047;04.03.59.588
12920;170321;33.60;048;04.03.59.588
12904;170321;33.60;049;04.03.59.588
12892;170319;33.60;050;04.03.59.676
12872;170324;33.60;051;04.03.59.687
12920;170316;33.60;052;04.03.59.687
12912;170311;33.60;053;04.03.59.687
12888;170317;33.60;054;04.03.59.687
12892;170319;33.60;055;04.03.59.687
12912;170318;33.60;056;04.03.59.687
12892;170322;33.60;057;04.03.59.687
12908;170322;33.60;058;04.03.59.687
12892;170323;33.60;059;04.03.59.687
12896;170324;33.60;060;04.03.59.687
12896;170324;33.60;061;04.03.59.698
12880;170326;33.60;062;04.03.59.698
12912;170332;33.60;063;04.03.59.698
12864;170331;33.60;064;04.03.59.698
12900;170322;33.60;065;04.03.59.698
12932;170323;33.60;066;04.03.59.698
12900;170332;33.60;067;04.03.59.709
12900;170332;33.60;068;04.03.59.720
12896;170336;33.60;069;04.03.59.720
12884;170330;33.60;070;04.03.59.720
12908;170332;33.60;071;04.03.59.720
12884;170336;33.60;072;04.03.59.720
12896;170341;33.60;073;04.03.59.720
12904;170342;33.60;074;04.03.59.720
12928;170338;33.60;075;04.03.59.808
12876;170336;33.60;076;04.03.59.808
12904;170341;33.60;077;04.03.59.808
12876;170336;33.60;078;04.03.59.808
12900;170340;33.60;079;04.03.59.808
12876;170343;33.60;080;04.03.59.808
12864;170343;33.60;081;04.03.59.808
12888;170343;33.60;082;04.03.59.808
12912;170344;33.60;083;04.03.59.808
12868;170341;33.60;084;04.03.59.808
12900;170346;33.60;085;04.03.59.808
12908;170341;33.60;086;04.03.59.819
12884;170345;33.60;087;04.03.59.819
12888;170341;33.60;088;04.03.59.819
12880;170354;33.60;089;04.03.59.819
12900;170351;33.60;090;04.03.59.819
12888;170353;33.60;091;04.03.59.819
12872;170352;33.60;092;04.03.59.819
12928;170349;33.60;093;04.03.59.819
12908;170351;33.60;094;04.03.59.819
12908;170355;33.60;095;04.03.59.819
12908;170354;33.60;096;04.03.59.819
12884;170356;33.60;097;04.03.59.819
12896;170362;33.60;098;04.03.59.819
12916;170358;33.60;099;04.03.59.829
12892;170359;33.60;100;04.03.59.939
12896;170357;33.60;101;04.03.59.939
12904;170361;33.60;102;04.03.59.939
12896;170355;33.60;103;04.03.59.939
12924;170366;33.60;104;04.03.59.939
12892;170356;33.60;105;04.03.59.939
12896;170364;33.60;106;04.03.59.950
12888;170363;33.60;107;04.03.59.950
12884;170364;33.60;108;04.03.59.950
12912;170360;33.60;109;04.03.59.950
12892;170371;33.60;110;04.03.59.950
12904;170369;33.60;111;04.03.59.950
12908;170371;33.60;112;04.03.59.950
12896;170367;33.60;113;04.03.59.950
12892;170364;33.60;114;04.03.59.950
12904;170370;33.60;115;04.03.59.961
12876;170380;33.60;116;04.03.59.961
12916;170373;33.60;117;04.03.59.961
12896;170370;33.60;118;04.03.59.961
12888;170376;33.60;119;04.03.59.961
12892;170383;33.60;120;04.03.59.961
12900;170371;33.60;121;04.03.59.961
12900;170378;33.60;122;04.03.59.961
12900;170385;33.60;123;04.03.59.961
12892;170375;33.60;124;04.03.59.961
12896;170368;33.60;125;04.04.00.070
12896;170362;33.60;126;04.04.00.070
12896;170365;33.60;127;04.04.00.082
12920;170366;33.60;128;04.04.00.082
12844;170364;33.60;129;04.04.00.082
12920;170358;33.60;130;04.04.00.082
12876;170350;33.60;131;04.04.00.082
12872;170348;33.60;132;04.04.00.082
12888;170347;33.60;133;04.04.00.082
12892;170335;33.60;134;04.04.00.082
12884;170341;33.60;135;04.04.00.082
12900;170335;33.60;136;04.04.00.082
12892;170329;33.60;137;04.04.00.082
12912;170323;33.60;138;04.04.00.082
12896;170332;33.60;139;04.04.00.082
12908;170322;33.60;140;04.04.00.082
12896;170320;33.60;141;04.04.00.082
12884;170317;33.60;142;04.04.00.093
12860;170314;33.60;143;04.04.00.093
12908;170321;33.60;144;04.04.00.093
12892;170311;33.60;145;04.04.00.104
12900;170304;33.60;146;04.04.00.104
12896;170311;33.60;147;04.04.00.104
12920;170310;33.60;148;04.04.00.104
12876;170314;33.60;149;04.04.00.104
12884;170313;33.60;150;04.04.00.180
12896;170312;33.60;151;04.04.00.180
12884;170316;33.60;152;04.04.00.180
12860;170306;33.60;153;04.04.00.180
12908;170311;33.60;154;04.04.00.180
12880;170313;33.60;155;04.04.00.180
12908;170311;33.60;156;04.04.00.180
12888;170307;33.60;157;04.04.00.180
12912;170306;33.60;158;04.04.00.191
12912;170309;33.60;159;04.04.00.191
12904;170303;33.60;160;04.04.00.191
12884;170314;33.60;161;04.04.00.191
12896;170303;33.60;162;04.04.00.191
12892;170311;33.60;163;04.04.00.191
12888;170303;33.60;164;04.04.00.191
12928;170299;33.60;165;04.04.00.191
12892;170302;33.60;166;04.04.00.191
12896;170297;33.60;167;04.04.00.224
12892;170298;33.60;168;04.04.00.224
12896;170304;33.60;169;04.04.00.224
12908;170309;33.60;170;04.04.00.224
12912;170296;33.60;171;04.04.00.224
12904;170303;33.60;172;04.04.00.224
12892;170307;33.60;173;04.04.00.224
12888;170308;33.60;174;04.04.00.224
12876;170303;33.64;175;04.04.00.301
12932;170310;33.64;176;04.04.00.301
12892;170310;33.64;177;04.04.00.301
12904;170303;33.64;178;04.04.00.301
12892;170302;33.64;179;04.04.00.301
12912;170304;33.64;180;04.04.00.301
12884;170305;33.64;181;04.04.00.301
12884;170310;33.64;182;04.04.00.301
12872;170308;33.64;183;04.04.00.301
12896;170310;33.64;184;04.04.00.312
12908;170310;33.64;185;04.04.00.312
12920;170306;33.64;186;04.04.00.312
12912;170310;33.64;187;04.04.00.312
12900;170306;33.64;188;04.04.00.312
12888;170306;33.64;189;04.04.00.312
12904;170303;33.64;190;04.04.00.312
12900;170306;33.64;191;04.04.00.312
12896;170301;33.64;192;04.04.00.312
12900;170298;33.64;193;04.04.00.312
12900;170304;33.64;194;04.04.00.312
12884;170302;33.64;195;04.04.00.312
12888;170306;33.64;196;04.04.00.312
12916;170303;33.64;197;04.04.00.323
12884;170314;33.64;198;04.04.00.323
12916;170303;33.64;199;04.04.00.323
12912;170314;33.64;200;04.04.00.432
12904;170314;33.64;201;04.04.00.432
12900;170314;33.64;202;04.04.00.432
12912;170312;33.64;203;04.04.00.432
12928;170312;33.64;204;04.04.00.432
12876;170312;33.64;205;04.04.00.443
12884;170315;33.64;206;04.04.00.443
12860;170306;33.64;207;04.04.00.443
12920;170311;33.64;208;04.04.00.443
12884;170308;33.64;209;04.04.00.443
12896;170312;33.64;210;04.04.00.443
12892;170316;33.64;211;04.04.00.443
12856;170315;33.64;212;04.04.00.443
12888;170322;33.64;213;04.04.00.443
12888;170322;33.64;214;04.04.00.443
12888;170322;33.64;215;04.04.00.443
12912;170313;33.64;216;04.04.00.443
12872;170321;33.64;217;04.04.00.443
12884;170327;33.64;218;04.04.00.454
12920;170311;33.64;219;04.04.00.454
12884;170320;33.64;220;04.04.00.454
12892;170327;33.64;221;04.04.00.454
12892;170329;33.64;222;04.04.00.454
12884;170336;33.64;223;04.04.00.454
12924;170330;33.64;224;04.04.00.454
12888;170324;33.64;225;04.04.00.586
12876;170328;33.64;226;04.04.00.586
12884;170333;33.64;227;04.04.00.586
12884;170338;33.64;228;04.04.00.586
12936;170339;33.64;229;04.04.00.586
12892;170343;33.64;230;04.04.00.586
12912;170337;33.64;231;04.04.00.586
12912;170339;33.64;232;04.04.00.586
12896;170343;33.64;233;04.04.00.586
12876;170343;33.64;234;04.04.00.586
12912;170341;33.64;235;04.04.00.597
12916;170341;33.64;236;04.04.00.597
12916;170350;33.64;237;04.04.00.597
12912;170337;33.64;238;04.04.00.597
12912;170346;33.64;239;04.04.00.597
12880;170346;33.64;240;04.04.00.597
12892;170353;33.64;241;04.04.00.597
12896;170352;33.64;242;04.04.00.619
12912;170358;33.64;243;04.04.00.619
12928;170353;33.64;244;04.04.00.619
12892;170352;33.64;245;04.04.00.619
12892;170351;33.64;246;04.04.00.619
12904;170358;33.64;247;04.04.00.619
12928;170363;33.64;248;04.04.00.619
12912;170353;33.64;249;04.04.00.619
12880;170361;33.64;250;04.04.00.687
12872;170356;33.64;251;04.04.00.687
12892;170357;33.64;252;04.04.00.687
12896;170367;33.64;253;04.04.00.687
12904;170371;33.64;254;04.04.00.687
12892;170363;33.64;255;04.04.00.687
12896;170367;33.64;256;04.04.00.687
12884;170365;33.64;257;04.04.00.687
12892;170360;33.64;258;04.04.00.698
12880;170365;33.64;259;04.04.00.698
12896;170367;33.64;260;04.04.00.698
12912;170366;33.64;261;04.04.00.698
12900;170364;33.64;262;04.04.00.698
12900;170371;33.64;263;04.04.00.698
12892;170363;33.64;264;04.04.00.698
12892;170366;33.64;265;04.04.00.698
12868;170368;33.64;266;04.04.00.698
12928;170362;33.64;267;04.04.00.698
12928;170362;33.64;268;04.04.00.698
12908;170351;33.64;269;04.04.00.698
12904;170350;33.64;270;04.04.00.709
12880;170347;33.64;271;04.04.00.709
12884;170344;33.64;272;04.04.00.709
12896;170340;33.64;273;04.04.00.709
12928;170334;33.64;274;04.04.00.709
12892;170333;33.60;275;04.04.00.807
12860;170330;33.60;276;04.04.00.807
12896;170324;33.60;277;04.04.00.807
12892;170328;33.60;278;04.04.00.807
12868;170323;33.60;279;04.04.00.807
12888;170326;33.60;280;04.04.00.807
12912;170323;33.60;281;04.04.00.807
12900;170315;33.60;282;04.04.00.818
12912;170314;33.60;283;04.04.00.818
12904;170311;33.60;284;04.04.00.818
12876;170308;33.60;285;04.04.00.818
12876;170305;33.60;286;04.04.00.818
12916;170309;33.60;287;04.04.00.818
12896;170305;33.60;288;04.04.00.818
12864;170311;33.60;289;04.04.00.818
12928;170306;33.60;290;04.04.00.818
12892;170305;33.60;291;04.04.00.818
12892;170304;33.60;292;04.04.00.840
12896;170298;33.60;293;04.04.00.840
12892;170312;33.60;294;04.04.00.840
12912;170300;33.60;295;04.04.00.840
12876;170305;33.60;296;04.04.00.840
12892;170308;33.60;297;04.04.00.840
12928;170316;33.60;298;04.04.00.840
12928;170305;33.60;299;04.04.00.840
12924;170302;33.60;300;04.04.00.928
12880;170304;33.60;301;04.04.00.928
12892;170295;33.60;302;04.04.00.928
12896;170298;33.60;303;04.04.00.928
12892;170304;33.60;304;04.04.00.928
12912;170301;33.60;305;04.04.00.939
12904;170304;33.60;306;04.04.00.939
12908;170297;33.60;307;04.04.00.939
12928;170304;33.60;308;04.04.00.939
12896;170300;33.60;309;04.04.00.939
12896;170295;33.60;310;04.04.00.939
12896;170300;33.60;311;04.04.00.939
12888;170304;33.60;312;04.04.00.939
12904;170302;33.60;313;04.04.00.939
12916;170302;33.60;314;04.04.00.939
12912;170300;33.60;315;04.04.00.939
12892;170298;33.60;316;04.04.00.939
12900;170305;33.60;317;04.04.00.950
12888;170307;33.60;318;04.04.00.950
12916;170308;33.60;319;04.04.00.950
12912;170305;33.60;320;04.04.00.950
12900;170303;33.60;321;04.04.00.950
12872;170303;33.60;322;04.04.00.961
12880;170308;33.60;323;04.04.00.961
12924;170303;33.60;324;04.04.00.961
12880;170302;33.64;325;04.04.01.060
12904;170307;33.64;326;04.04.01.071
12908;170310;33.64;327;04.04.01.071
12928;170304;33.64;328;04.04.01.071
12912;170305;33.64;329;04.04.01.071
12884;170309;33.64;330;04.04.01.071
12904;170305;33.64;331;04.04.01.071
12884;170298;33.64;332;04.04.01.071
12868;170304;33.64;333;04.04.01.071
12880;170307;33.64;334;04.04.01.071
12920;170308;33.64;335;04.04.01.071
12904;170308;33.64;336;04.04.01.071
12900;170312;33.64;337;04.04.01.071
12900;170312;33.64;338;04.04.01.071
12892;170309;33.64;339;04.04.01.082
12896;170315;33.64;340;04.04.01.082
12928;170307;33.64;341;04.04.01.082
12888;170310;33.64;342;04.04.01.082
12900;170314;33.64;343;04.04.01.082
12892;170305;33.64;344;04.04.01.082
12900;170315;33.64;345;04.04.01.082
12892;170309;33.64;346;04.04.01.082
12860;170317;33.64;347;04.04.01.082
12900;170313;33.64;348;04.04.01.082
12912;170320;33.64;349;04.04.01.082
12884;170319;33.64;350;04.04.01.202
12904;170320;33.64;351;04.04.01.202
12892;170324;33.64;352;04.04.01.202
12900;170325;33.64;353;04.04.01.202
12880;170327;33.64;354;04.04.01.202
12912;170324;33.64;355;04.04.01.202
12900;170330;33.64;356;04.04.01.202
12892;170331;33.64;357;04.04.01.202
12868;170331;33.64;358;04.04.01.202
12916;170341;33.64;359;04.04.01.202
12904;170332;33.64;360;04.04.01.202
12876;170339;33.64;361;04.04.01.213
12900;170325;33.64;362;04.04.01.213
12904;170339;33.64;363;04.04.01.213
12924;170333;33.64;364;04.04.01.213
12904;170338;33.64;365;04.04.01.213
12896;170345;33.64;366;04.04.01.213
12912;170339;33.64;367;04.04.01.213
12916;170334;33.64;368;04.04.01.213
12908;170342;33.64;369;04.04.01.213
12892;170345;33.64;370;04.04.01.213
12900;170345;33.64;371;04.04.01.213
12876;170342;33.64;372;04.04.01.213
12884;170343;33.64;373;04.04.01.213
12928;170343;33.64;374;04.04.01.224
12884;170342;33.60;375;04.04.01.312
12888;170344;33.60;376;04.04.01.312
12872;170339;33.60;377;04.04.01.312
12876;170346;33.60;378;04.04.01.312
12904;170349;33.60;379;04.04.01.312
12912;170348;33.60;380;04.04.01.312
12912;170354;33.60;381;04.04.01.312
12892;170351;33.60;382;04.04.01.323
12884;170351;33.60;383;04.04.01.334
12888;170361;33.60;384;04.04.01.334
12888;170364;33.60;385;04.04.01.334
12892;170367;33.60;386;04.04.01.334
12920;170354;33.60;387;04.04.01.334
12888;170356;33.60;388;04.04.01.344
12896;170370;33.60;389;04.04.01.344
12904;170368;33.60;390;04.04.01.344
12900;170369;33.60;391;04.04.01.344
12904;170369;33.60;392;04.04.01.344
12900;170370;33.60;393;04.04.01.344
12900;170373;33.60;394;04.04.01.344
12900;170378;33.60;395;04.04.01.344
12904;170374;33.60;396;04.04.01.344
12892;170372;33.60;397;04.04.01.344
12900;170367;33.60;398;04.04.01.344
12960;170374;33.60;399;04.04.01.355
12888;170374;33.60;400;04.04.01.421
12884;170374;33.60;401;04.04.01.421
12904;170381;33.60;402;04.04.01.421
12860;170380;33.60;403;04.04.01.432
12872;170390;33.60;404;04.04.01.432
12892;170389;33.60;405;04.04.01.432
12904;170391;33.60;406;04.04.01.432
12888;170396;33.60;407;04.04.01.432
12896;170391;33.60;408;04.04.01.432
12888;170389;33.60;409;04.04.01.432
12912;170391;33.60;410;04.04.01.432
12868;170396;33.60;411;04.04.01.432
12904;170391;33.60;412;04.04.01.432
12868;170390;33.60;413;04.04.01.432
12892;170388;33.60;414;04.04.01.432
12892;170385;33.60;415;04.04.01.432
12880;170376;33.60;416;04.04.01.443
12900;170384;33.60;417;04.04.01.443
12896;170376;33.60;418;04.04.01.443
12884;170374;33.60;419;04.04.01.443
12928;170365;33.60;420;04.04.01.443
12928;170357;33.60;421;04.04.01.443
12884;170354;33.60;422;04.04.01.443
12896;170349;33.60;423;04.04.01.443
12924;170344;33.60;424;04.04.01.443
12868;170343;33.64;425;04.04.01.563
12900;170338;33.64;426;04.04.01.563
12904;170332;33.64;427;04.04.01.563
12904;170334;33.64;428;04.04.01.563
12892;170337;33.64;429;04.04.01.563
12876;170328;33.64;430;04.04.01.563
12928;170321;33.64;431;04.04.01.563
12900;170324;33.64;432;04.04.01.563
12904;170323;33.64;433;04.04.01.563
12928;170330;33.64;434;04.04.01.563
12900;170320;33.64;435;04.04.01.563
12904;170309;33.64;436;04.04.01.574
12896;170317;33.64;437;04.04.01.574
12880;170319;33.64;438;04.04.01.574
12868;170318;33.64;439;04.04.01.574
12916;170317;33.64;440;04.04.01.574
12884;170315;33.64;441;04.04.01.574
12888;170323;33.64;442;04.04.01.574
12908;170313;33.64;443;04.04.01.574
12888;170314;33.64;444;04.04.01.574
12900;170308;33.64;445;04.04.01.574
12900;170313;33.64;446;04.04.01.574
12908;170310;33.64;447;04.04.01.574
12912;170312;33.64;448;04.04.01.585
12924;170305;33.64;449;04.04.01.585
12888;170308;33.64;450;04.04.01.695
12896;170309;33.64;451;04.04.01.695
12880;170304;33.64;452;04.04.01.695
12892;170305;33.64;453;04.04.01.695
12876;170298;33.64;454;04.04.01.695
12916;170306;33.64;455;04.04.01.695
12860;170301;33.64;456;04.04.01.695
12892;170313;33.64;457;04.04.01.706
12888;170307;33.64;458;04.04.01.706
12876;170305;33.64;459;04.04.01.706
12892;170307;33.64;460;04.04.01.706
12892;170312;33.64;461;04.04.01.706
12892;170308;33.64;462;04.04.01.706
12892;170307;33.64;463;04.04.01.706
12896;170310;33.64;464;04.04.01.706
12912;170309;33.64;465;04.04.01.706
12868;170305;33.64;466;04.04.01.706
12876;170298;33.64;467;04.04.01.706
12900;170291;33.64;468;04.04.01.706
12888;170298;33.64;469;04.04.01.706
12908;170305;33.64;470;04.04.01.717
12928;170298;33.64;471;04.04.01.717
12900;170307;33.64;472;04.04.01.717
12896;170306;33.64;473;04.04.01.717
12892;170313;33.64;474;04.04.01.717
12884;170300;33.64;475;04.04.01.803
12920;170298;33.64;476;04.04.01.803
12868;170301;33.64;477;04.04.01.803
12904;170303;33.64;478;04.04.01.814
12892;170298;33.64;479;04.04.01.814
12904;170302;33.64;480;04.04.01.814
12916;170302;33.64;481;04.04.01.814
12908;170299;33.64;482;04.04.01.814
12896;170304;33.64;483;04.04.01.825
12888;170293;33.64;484;04.04.01.825
12888;170304;33.64;485;04.04.01.836
12892;170298;33.64;486;04.04.01.836
12908;170302;33.64;487;04.04.01.836
12920;170295;33.64;488;04.04.01.836
12860;170303;33.64;489;04.04.01.836
12888;170306;33.64;490;04.04.01.836
12916;170307;33.64;491;04.04.01.836
12884;170303;33.64;492;04.04.01.836
12888;170311;33.64;493;04.04.01.836
12880;170306;33.64;494;04.04.01.836
12900;170305;33.64;495;04.04.01.836
12880;170305;33.64;496;04.04.01.836
12896;170313;33.64;497;04.04.01.836
12880;170304;33.64;498;04.04.01.847
12912;170320;33.64;499;04.04.01.847
12912;170315;33.64;500;04.04.01.967
12880;170323;33.64;501;04.04.01.967
12912;170321;33.64;502;04.04.01.967
12868;170316;33.64;503;04.04.01.967
12884;170321;33.64;504;04.04.01.967
12904;170322;33.64;505;04.04.01.967
12884;170320;33.64;506;04.04.01.967
12916;170318;33.64;507;04.04.01.967
12884;170323;33.64;508;04.04.01.967
12896;170328;33.64;509;04.04.01.967
12876;170327;33.64;510;04.04.01.967
12880;170327;33.64;511;04.04.01.978
12904;170324;33.64;512;04.04.01.978
12884;170323;33.64;513;04.04.01.978
12888;170323;33.64;514;04.04.01.978
12892;170329;33.64;515;04.04.01.978
12892;170330;33.64;516;04.04.01.978
12912;170335;33.64;517;04.04.01.978
12896;170336;33.64;518;04.04.01.978
12884;170331;33.64;519;04.04.01.978
12912;170333;33.64;520;04.04.01.978
12896;170341;33.64;521;04.04.01.978
12888;170334;33.64;522;04.04.01.978
12928;170336;33.64;523;04.04.01.978
12888;170340;33.64;524;04.04.01.989
12880;170330;33.60;525;04.04.02.054
12876;170334;33.60;526;04.04.02.054
12880;170334;33.60;527;04.04.02.054
12892;170341;33.60;528;04.04.02.054
12896;170348;33.60;529;04.04.02.054
12884;170346;33.60;530;04.04.02.054
12900;170345;33.60;531;04.04.02.065
12884;170340;33.60;532;04.04.02.065
12908;170350;33.60;533;04.04.02.065
12904;170345;33.60;534;04.04.02.065
12912;170350;33.60;535;04.04.02.065
12896;170348;33.60;536;04.04.02.065
12928;170350;33.60;537;04.04.02.065
12860;170352;33.60;538;04.04.02.065
12880;170350;33.60;539;04.04.02.065
12884;170347;33.60;540;04.04.02.065
12904;170359;33.60;541;04.04.02.065
12908;170361;33.60;542;04.04.02.065
12912;170352;33.60;543;04.04.02.065
12868;170350;33.60;544;04.04.02.065
12896;170354;33.60;545;04.04.02.076
12896;170352;33.60;546;04.04.02.076
12892;170361;33.60;547;04.04.02.076
12880;170358;33.60;548;04.04.02.076
12892;170355;33.60;549;04.04.02.076
12928;170368;33.60;550;04.04.02.185
12888;170366;33.60;551;04.04.02.185
12868;170372;33.60;552;04.04.02.196
12908;170375;33.60;553;04.04.02.196
12884;170377;33.60;554;04.04.02.196
12904;170377;33.60;555;04.04.02.196
12868;170373;33.60;556;04.04.02.196
12860;170372;33.60;557;04.04.02.196
12896;170376;33.60;558;04.04.02.196
12892;170370;33.60;559;04.04.02.196
12892;170371;33.60;560;04.04.02.196
12912;170371;33.60;561;04.04.02.196
12876;170368;33.60;562;04.04.02.196
12900;170366;33.60;563;04.04.02.196
12884;170367;33.60;564;04.04.02.196
12900;170362;33.60;565;04.04.02.206
12860;170349;33.60;566;04.04.02.206
12896;170356;33.60;567;04.04.02.206
12904;170347;33.60;568;04.04.02.206
12904;170346;33.60;569;04.04.02.206
12904;170346;33.60;570;04.04.02.206
12876;170334;33.60;571;04.04.02.206
12888;170332;33.60;572;04.04.02.206
12892;170335;33.60;573;04.04.02.206
12912;170326;33.60;574;04.04.02.206
12872;170331;33.60;575;04.04.02.305
12880;170326;33.60;576;04.04.02.305
12896;170313;33.60;577;04.04.02.305
12880;170314;33.60;578;04.04.02.305
12892;170313;33.60;579;04.04.02.305
12912;170310;33.60;580;04.04.02.305
12908;170301;33.60;581;04.04.02.305
12892;170307;33.60;582;04.04.02.305
12900;170315;33.60;583;04.04.02.338
12904;170303;33.60;584;04.04.02.338
12904;170310;33.60;585;04.04.02.338
12896;170302;33.60;586;04.04.02.338
12884;170302;33.60;587;04.04.02.338
12888;170291;33.60;588;04.04.02.338
12892;170294;33.60;589;04.04.02.338
12884;170308;33.60;590;04.04.02.338
12872;170304;33.60;591;04.04.02.338
12908;170303;33.60;592;04.04.02.338
12904;170306;33.60;593;04.04.02.338
12876;170297;33.60;594;04.04.02.349
12884;170307;33.60;595;04.04.02.349
12912;170307;33.60;596;04.04.02.349
12892;170300;33.60;597;04.04.02.349
12900;170301;33.60;598;04.04.02.349
12892;170298;33.60;599;04.04.02.349
12876;170302;33.60;600;04.04.02.426
12884;170293;33.60;601;04.04.02.426
12888;170300;33.60;602;04.04.02.426
12912;170303;33.60;603;04.04.02.426
12884;170306;33.60;604;04.04.02.426
12880;170300;33.60;605;04.04.02.426
12888;170302;33.60;606;04.04.02.426
12892;170298;33.60;607;04.04.02.437
12888;170296;33.60;608;04.04.02.437
12876;170303;33.60;609;04.04.02.437
12892;170304;33.60;610;04.04.02.437
12892;170296;33.60;611;04.04.02.437
12844;170296;33.60;612;04.04.02.437
12900;170297;33.60;613;04.04.02.437
12904;170295;33.60;614;04.04.02.437
12892;170293;33.60;615;04.04.02.437
12916;170300;33.60;616;04.04.02.437
12880;170294;33.60;617;04.04.02.437
12904;170299;33.60;618;04.04.02.437
12904;170299;33.60;619;04.04.02.437
12860;170293;33.60;620;04.04.02.448
12876;170293;33.60;621;04.04.02.448
12896;170295;33.60;622;04.04.02.448
12928;170293;33.60;623;04.04.02.448
12928;170297;33.60;624;04.04.02.448
12892;170291;33.60;625;04.04.02.546
12884;170294;33.60;626;04.04.02.546
12928;170294;33.60;627;04.04.02.546
12868;170293;33.60;628;04.04.02.557
12860;170293;33.60;629;04.04.02.557
12904;170284;33.60;630;04.04.02.557
12872;170288;33.60;631;04.04.02.557
12888;170287;33.60;632;04.04.02.557
12888;170284;33.60;633;04.04.02.557
12884;170289;33.60;634;04.04.02.557
12892;170279;33.60;635;04.04.02.557
12876;170282;33.60;636;04.04.02.557
12892;170294;33.60;637;04.04.02.568
12872;170293;33.60;638;04.04.02.568
12884;170300;33.60;639;04.04.02.568
12884;170291;33.60;640;04.04.02.568
12876;170297;33.60;641;04.04.02.568
12904;170294;33.60;642;04.04.02.568
12884;170303;33.60;643;04.04.02.568
12880;170306;33.60;644;04.04.02.568
12884;170297;33.60;645;04.04.02.568
12912;170300;33.60;646;04.04.02.579
12900;170302;33.60;647;04.04.02.579
12872;170303;33.60;648;04.04.02.579
12888;170306;33.60;649;04.04.02.579
12888;170312;33.60;650;04.04.02.689
12896;170305;33.60;651;04.04.02.689
12912;170305;33.60;652;04.04.02.689
12896;170311;33.60;653;04.04.02.689
12912;170319;33.60;654;04.04.02.689
12884;170315;33.60;655;04.04.02.689
12896;170310;33.60;656;04.04.02.689
12896;170311;33.60;657;04.04.02.689
12844;170314;33.60;658;04.04.02.689
12900;170315;33.60;659;04.04.02.689
12876;170316;33.60;660;04.04.02.689
12884;170317;33.60;661;04.04.02.689
12880;170320;33.60;662;04.04.02.689
12876;170319;33.60;663;04.04.02.700
12884;170320;33.60;664;04.04.02.700
12904;170327;33.60;665;04.04.02.700
12892;170325;33.60;666;04.04.02.700
12896;170328;33.60;667;04.04.02.700
12908;170327;33.60;668;04.04.02.700
12860;170328;33.60;669;04.04.02.700
12876;170329;33.60;670;04.04.02.700
12900;170331;33.60;671;04.04.02.700
12896;170328;33.60;672;04.04.02.700
12892;170328;33.60;673;04.04.02.700
12928;170338;33.60;674;04.04.02.700
12904;170330;33.60;675;04.04.02.821
12892;170341;33.60;676;04.04.02.821
12904;170338;33.60;677;04.04.02.821
12896;170331;33.60;678;04.04.02.821
12888;170336;33.60;679;04.04.02.821
12892;170344;33.60;680;04.04.02.821
12884;170332;33.60;681;04.04.02.821
12896;170342;33.60;682;04.04.02.821
12900;170336;33.60;683;04.04.02.832
12912;170351;33.60;684;04.04.02.832
12884;170341;33.60;685;04.04.02.832
12876;170347;33.60;686;04.04.02.832
12900;170342;33.60;687;04.04.02.832
12944;170347;33.60;688;04.04.02.832
12900;170347;33.60;689;04.04.02.832
12884;170346;33.60;690;04.04.02.832
12920;170345;33.60;691;04.04.02.832
12884;170346;33.60;692;04.04.02.832
12896;170340;33.60;693;04.04.02.832
12904;170345;33.60;694;04.04.02.832
12892;170361;33.60;695;04.04.02.832
12904;170349;33.60;696;04.04.02.843
12904;170365;33.60;697;04.04.02.843
12900;170360;33.60;698;04.04.02.843
12912;170364;33.60;699;04.04.02.843
12904;170365;33.60;700;04.04.02.952
12896;170367;33.60;701;04.04.02.952
12900;170365;33.60;702;04.04.02.952
12896;170359;33.60;703;04.04.02.952
12908;170364;33.60;704;04.04.02.952
12928;170370;33.60;705;04.04.02.952
12868;170375;33.60;706;04.04.02.963
12884;170376;33.60;707;04.04.02.963
12900;170375;33.60;708;04.04.02.963
12896;170376;33.60;709;04.04.02.963
12892;170377;33.60;710;04.04.02.963
12892;170375;33.60;711;04.04.02.963
12892;170370;33.60;712;04.04.02.963
12892;170379;33.60;713;04.04.02.963
12872;170379;33.60;714;04.04.02.963
12896;170387;33.60;715;04.04.02.963
12900;170374;33.60;716;04.04.02.963
12880;170365;33.60;717;04.04.02.996
12912;170373;33.60;718;04.04.02.996
12892;170375;33.60;719;04.04.02.996
12904;170366;33.60;720;04.04.02.996
12928;170362;33.60;721;04.04.02.996
12884;170362;33.60;722;04.04.03.007
12888;170353;33.60;723;04.04.03.007
12944;170357;33.60;724;04.04.03.007
12888;170348;33.64;725;04.04.03.051
12904;170353;33.64;726;04.04.03.062
12892;170342;33.64;727;04.04.03.062
12904;170337;33.64;728;04.04.03.062
12912;170340;33.64;729;04.04.03.062
12892;170337;33.64;730;04.04.03.062
12896;170328;33.64;731;04.04.03.062
12888;170324;33.64;732;04.04.03.062
12876;170325;33.64;733;04.04.03.062
12884;170310;33.64;734;04.04.03.062
12892;170310;33.64;735;04.04.03.062
12876;170303;33.64;736;04.04.03.062
12900;170316;33.64;737;04.04.03.062
12900;170307;33.64;738;04.04.03.073
12896;170297;33.64;739;04.04.03.073
12892;170299;33.64;740;04.04.03.073
12884;170296;33.64;741;04.04.03.073
12892;170294;33.64;742;04.04.03.073
12912;170297;33.64;743;04.04.03.073
12900;170294;33.64;744;04.04.03.073
12912;170293;33.64;745;04.04.03.073
12892;170291;33.64;746;04.04.03.073
12872;170296;33.64;747;04.04.03.073
12876;170292;33.64;748;04.04.03.073
12920;170286;33.64;749;04.04.03.073
12916;170291;33.64;750;04.04.03.182
12888;170295;33.64;751;04.04.03.182
12896;170285;33.64;752;04.04.03.182
12912;170288;33.64;753;04.04.03.182
12928;170288;33.64;754;04.04.03.182
12900;170282;33.64;755;04.04.03.182
12904;170285;33.64;756;04.04.03.182
12888;170291;33.64;757;04.04.03.182
12892;170285;33.64;758;04.04.03.182
12904;170275;33.64;759;04.04.03.182
12892;170281;33.64;760;04.04.03.193
12900;170274;33.64;761;04.04.03.193
12896;170272;33.64;762;04.04.03.193
12876;170272;33.64;763;04.04.03.193
12884;170281;33.64;764;04.04.03.193
12900;170276;33.64;765;04.04.03.193
12888;170273;33.64;766;04.04.03.193
12900;170277;33.64;767;04.04.03.193
12928;170269;33.64;768;04.04.03.193
12904;170284;33.64;769;04.04.03.193
12864;170269;33.64;770;04.04.03.193
12928;170279;33.64;771;04.04.03.193
12884;170273;33.64;772;04.04.03.193
12876;170275;33.64;773;04.04.03.204
12896;170286;33.64;774;04.04.03.204
12908;170285;33.60;775;04.04.03.314
12900;170278;33.60;776;04.04.03.314
12876;170278;33.60;777;04.04.03.314
12904;170278;33.60;778;04.04.03.314
12888;170273;33.60;779;04.04.03.314
12916;170274;33.60;780;04.04.03.314
12904;170268;33.60;781;04.04.03.325
12880;170270;33.60;782;04.04.03.325
12900;170270;33.60;783;04.04.03.325
12912;170273;33.60;784;04.04.03.325
12912;170273;33.60;785;04.04.03.325
12876;170273;33.60;786;04.04.03.325
12876;170274;33.60;787;04.04.03.325
12884;170279;33.60;788;04.04.03.325
12860;170266;33.60;789;04.04.03.325
12896;170278;33.60;790;04.04.03.325
12892;170277;33.60;791;04.04.03.325
12896;170272;33.60;792;04.04.03.325
12892;170274;33.60;793;04.04.03.325
12928;170284;33.60;794;04.04.03.335
12912;170274;33.60;795;04.04.03.335
12876;170277;33.60;796;04.04.03.335
12896;170279;33.60;797;04.04.03.335
12860;170283;33.60;798;04.04.03.335
12880;170292;33.60;799;04.04.03.335
12880;170284;33.60;800;04.04.03.423
12860;170291;33.60;801;04.04.03.423
12892;170285;33.60;802;04.04.03.423
12856;170285;33.60;803;04.04.03.434
12860;170289;33.60;804;04.04.03.434
12876;170290;33.60;805;04.04.03.434
12896;170297;33.60;806;04.04.03.434
12892;170293;33.60;807;04.04.03.434
12884;170295;33.60;808;04.04.03.444
12900;170287;33.60;809;04.04.03.444
12896;170298;33.60;810;04.04.03.455
12896;170292;33.60;811;04.04.03.455
12884;170297;33.60;812;04.04.03.455
12884;170298;33.60;813;04.04.03.455
12892;170305;33.60;814;04.04.03.455
12888;170299;33.60;815;04.04.03.455
12912;170310;33.60;816;04.04.03.455
12868;170303;33.60;817;04.04.03.455
12908;170313;33.60;818;04.04.03.455
12880;170312;33.60;819;04.04.03.455
12888;170312;33.60;820;04.04.03.455
12900;170313;33.60;821;04.04.03.455
12872;170310;33.60;822;04.04.03.455
12936;170317;33.60;823;04.04.03.466
12912;170316;33.60;824;04.04.03.466
12872;170316;33.64;825;04.04.03.554
12880;170296;33.64;826;04.04.03.554
12896;170311;33.64;827;04.04.03.554
12880;170317;33.64;828;04.04.03.554
12916;170321;33.64;829;04.04.03.554
12888;170321;33.64;830;04.04.03.554
12888;170317;33.64;831;04.04.03.554
12860;170324;33.64;832;04.04.03.554
12896;170319;33.64;833;04.04.03.554
12860;170325;33.64;834;04.04.03.554
12904;170322;33.64;835;04.04.03.554
12892;170330;33.64;836;04.04.03.565
12864;170321;33.64;837;04.04.03.565
12892;170325;33.64;838;04.04.03.565
12884;170323;33.64;839;04.04.03.565
12912;170331;33.64;840;04.04.03.565
12896;170327;33.64;841;04.04.03.565
12896;170323;33.64;842;04.04.03.565
12908;170332;33.64;843;04.04.03.565
12872;170336;33.64;844;04.04.03.565
12880;170330;33.64;845;04.04.03.565
12872;170326;33.64;846;04.04.03.565
12904;170332;33.64;847;04.04.03.565
12888;170326;33.64;848;04.04.03.565
12896;170340;33.64;849;04.04.03.576
12876;170335;33.64;850;04.04.03.675
12884;170339;33.64;851;04.04.03.675
12900;170335;33.64;852;04.04.03.675
12884;170326;33.64;853;04.04.03.675
12896;170334;33.64;854;04.04.03.675
12928;170340;33.64;855;04.04.03.675
12892;170344;33.64;856;04.04.03.675
12900;170345;33.64;857;04.04.03.686
12896;170346;33.64;858;04.04.03.686
12884;170342;33.64;859;04.04.03.686
12852;170345;33.64;860;04.04.03.686
12872;170345;33.64;861;04.04.03.686
12864;170350;33.64;862;04.04.03.686
12880;170347;33.64;863;04.04.03.686
12888;170348;33.64;864;04.04.03.686
12892;170349;33.64;865;04.04.03.686
12884;170351;33.64;866;04.04.03.686
12884;170363;33.64;867;04.04.03.686
12868;170354;33.64;868;04.04.03.686
12892;170358;33.64;869;04.04.03.687
12876;170355;33.64;870;04.04.03.687
12900;170347;33.64;871;04.04.03.698
12888;170355;33.64;872;04.04.03.698
12896;170360;33.64;873;04.04.03.698
12928;170365;33.64;874;04.04.03.698
12888;170369;33.64;875;04.04.03.807
12896;170373;33.64;876;04.04.03.807
12892;170373;33.64;877;04.04.03.807
12904;170369;33.64;878;04.04.03.807
12912;170371;33.64;879;04.04.03.818
12896;170369;33.64;880;04.04.03.818
12900;170366;33.64;881;04.04.03.818
12896;170368;33.64;882;04.04.03.818
12928;170375;33.64;883;04.04.03.818
12892;170377;33.64;884;04.04.03.818
12884;170384;33.64;885;04.04.03.818
12876;170381;33.64;886;04.04.03.818
12900;170383;33.64;887;04.04.03.818
12880;170388;33.64;888;04.04.03.818
12904;170382;33.64;889;04.04.03.818
12868;170371;33.64;890;04.04.03.818
12888;170370;33.64;891;04.04.03.818
12904;170359;33.64;892;04.04.03.829
12888;170366;33.64;893;04.04.03.829
12876;170369;33.64;894;04.04.03.829
12876;170352;33.64;895;04.04.03.829
12892;170342;33.64;896;04.04.03.829
12864;170345;33.64;897;04.04.03.829
12872;170336;33.64;898;04.04.03.829
12892;170337;33.64;899;04.04.03.829
12848;170331;33.64;900;04.04.03.950
12908;170327;33.64;901;04.04.03.950
12884;170318;33.64;902;04.04.03.950
12880;170321;33.64;903;04.04.03.950
12908;170319;33.64;904;04.04.03.950
12896;170306;33.64;905;04.04.03.950
12904;170304;33.64;906;04.04.03.950
12896;170307;33.64;907;04.04.03.950
12896;170309;33.64;908;04.04.03.950
12920;170305;33.64;909;04.04.03.950
12888;170295;33.64;910;04.04.03.950
12884;170298;33.64;911;04.04.03.950
12860;170299;33.64;912;04.04.03.961
12904;170293;33.64;913;04.04.03.961
12884;170286;33.64;914;04.04.03.961
12888;170283;33.64;915;04.04.03.961
12880;170296;33.64;916;04.04.03.961
12884;170290;33.64;917;04.04.03.961
12884;170282;33.64;918;04.04.03.961
12860;170285;33.64;919;04.04.03.961
12900;170290;33.64;920;04.04.03.961
12880;170287;33.64;921;04.04.03.961
12892;170277;33.64;922;04.04.03.961
12908;170278;33.64;923;04.04.03.961
12912;170278;33.64;924;04.04.03.961
12900;170276;33.64;925;04.04.04.087
12872;170272;33.64;926;04.04.04.087
12896;170275;33.64;927;04.04.04.087
12896;170280;33.64;928;04.04.04.098
12860;170271;33.64;929;04.04.04.098
12884;170267;33.64;930;04.04.04.098
12912;170280;33.64;931;04.04.04.098
12904;170277;33.64;932;04.04.04.098
12876;170273;33.64;933;04.04.04.098
12888;170267;33.64;934;04.04.04.098
12896;170266;33.64;935;04.04.04.098
12860;170267;33.64;936;04.04.04.098
12904;170269;33.64;937;04.04.04.098
12900;170270;33.64;938;04.04.04.098
12888;170267;33.64;939;04.04.04.098
12896;170267;33.64;940;04.04.04.098
12884;170270;33.64;941;04.04.04.109
12892;170272;33.64;942;04.04.04.109
12888;170270;33.64;943;04.04.04.109
12876;170274;33.64;944;04.04.04.109
12904;170268;33.64;945;04.04.04.109
12884;170273;33.64;946;04.04.04.109
12896;170273;33.64;947;04.04.04.109
12892;170271;33.64;948;04.04.04.109
12896;170261;33.64;949;04.04.04.109
12880;170261;33.64;950;04.04.04.186
12900;170265;33.64;951;04.04.04.186
12888;170269;33.64;952;04.04.04.186
12916;170266;33.64;953;04.04.04.186
12900;170267;33.64;954;04.04.04.186
12896;170266;33.64;955;04.04.04.186
12892;170264;33.64;956;04.04.04.186
12884;170264;33.64;957;04.04.04.186
12892;170265;33.64;958;04.04.04.186
12900;170258;33.64;959;04.04.04.187
12884;170261;33.64;960;04.04.04.198
12880;170264;33.64;961;04.04.04.198
12912;170266;33.64;962;04.04.04.198
12876;170268;33.64;963;04.04.04.198
12896;170256;33.64;964;04.04.04.198
12892;170264;33.64;965;04.04.04.198
12876;170268;33.64;966;04.04.04.198
12880;170268;33.64;967;04.04.04.209
12884;170265;33.64;968;04.04.04.209
12892;170261;33.64;969;04.04.04.220
12884;170269;33.64;970;04.04.04.220
12880;170267;33.64;971;04.04.04.220
12908;170260;33.64;972;04.04.04.220
12908;170269;33.64;973;04.04.04.220
12904;170270;33.64;974;04.04.04.220
12868;170276;33.60;975;04.04.04.308
12888;170270;33.60;976;04.04.04.308
12876;170275;33.60;977;04.04.04.308
12860;170274;33.60;978;04.04.04.308
12908;170272;33.60;979;04.04.04.308
12908;170278;33.60;980;04.04.04.308
12912;170279;33.60;981;04.04.04.308
12908;170288;33.60;982;04.04.04.308
12896;170289;33.60;983;04.04.04.308
12888;170285;33.60;984;04.04.04.308
12928;170274;33.60;985;04.04.04.308
12916;170287;33.60;986;04.04.04.319
12900;170280;33.60;987;04.04.04.319
12892;170285;33.60;988;04.04.04.319
12888;170285;33.60;989;04.04.04.319
12892;170284;33.60;990;04.04.04.319
12892;170285;33.60;991;04.04.04.319
12888;170289;33.60;992;04.04.04.319
12884;170296;33.60;993;04.04.04.319
12860;170294;33.60;994;04.04.04.319
12892;170295;33.60;995;04.04.04.319
12904;170290;33.60;996;04.04.04.319
12868;170296;33.60;997;04.04.04.319
12892;170291;33.60;998;04.04.04.319
12928;170303;33.60;999;04.04.04.330
12928;170303;33.60;000;04.04.04.440
12928;170302;33.60;001;04.04.04.440
12872;170305;33.60;002;04.04.04.440
12908;170311;33.60;003;04.04.04.440
12876;170314;33.60;004;04.04.04.440
12872;170305;33.60;005;04.04.04.440
12872;170309;33.60;006;04.04.04.440
12884;170309;33.60;007;04.04.04.440
12892;170312;33.60;008;04.04.04.451
12880;170306;33.60;009;04.04.04.451
12896;170314;33.60;010;04.04.04.451
12888;170313;33.60;011;04.04.04.451
12912;170318;33.60;012;04.04.04.451
12888;170317;33.60;013;04.04.04.451
12872;170307;33.60;014;04.04.04.451
12880;170310;33.60;015;04.04.04.461
12892;170319;33.60;016;04.04.04.461
12876;170311;33.60;017;04.04.04.461
12884;170316;33.60;018;04.04.04.461
12876;170317;33.60;019;04.04.04.461
12876;170318;33.60;020;04.04.04.461
12880;170322;33.60;021;04.04.04.461
12884;170313;33.60;022;04.04.04.461
12888;170319;33.60;023;04.04.04.461
12904;170319;33.60;024;04.04.04.461
12876;170327;33.60;025;04.04.04.549
12920;170321;33.60;026;04.04.04.549
12896;170323;33.60;027;04.04.04.549
12912;170330;33.60;028;04.04.04.549
12876;170329;33.60;029;04.04.04.560
12892;170331;33.60;030;04.04.04.560
12884;170326;33.60;031;04.04.04.560
12900;170324;33.60;032;04.04.04.560
12884;170327;33.60;033;04.04.04.571
12884;170327;33.60;034;04.04.04.571
12892;170330;33.60;035;04.04.04.571
12916;170328;33.60;036;04.04.04.571
12892;170336;33.60;037;04.04.04.571
12900;170335;33.60;038;04.04.04.571
12892;170326;33.60;039;04.04.04.583
12876;170338;33.60;040;04.04.04.583
12900;170346;33.60;041;04.04.04.583
12904;170335;33.60;042;04.04.04.583
12896;170345;33.60;043;04.04.04.583
12888;170339;33.60;044;04.04.04.583
12876;170336;33.60;045;04.04.04.583
12876;170344;33.60;046;04.04.04.583
12888;170349;33.60;047;04.04.04.583
12912;170343;33.60;048;04.04.04.583
12928;170342;33.60;049;04.04.04.583
12904;170348;33.60;050;04.04.04.671
12944;170355;33.60;051;04.04.04.682
12888;170348;33.60;052;04.04.04.682
12908;170351;33.60;053;04.04.04.682
12888;170353;33.60;054;04.04.04.682
12908;170353;33.60;055;04.04.04.682
12888;170355;33.60;056;04.04.04.682
