gsr; bvp; skt; skt2; Cont; time
12892;170163;33.68;750;03.58.48.366
12908;170179;33.68;751;03.58.48.382
12872;170185;33.68;752;03.58.48.382
12876;170181;33.68;753;03.58.48.382
12868;170185;33.68;754;03.58.48.382
12872;170190;33.68;755;03.58.48.382
12880;170195;33.68;756;03.58.48.382
12876;170196;33.68;757;03.58.48.382
12900;170200;33.68;758;03.58.48.382
12884;170201;33.68;759;03.58.48.382
12884;170214;33.68;760;03.58.48.382
12888;170210;33.68;761;03.58.48.382
12868;170219;33.68;762;03.58.48.382
12892;170214;33.68;763;03.58.48.382
12904;170228;33.68;764;03.58.48.382
12896;170224;33.68;765;03.58.48.382
12860;170224;33.68;766;03.58.48.382
12892;170231;33.68;767;03.58.48.382
12884;170225;33.68;768;03.58.48.382
12876;170210;33.68;769;03.58.48.383
12868;170213;33.68;770;03.58.48.383
12876;170205;33.68;771;03.58.48.383
12904;170197;33.68;772;03.58.48.394
12872;170188;33.68;773;03.58.48.394
12900;170179;33.68;774;03.58.48.394
12872;170175;33.68;775;03.58.48.487
12868;170164;33.68;776;03.58.48.487
12872;170156;33.68;777;03.58.48.487
12888;170158;33.68;778;03.58.48.487
12900;170147;33.68;779;03.58.48.487
12884;170153;33.68;780;03.58.48.487
12884;170142;33.68;781;03.58.48.487
12864;170142;33.68;782;03.58.48.487
12888;170140;33.68;783;03.58.48.497
12900;170151;33.68;784;03.58.48.497
12880;170157;33.68;785;03.58.48.497
12864;170154;33.68;786;03.58.48.497
12864;170150;33.68;787;03.58.48.497
12904;170153;33.68;788;03.58.48.497
12884;170156;33.68;789;03.58.48.497
12892;170153;33.68;790;03.58.48.497
12876;170146;33.68;791;03.58.48.497
12880;170138;33.68;792;03.58.48.508
12892;170129;33.68;793;03.58.48.508
12868;170121;33.68;794;03.58.48.508
12920;170115;33.68;795;03.58.48.508
12904;170082;33.68;796;03.58.48.508
12888;170046;33.68;797;03.58.48.508
12876;170019;33.68;798;03.58.48.508
12916;169982;33.68;799;03.58.48.508
12896;169962;33.76;800;03.58.48.607
12876;169943;33.76;801;03.58.48.607
12900;169930;33.76;802;03.58.48.607
12888;169924;33.76;803;03.58.48.607
12880;169905;33.76;804;03.58.48.607
12892;169901;33.76;805;03.58.48.607
12896;169900;33.76;806;03.58.48.607
12880;169887;33.76;807;03.58.48.607
12896;169871;33.76;808;03.58.48.618
12884;169867;33.76;809;03.58.48.618
12860;169864;33.76;810;03.58.48.618
12888;169857;33.76;811;03.58.48.618
12904;169862;33.76;812;03.58.48.618
12884;169855;33.76;813;03.58.48.618
12864;169854;33.76;814;03.58.48.618
12892;169853;33.76;815;03.58.48.618
12900;169868;33.76;816;03.58.48.618
12876;169860;33.76;817;03.58.48.618
12888;169867;33.76;818;03.58.48.618
12872;169868;33.76;819;03.58.48.618
12896;169874;33.76;820;03.58.48.618
12864;169872;33.76;821;03.58.48.629
12896;169868;33.76;822;03.58.48.629
12884;169866;33.76;823;03.58.48.629
12892;169861;33.76;824;03.58.48.629
12896;169867;33.76;825;03.58.48.727
12876;169871;33.76;826;03.58.48.727
12896;169865;33.76;827;03.58.48.738
12896;169869;33.76;828;03.58.48.738
12872;169867;33.76;829;03.58.48.738
12876;169860;33.76;830;03.58.48.738
12868;169855;33.76;831;03.58.48.738
12868;169860;33.76;832;03.58.48.738
12880;169853;33.76;833;03.58.48.738
12896;169847;33.76;834;03.58.48.738
12896;169832;33.76;835;03.58.48.738
12892;169823;33.76;836;03.58.48.738
12872;169824;33.76;837;03.58.48.738
12908;169801;33.76;838;03.58.48.738
12900;169804;33.76;839;03.58.48.738
12876;169779;33.76;840;03.58.48.738
12860;169771;33.76;841;03.58.48.738
12896;169757;33.76;842;03.58.48.749
12888;169741;33.76;843;03.58.48.749
12904;169715;33.76;844;03.58.48.749
12900;169697;33.76;845;03.58.48.749
12876;169675;33.76;846;03.58.48.749
12896;169660;33.76;847;03.58.48.749
12892;169627;33.76;848;03.58.48.749
12912;169608;33.76;849;03.58.48.749
12872;169592;33.68;850;03.58.48.880
12892;169565;33.68;851;03.58.48.880
12928;169540;33.68;852;03.58.48.880
12888;169512;33.68;853;03.58.48.880
12888;169501;33.68;854;03.58.48.880
12876;169489;33.68;855;03.58.48.880
12868;169479;33.68;856;03.58.48.880
12888;169471;33.68;857;03.58.48.880
12892;169455;33.68;858;03.58.48.880
12884;169435;33.68;859;03.58.48.880
12888;169431;33.68;860;03.58.48.880
12908;169416;33.68;861;03.58.48.880
12864;169418;33.68;862;03.58.48.891
12880;169405;33.68;863;03.58.48.891
12892;169401;33.68;864;03.58.48.891
12876;169403;33.68;865;03.58.48.891
12892;169394;33.68;866;03.58.48.891
12884;169396;33.68;867;03.58.48.891
12868;169395;33.68;868;03.58.48.891
12904;169400;33.68;869;03.58.48.891
12876;169405;33.68;870;03.58.48.891
12892;169405;33.68;871;03.58.48.891
12904;169400;33.68;872;03.58.48.891
12888;169397;33.68;873;03.58.48.891
12908;169407;33.68;874;03.58.48.891
12860;169391;33.68;875;03.58.49.012
12920;169392;33.68;876;03.58.49.012
12888;169394;33.68;877;03.58.49.012
12880;169384;33.68;878;03.58.49.012
12876;169378;33.68;879;03.58.49.012
12888;169362;33.68;880;03.58.49.012
12872;169352;33.68;881;03.58.49.012
12896;169341;33.68;882;03.58.49.012
12896;169322;33.68;883;03.58.49.023
12884;169313;33.68;884;03.58.49.023
12896;169305;33.68;885;03.58.49.023
12860;169292;33.68;886;03.58.49.023
12876;169295;33.68;887;03.58.49.023
12884;169274;33.68;888;03.58.49.023
12852;169284;33.68;889;03.58.49.023
12896;169275;33.68;890;03.58.49.023
12928;169259;33.68;891;03.58.49.023
12864;169268;33.68;892;03.58.49.023
12888;169250;33.68;893;03.58.49.023
12888;169256;33.68;894;03.58.49.023
12904;169252;33.68;895;03.58.49.023
12896;169259;33.68;896;03.58.49.034
12892;169273;33.68;897;03.58.49.034
12896;169280;33.68;898;03.58.49.034
12912;169283;33.68;899;03.58.49.034
12884;169294;33.72;900;03.58.49.100
12872;169313;33.72;901;03.58.49.100
12904;169333;33.72;902;03.58.49.100
12912;169351;33.72;903;03.58.49.100
12916;169362;33.72;904;03.58.49.100
12924;169385;33.72;905;03.58.49.111
12892;169404;33.72;906;03.58.49.111
12900;169408;33.72;907;03.58.49.111
12876;169416;33.72;908;03.58.49.111
12900;169432;33.72;909;03.58.49.111
12872;169428;33.72;910;03.58.49.111
12876;169437;33.72;911;03.58.49.111
12880;169449;33.72;912;03.58.49.111
12892;169450;33.72;913;03.58.49.111
12896;169462;33.72;914;03.58.49.111
12900;169470;33.72;915;03.58.49.111
12888;169482;33.72;916;03.58.49.111
12888;169485;33.72;917;03.58.49.111
12904;169495;33.72;918;03.58.49.122
12876;169489;33.72;919;03.58.49.122
12888;169493;33.72;920;03.58.49.122
12884;169506;33.72;921;03.58.49.122
12900;169503;33.72;922;03.58.49.122
12912;169519;33.72;923;03.58.49.122
12912;169515;33.72;924;03.58.49.122
12880;169517;33.72;925;03.58.49.220
12876;169522;33.72;926;03.58.49.231
12884;169525;33.72;927;03.58.49.231
12896;169529;33.72;928;03.58.49.231
12880;169531;33.72;929;03.58.49.231
12892;169532;33.72;930;03.58.49.231
12896;169535;33.72;931;03.58.49.231
12872;169540;33.72;932;03.58.49.231
12892;169539;33.72;933;03.58.49.231
12896;169545;33.72;934;03.58.49.231
12884;169539;33.72;935;03.58.49.231
12876;169538;33.72;936;03.58.49.231
12896;169540;33.72;937;03.58.49.231
12896;169541;33.72;938;03.58.49.231
12896;169528;33.72;939;03.58.49.231
12904;169538;33.72;940;03.58.49.243
12888;169533;33.72;941;03.58.49.243
12884;169523;33.72;942;03.58.49.243
12912;169532;33.72;943;03.58.49.243
12888;169528;33.72;944;03.58.49.243
12912;169524;33.72;945;03.58.49.243
12888;169512;33.72;946;03.58.49.243
12884;169521;33.72;947;03.58.49.243
12884;169509;33.72;948;03.58.49.243
12904;169518;33.72;949;03.58.49.243
12892;169516;33.76;950;03.58.49.363
12868;169509;33.76;951;03.58.49.363
12904;169514;33.76;952;03.58.49.363
12876;169513;33.76;953;03.58.49.363
12860;169507;33.76;954;03.58.49.363
12896;169511;33.76;955;03.58.49.363
12876;169509;33.76;956;03.58.49.363
12860;169507;33.76;957;03.58.49.363
12892;169512;33.76;958;03.58.49.363
12884;169510;33.76;959;03.58.49.363
12904;169524;33.76;960;03.58.49.374
12928;169522;33.76;961;03.58.49.374
12908;169526;33.76;962;03.58.49.374
12880;169516;33.76;963;03.58.49.374
12904;169515;33.76;964;03.58.49.374
12880;169526;33.76;965;03.58.49.374
12896;169526;33.76;966;03.58.49.374
12892;169526;33.76;967;03.58.49.374
12904;169532;33.76;968;03.58.49.374
12892;169529;33.76;969;03.58.49.374
12904;169533;33.76;970;03.58.49.374
12864;169535;33.76;971;03.58.49.374
12896;169532;33.76;972;03.58.49.374
12892;169532;33.76;973;03.58.49.384
12928;169535;33.76;974;03.58.49.384
12896;169537;33.76;975;03.58.49.494
12884;169525;33.76;976;03.58.49.494
12876;169525;33.76;977;03.58.49.494
12908;169538;33.76;978;03.58.49.494
12892;169534;33.76;979;03.58.49.494
12876;169534;33.76;980;03.58.49.505
12888;169531;33.76;981;03.58.49.505
12920;169539;33.76;982;03.58.49.505
12880;169533;33.76;983;03.58.49.505
12896;169535;33.76;984;03.58.49.505
12860;169525;33.76;985;03.58.49.505
12884;169540;33.76;986;03.58.49.505
12896;169535;33.76;987;03.58.49.505
12896;169545;33.76;988;03.58.49.505
12912;169529;33.76;989;03.58.49.505
12928;169546;33.76;990;03.58.49.505
12888;169540;33.76;991;03.58.49.505
12876;169549;33.76;992;03.58.49.505
12864;169546;33.76;993;03.58.49.516
12888;169545;33.76;994;03.58.49.516
12868;169547;33.76;995;03.58.49.516
12892;169547;33.76;996;03.58.49.516
12872;169544;33.76;997;03.58.49.516
12920;169555;33.76;998;03.58.49.516
12884;169558;33.76;999;03.58.49.516
12860;169550;33.72;000;03.58.49.636
12876;169557;33.72;001;03.58.49.647
12904;169554;33.72;002;03.58.49.647
12888;169551;33.72;003;03.58.49.647
12928;169564;33.72;004;03.58.49.647
12888;169565;33.72;005;03.58.49.647
12876;169566;33.72;006;03.58.49.647
12880;169563;33.72;007;03.58.49.647
12884;169570;33.72;008;03.58.49.647
12884;169564;33.72;009;03.58.49.647
12892;169576;33.72;010;03.58.49.647
12896;169568;33.72;011;03.58.49.647
12884;169568;33.72;012;03.58.49.647
12880;169579;33.72;013;03.58.49.647
12896;169577;33.72;014;03.58.49.658
12860;169578;33.72;015;03.58.49.658
12844;169579;33.72;016;03.58.49.658
12876;169582;33.72;017;03.58.49.669
12872;169587;33.72;018;03.58.49.680
12892;169589;33.72;019;03.58.49.680
12892;169597;33.72;020;03.58.49.680
12896;169588;33.72;021;03.58.49.680
12896;169597;33.72;022;03.58.49.680
12880;169603;33.72;023;03.58.49.680
12928;169605;33.72;024;03.58.49.680
12904;169604;33.72;025;03.58.49.735
12892;169602;33.72;026;03.58.49.735
12884;169605;33.72;027;03.58.49.735
12900;169608;33.72;028;03.58.49.735
12892;169601;33.72;029;03.58.49.735
12908;169611;33.72;030;03.58.49.735
12928;169608;33.72;031;03.58.49.735
12860;169596;33.72;032;03.58.49.735
12900;169592;33.72;033;03.58.49.746
12892;169589;33.72;034;03.58.49.746
12904;169584;33.72;035;03.58.49.746
12888;169575;33.72;036;03.58.49.746
12892;169569;33.72;037;03.58.49.746
12892;169546;33.72;038;03.58.49.746
12920;169549;33.72;039;03.58.49.746
12900;169555;33.72;040;03.58.49.746
12892;169545;33.72;041;03.58.49.746
12904;169531;33.72;042;03.58.49.767
12904;169530;33.72;043;03.58.49.767
12912;169531;33.72;044;03.58.49.767
12896;169523;33.72;045;03.58.49.767
12888;169515;33.72;046;03.58.49.767
12868;169516;33.72;047;03.58.49.767
12912;169522;33.72;048;03.58.49.767
12884;169510;33.72;049;03.58.49.767
12872;169507;33.72;050;03.58.49.855
12908;169510;33.72;051;03.58.49.855
12896;169506;33.72;052;03.58.49.855
12884;169501;33.72;053;03.58.49.855
12904;169499;33.72;054;03.58.49.855
12880;169499;33.72;055;03.58.49.855
12888;169497;33.72;056;03.58.49.855
12888;169493;33.72;057;03.58.49.866
12916;169502;33.72;058;03.58.49.866
12884;169495;33.72;059;03.58.49.866
12920;169497;33.72;060;03.58.49.866
12868;169492;33.72;061;03.58.49.866
12860;169492;33.72;062;03.58.49.866
12928;169499;33.72;063;03.58.49.866
12896;169494;33.72;064;03.58.49.866
12876;169488;33.72;065;03.58.49.866
12888;169491;33.72;066;03.58.49.866
12888;169493;33.72;067;03.58.49.866
12876;169490;33.72;068;03.58.49.866
12928;169484;33.72;069;03.58.49.866
12880;169489;33.72;070;03.58.49.877
12884;169493;33.72;071;03.58.49.877
12872;169496;33.72;072;03.58.49.877
12880;169484;33.72;073;03.58.49.877
12892;169478;33.72;074;03.58.49.877
12880;169484;33.72;075;03.58.49.986
12896;169485;33.72;076;03.58.49.986
12876;169484;33.72;077;03.58.49.997
12904;169487;33.72;078;03.58.49.997
12884;169491;33.72;079;03.58.49.997
12896;169487;33.72;080;03.58.49.997
12876;169497;33.72;081;03.58.49.997
12872;169492;33.72;082;03.58.49.997
12880;169496;33.72;083;03.58.49.997
12884;169498;33.72;084;03.58.49.997
12884;169499;33.72;085;03.58.49.997
12896;169504;33.72;086;03.58.49.997
12884;169497;33.72;087;03.58.49.997
12896;169499;33.72;088;03.58.49.997
12896;169504;33.72;089;03.58.49.997
12900;169507;33.72;090;03.58.49.997
12896;169505;33.72;091;03.58.50.008
12880;169502;33.72;092;03.58.50.008
12896;169505;33.72;093;03.58.50.008
12888;169496;33.72;094;03.58.50.008
12884;169498;33.72;095;03.58.50.008
12888;169500;33.72;096;03.58.50.008
12876;169492;33.72;097;03.58.50.008
12868;169489;33.72;098;03.58.50.008
12928;169485;33.72;099;03.58.50.008
12860;169481;33.72;100;03.58.50.107
12892;169488;33.72;101;03.58.50.107
12856;169482;33.72;102;03.58.50.107
12880;169487;33.72;103;03.58.50.107
12900;169488;33.72;104;03.58.50.107
12880;169491;33.72;105;03.58.50.107
12860;169487;33.72;106;03.58.50.107
12880;169495;33.72;107;03.58.50.107
12900;169488;33.72;108;03.58.50.140
12876;169500;33.72;109;03.58.50.140
12888;169496;33.72;110;03.58.50.140
12880;169495;33.72;111;03.58.50.140
12876;169492;33.72;112;03.58.50.140
12880;169488;33.72;113;03.58.50.140
12884;169500;33.72;114;03.58.50.140
12888;169499;33.72;115;03.58.50.140
12884;169503;33.72;116;03.58.50.140
12888;169505;33.72;117;03.58.50.140
12904;169497;33.72;118;03.58.50.140
12912;169495;33.72;119;03.58.50.140
12876;169504;33.72;120;03.58.50.151
12868;169509;33.72;121;03.58.50.151
12896;169510;33.72;122;03.58.50.151
12876;169513;33.72;123;03.58.50.151
12920;169515;33.72;124;03.58.50.151
12908;169514;33.72;125;03.58.50.250
12884;169525;33.72;126;03.58.50.250
12904;169522;33.72;127;03.58.50.250
12900;169518;33.72;128;03.58.50.250
12896;169527;33.72;129;03.58.50.250
12920;169527;33.72;130;03.58.50.250
12868;169525;33.72;131;03.58.50.250
12856;169525;33.72;132;03.58.50.250
12876;169528;33.72;133;03.58.50.282
12896;169526;33.72;134;03.58.50.282
12888;169528;33.72;135;03.58.50.282
12896;169528;33.72;136;03.58.50.282
12896;169537;33.72;137;03.58.50.282
12900;169525;33.72;138;03.58.50.282
12904;169545;33.72;139;03.58.50.282
12888;169531;33.72;140;03.58.50.282
12884;169540;33.72;141;03.58.50.293
12912;169548;33.72;142;03.58.50.293
12908;169549;33.72;143;03.58.50.293
12856;169541;33.72;144;03.58.50.293
12908;169547;33.72;145;03.58.50.293
12900;169539;33.72;146;03.58.50.293
12900;169551;33.72;147;03.58.50.293
12896;169547;33.72;148;03.58.50.293
12900;169547;33.72;149;03.58.50.293
12920;169560;33.72;150;03.58.50.359
12904;169559;33.72;151;03.58.50.359
12860;169558;33.72;152;03.58.50.370
12876;169568;33.72;153;03.58.50.370
12904;169561;33.72;154;03.58.50.370
12880;169561;33.72;155;03.58.50.370
12896;169564;33.72;156;03.58.50.370
12912;169568;33.72;157;03.58.50.370
12860;169562;33.72;158;03.58.50.370
12900;169564;33.72;159;03.58.50.370
12900;169570;33.72;160;03.58.50.370
12884;169570;33.72;161;03.58.50.370
12896;169567;33.72;162;03.58.50.370
12912;169571;33.72;163;03.58.50.370
12900;169581;33.72;164;03.58.50.370
12884;169576;33.72;165;03.58.50.370
12896;169577;33.72;166;03.58.50.370
12880;169575;33.72;167;03.58.50.381
12860;169573;33.72;168;03.58.50.381
12904;169578;33.72;169;03.58.50.381
12884;169585;33.72;170;03.58.50.381
12860;169577;33.72;171;03.58.50.381
12924;169582;33.72;172;03.58.50.381
12900;169587;33.72;173;03.58.50.381
12900;169585;33.72;174;03.58.50.381
12880;169596;33.72;175;03.58.50.501
12884;169588;33.72;176;03.58.50.501
12900;169592;33.72;177;03.58.50.501
12904;169602;33.72;178;03.58.50.501
12904;169596;33.72;179;03.58.50.501
12892;169594;33.72;180;03.58.50.501
12884;169598;33.72;181;03.58.50.501
12864;169599;33.72;182;03.58.50.501
12900;169599;33.72;183;03.58.50.501
12912;169588;33.72;184;03.58.50.501
12928;169588;33.72;185;03.58.50.501
12904;169583;33.72;186;03.58.50.501
12880;169572;33.72;187;03.58.50.512
12904;169575;33.72;188;03.58.50.512
12920;169568;33.72;189;03.58.50.512
12920;169555;33.72;190;03.58.50.512
12904;169555;33.72;191;03.58.50.512
12884;169550;33.72;192;03.58.50.512
12884;169539;33.72;193;03.58.50.512
12896;169534;33.72;194;03.58.50.512
12888;169530;33.72;195;03.58.50.512
12884;169515;33.72;196;03.58.50.512
12884;169519;33.72;197;03.58.50.512
12888;169507;33.72;198;03.58.50.512
12928;169507;33.72;199;03.58.50.512
12920;169500;33.72;200;03.58.50.611
12904;169498;33.72;201;03.58.50.611
12888;169490;33.72;202;03.58.50.611
12896;169493;33.72;203;03.58.50.611
12904;169489;33.72;204;03.58.50.611
12896;169478;33.72;205;03.58.50.611
12880;169479;33.72;206;03.58.50.611
12892;169479;33.72;207;03.58.50.611
12904;169480;33.72;208;03.58.50.644
12868;169479;33.72;209;03.58.50.644
12912;169474;33.72;210;03.58.50.644
12900;169478;33.72;211;03.58.50.644
12884;169477;33.72;212;03.58.50.644
12872;169481;33.72;213;03.58.50.644
12908;169473;33.72;214;03.58.50.644
12876;169480;33.72;215;03.58.50.644
12876;169478;33.72;216;03.58.50.655
12896;169477;33.72;217;03.58.50.677
12884;169479;33.72;218;03.58.50.677
12876;169478;33.72;219;03.58.50.677
12884;169485;33.72;220;03.58.50.677
12888;169484;33.72;221;03.58.50.677
12896;169474;33.72;222;03.58.50.677
12916;169476;33.72;223;03.58.50.677
12916;169486;33.72;224;03.58.50.677
12896;169478;33.72;225;03.58.50.732
12908;169466;33.72;226;03.58.50.732
12896;169482;33.72;227;03.58.50.732
12892;169482;33.72;228;03.58.50.732
12904;169485;33.72;229;03.58.50.732
12884;169482;33.72;230;03.58.50.732
12896;169477;33.72;231;03.58.50.743
12896;169477;33.72;232;03.58.50.743
12904;169474;33.72;233;03.58.50.743
12892;169479;33.72;234;03.58.50.743
12876;169483;33.72;235;03.58.50.743
12888;169485;33.72;236;03.58.50.743
12880;169485;33.72;237;03.58.50.743
12892;169482;33.72;238;03.58.50.743
12904;169486;33.72;239;03.58.50.754
12912;169492;33.72;240;03.58.50.754
12896;169484;33.72;241;03.58.50.754
12880;169486;33.72;242;03.58.50.764
12888;169490;33.72;243;03.58.50.764
12884;169494;33.72;244;03.58.50.764
12876;169496;33.72;245;03.58.50.764
12872;169490;33.72;246;03.58.50.764
12880;169496;33.72;247;03.58.50.775
12888;169488;33.72;248;03.58.50.775
12892;169496;33.72;249;03.58.50.775
12912;169496;33.72;250;03.58.50.863
12904;169495;33.72;251;03.58.50.863
12860;169488;33.72;252;03.58.50.874
12892;169488;33.72;253;03.58.50.874
12888;169490;33.72;254;03.58.50.874
12896;169498;33.72;255;03.58.50.874
12876;169492;33.72;256;03.58.50.874
12888;169484;33.72;257;03.58.50.874
12900;169488;33.72;258;03.58.50.874
12884;169498;33.72;259;03.58.50.874
12872;169489;33.72;260;03.58.50.874
12896;169490;33.72;261;03.58.50.885
12860;169494;33.72;262;03.58.50.885
12928;169485;33.72;263;03.58.50.885
12896;169488;33.72;264;03.58.50.885
12888;169486;33.72;265;03.58.50.885
12912;169487;33.72;266;03.58.50.885
12896;169499;33.72;267;03.58.50.907
12888;169495;33.72;268;03.58.50.918
12892;169497;33.72;269;03.58.50.918
12908;169499;33.72;270;03.58.50.918
12876;169492;33.72;271;03.58.50.918
12904;169505;33.72;272;03.58.50.918
12900;169502;33.72;273;03.58.50.918
12900;169499;33.72;274;03.58.50.918
12876;169503;33.72;275;03.58.50.995
12892;169510;33.72;276;03.58.50.995
12904;169514;33.72;277;03.58.50.995
12892;169519;33.72;278;03.58.50.995
12888;169511;33.72;279;03.58.50.995
12880;169513;33.72;280;03.58.50.995
12872;169524;33.72;281;03.58.50.995
12896;169510;33.72;282;03.58.50.995
12896;169528;33.72;283;03.58.50.995
12904;169520;33.72;284;03.58.50.995
12888;169522;33.72;285;03.58.50.995
12892;169521;33.72;286;03.58.51.006
12860;169525;33.72;287;03.58.51.006
12900;169523;33.72;288;03.58.51.006
12880;169532;33.72;289;03.58.51.006
12908;169523;33.72;290;03.58.51.006
12908;169530;33.72;291;03.58.51.006
12876;169525;33.72;292;03.58.51.006
12876;169535;33.72;293;03.58.51.006
12912;169527;33.72;294;03.58.51.006
12904;169526;33.72;295;03.58.51.006
12904;169526;33.72;296;03.58.51.006
12892;169531;33.72;297;03.58.51.006
12888;169537;33.72;298;03.58.51.006
12908;169538;33.72;299;03.58.51.017
12904;169539;33.72;300;03.58.51.127
12868;169539;33.72;301;03.58.51.127
12888;169539;33.72;302;03.58.51.127
12880;169542;33.72;303;03.58.51.127
12904;169546;33.72;304;03.58.51.127
12896;169548;33.72;305;03.58.51.127
12896;169552;33.72;306;03.58.51.127
12884;169553;33.72;307;03.58.51.137
12900;169558;33.72;308;03.58.51.137
12908;169562;33.72;309;03.58.51.137
12884;169566;33.72;310;03.58.51.137
12888;169561;33.72;311;03.58.51.137
12892;169557;33.72;312;03.58.51.137
12928;169563;33.72;313;03.58.51.137
12924;169567;33.72;314;03.58.51.137
12928;169567;33.72;315;03.58.51.137
12900;169574;33.72;316;03.58.51.137
12900;169577;33.72;317;03.58.51.137
12900;169581;33.72;318;03.58.51.137
12900;169579;33.72;319;03.58.51.137
12896;169578;33.72;320;03.58.51.148
12928;169583;33.72;321;03.58.51.148
12916;169587;33.72;322;03.58.51.148
12912;169591;33.72;323;03.58.51.148
12908;169590;33.72;324;03.58.51.148
12884;169597;33.72;325;03.58.51.270
12900;169595;33.72;326;03.58.51.270
12888;169598;33.72;327;03.58.51.270
12904;169597;33.72;328;03.58.51.270
12908;169608;33.72;329;03.58.51.281
12896;169603;33.72;330;03.58.51.281
12904;169604;33.72;331;03.58.51.281
12904;169604;33.72;332;03.58.51.281
12884;169600;33.72;333;03.58.51.281
12912;169599;33.72;334;03.58.51.281
12888;169593;33.72;335;03.58.51.281
12904;169595;33.72;336;03.58.51.281
12876;169584;33.72;337;03.58.51.281
12912;169581;33.72;338;03.58.51.281
12872;169577;33.72;339;03.58.51.281
12888;169567;33.72;340;03.58.51.281
12896;169563;33.72;341;03.58.51.281
12892;169555;33.72;342;03.58.51.281
12888;169549;33.72;343;03.58.51.292
12884;169544;33.72;344;03.58.51.292
12884;169539;33.72;345;03.58.51.292
12904;169536;33.72;346;03.58.51.292
12872;169533;33.72;347;03.58.51.292
12904;169534;33.72;348;03.58.51.292
12920;169534;33.72;349;03.58.51.292
12864;169522;33.72;350;03.58.51.347
12880;169524;33.72;351;03.58.51.358
12912;169526;33.72;352;03.58.51.358
12884;169527;33.72;353;03.58.51.358
12880;169525;33.72;354;03.58.51.358
12912;169520;33.72;355;03.58.51.358
12876;169520;33.72;356;03.58.51.358
12900;169525;33.72;357;03.58.51.358
12904;169508;33.72;358;03.58.51.358
12896;169508;33.72;359;03.58.51.358
12888;169512;33.72;360;03.58.51.358
12900;169509;33.72;361;03.58.51.358
12872;169512;33.72;362;03.58.51.358
12896;169511;33.72;363;03.58.51.358
12884;169508;33.72;364;03.58.51.369
12892;169503;33.72;365;03.58.51.369
12912;169510;33.72;366;03.58.51.369
12880;169503;33.72;367;03.58.51.369
12876;169515;33.72;368;03.58.51.369
12876;169509;33.72;369;03.58.51.369
12928;169510;33.72;370;03.58.51.369
12876;169507;33.72;371;03.58.51.369
12892;169511;33.72;372;03.58.51.369
12900;169517;33.72;373;03.58.51.369
12928;169508;33.72;374;03.58.51.369
12912;169516;33.72;375;03.58.51.488
12876;169511;33.72;376;03.58.51.488
12924;169506;33.72;377;03.58.51.488
12892;169507;33.72;378;03.58.51.488
12908;169510;33.72;379;03.58.51.488
12860;169514;33.72;380;03.58.51.488
12904;169510;33.72;381;03.58.51.488
12892;169509;33.72;382;03.58.51.488
12888;169512;33.72;383;03.58.51.488
12896;169518;33.72;384;03.58.51.499
12880;169524;33.72;385;03.58.51.499
12916;169524;33.72;386;03.58.51.499
12888;169531;33.72;387;03.58.51.499
12888;169529;33.72;388;03.58.51.499
12884;169533;33.72;389;03.58.51.499
12908;169536;33.72;390;03.58.51.499
12908;169536;33.72;391;03.58.51.499
12888;169537;33.72;392;03.58.51.499
12884;169538;33.72;393;03.58.51.499
12896;169541;33.72;394;03.58.51.499
12884;169554;33.72;395;03.58.51.499
12888;169550;33.72;396;03.58.51.499
12872;169540;33.72;397;03.58.51.510
12896;169547;33.72;398;03.58.51.510
12896;169542;33.72;399;03.58.51.510
12912;169548;33.76;400;03.58.51.619
12880;169542;33.76;401;03.58.51.619
12912;169552;33.76;402;03.58.51.619
12880;169544;33.76;403;03.58.51.619
12892;169538;33.76;404;03.58.51.619
12888;169545;33.76;405;03.58.51.630
12880;169541;33.76;406;03.58.51.630
12880;169538;33.76;407;03.58.51.630
12888;169546;33.76;408;03.58.51.630
12868;169537;33.76;409;03.58.51.630
12892;169540;33.76;410;03.58.51.630
12908;169540;33.76;411;03.58.51.630
12888;169544;33.76;412;03.58.51.630
12912;169547;33.76;413;03.58.51.630
12892;169554;33.76;414;03.58.51.630
12892;169554;33.76;415;03.58.51.630
12896;169562;33.76;416;03.58.51.630
12896;169566;33.76;417;03.58.51.630
12888;169568;33.76;418;03.58.51.641
12884;169569;33.76;419;03.58.51.641
12900;169572;33.76;420;03.58.51.641
12896;169572;33.76;421;03.58.51.641
12900;169568;33.76;422;03.58.51.641
12916;169577;33.76;423;03.58.51.641
12896;169580;33.76;424;03.58.51.641
12884;169583;33.76;425;03.58.51.729
12888;169581;33.76;426;03.58.51.740
12900;169584;33.76;427;03.58.51.740
12876;169590;33.76;428;03.58.51.740
12888;169591;33.76;429;03.58.51.740
12892;169595;33.76;430;03.58.51.740
12876;169604;33.76;431;03.58.51.740
12900;169604;33.76;432;03.58.51.740
12896;169610;33.76;433;03.58.51.740
12880;169609;33.76;434;03.58.51.740
12896;169610;33.76;435;03.58.51.740
12892;169610;33.76;436;03.58.51.751
12876;169613;33.76;437;03.58.51.751
12904;169614;33.76;438;03.58.51.751
12928;169624;33.76;439;03.58.51.751
12892;169621;33.76;440;03.58.51.751
12892;169634;33.76;441;03.58.51.751
12876;169637;33.76;442;03.58.51.751
12876;169636;33.76;443;03.58.51.762
12888;169647;33.76;444;03.58.51.762
12892;169650;33.76;445;03.58.51.762
12876;169653;33.76;446;03.58.51.762
12884;169656;33.76;447;03.58.51.762
12900;169655;33.76;448;03.58.51.762
12892;169671;33.76;449;03.58.51.762
12904;169664;33.72;450;03.58.51.861
12892;169671;33.72;451;03.58.51.861
12928;169673;33.72;452;03.58.51.861
12892;169680;33.72;453;03.58.51.861
12912;169680;33.72;454;03.58.51.861
12916;169688;33.72;455;03.58.51.861
12912;169693;33.72;456;03.58.51.861
12860;169694;33.72;457;03.58.51.861
12868;169707;33.72;458;03.58.51.872
12900;169700;33.72;459;03.58.51.872
12868;169706;33.72;460;03.58.51.872
12876;169705;33.72;461;03.58.51.872
12880;169709;33.72;462;03.58.51.872
12904;169712;33.72;463;03.58.51.872
12888;169721;33.72;464;03.58.51.872
12876;169720;33.72;465;03.58.51.872
12876;169717;33.72;466;03.58.51.872
12876;169731;33.72;467;03.58.51.905
12904;169734;33.72;468;03.58.51.905
12896;169736;33.72;469;03.58.51.905
12904;169741;33.72;470;03.58.51.905
12888;169750;33.72;471;03.58.51.905
12892;169747;33.72;472;03.58.51.905
12908;169750;33.72;473;03.58.51.905
12928;169745;33.72;474;03.58.51.905
12876;169746;33.72;475;03.58.51.981
12888;169749;33.72;476;03.58.51.981
12868;169748;33.72;477;03.58.51.981
12868;169746;33.72;478;03.58.51.981
12912;169750;33.72;479;03.58.51.981
12904;169756;33.72;480;03.58.51.981
12892;169749;33.72;481;03.58.51.981
12872;169744;33.72;482;03.58.51.992
12928;169754;33.72;483;03.58.51.992
12884;169747;33.72;484;03.58.51.992
12892;169743;33.72;485;03.58.51.992
12896;169744;33.72;486;03.58.51.992
12888;169734;33.72;487;03.58.51.992
12884;169734;33.72;488;03.58.51.992
12908;169731;33.72;489;03.58.51.992
12904;169725;33.72;490;03.58.51.992
12900;169716;33.72;491;03.58.51.992
12876;169714;33.72;492;03.58.51.992
12888;169706;33.72;493;03.58.51.992
12884;169707;33.72;494;03.58.52.003
12888;169703;33.72;495;03.58.52.003
12908;169693;33.72;496;03.58.52.003
12884;169693;33.72;497;03.58.52.003
12876;169691;33.72;498;03.58.52.003
12884;169683;33.72;499;03.58.52.003
12888;169682;33.72;500;03.58.52.111
12896;169682;33.72;501;03.58.52.122
12912;169674;33.72;502;03.58.52.122
12896;169682;33.72;503;03.58.52.122
12896;169674;33.72;504;03.58.52.122
12888;169669;33.72;505;03.58.52.122
12876;169659;33.72;506;03.58.52.122
12892;169660;33.72;507;03.58.52.122
12876;169660;33.72;508;03.58.52.122
12892;169650;33.72;509;03.58.52.122
12876;169653;33.72;510;03.58.52.122
12884;169648;33.72;511;03.58.52.122
12872;169644;33.72;512;03.58.52.122
12896;169647;33.72;513;03.58.52.122
12860;169639;33.72;514;03.58.52.133
12900;169647;33.72;515;03.58.52.133
12900;169634;33.72;516;03.58.52.133
12892;169639;33.72;517;03.58.52.133
12880;169625;33.72;518;03.58.52.133
12904;169627;33.72;519;03.58.52.133
12900;169628;33.72;520;03.58.52.133
12900;169626;33.72;521;03.58.52.133
12896;169627;33.72;522;03.58.52.133
12876;169617;33.72;523;03.58.52.133
12884;169618;33.72;524;03.58.52.133
12892;169622;33.72;525;03.58.52.254
12884;169619;33.72;526;03.58.52.254
12892;169609;33.72;527;03.58.52.254
12884;169616;33.72;528;03.58.52.254
12888;169617;33.72;529;03.58.52.254
12888;169617;33.72;530;03.58.52.254
12896;169615;33.72;531;03.58.52.254
12904;169622;33.72;532;03.58.52.254
12892;169622;33.72;533;03.58.52.254
12892;169620;33.72;534;03.58.52.254
12868;169625;33.72;535;03.58.52.265
12868;169623;33.72;536;03.58.52.265
12896;169628;33.72;537;03.58.52.265
12884;169624;33.72;538;03.58.52.265
12884;169627;33.72;539;03.58.52.265
12880;169621;33.72;540;03.58.52.265
12928;169627;33.72;541;03.58.52.265
12904;169628;33.72;542;03.58.52.276
12900;169627;33.72;543;03.58.52.276
12884;169620;33.72;544;03.58.52.276
12868;169618;33.72;545;03.58.52.276
12884;169626;33.72;546;03.58.52.276
12896;169628;33.72;547;03.58.52.276
12880;169630;33.72;548;03.58.52.276
12916;169626;33.72;549;03.58.52.276
12872;169628;33.72;550;03.58.52.353
12876;169631;33.72;551;03.58.52.353
12884;169623;33.72;552;03.58.52.353
12904;169623;33.72;553;03.58.52.353
12880;169627;33.72;554;03.58.52.353
12900;169629;33.72;555;03.58.52.353
12860;169633;33.72;556;03.58.52.353
12888;169631;33.72;557;03.58.52.364
12880;169630;33.72;558;03.58.52.364
12884;169624;33.72;559;03.58.52.364
12880;169637;33.72;560;03.58.52.364
12892;169635;33.72;561;03.58.52.364
12888;169641;33.72;562;03.58.52.364
12904;169631;33.72;563;03.58.52.364
12912;169635;33.72;564;03.58.52.364
12896;169633;33.72;565;03.58.52.364
12912;169631;33.72;566;03.58.52.364
12904;169637;33.72;567;03.58.52.364
12888;169641;33.72;568;03.58.52.364
12876;169640;33.72;569;03.58.52.364
12888;169639;33.72;570;03.58.52.375
12908;169637;33.72;571;03.58.52.375
12912;169646;33.72;572;03.58.52.375
12876;169644;33.72;573;03.58.52.375
12904;169644;33.72;574;03.58.52.375
12888;169640;33.72;575;03.58.52.484
12896;169649;33.72;576;03.58.52.484
12928;169647;33.72;577;03.58.52.484
12880;169642;33.72;578;03.58.52.495
12884;169642;33.72;579;03.58.52.495
12876;169645;33.72;580;03.58.52.495
12884;169651;33.72;581;03.58.52.495
12872;169651;33.72;582;03.58.52.495
12900;169652;33.72;583;03.58.52.495
12904;169649;33.72;584;03.58.52.495
12900;169654;33.72;585;03.58.52.495
12880;169660;33.72;586;03.58.52.495
12908;169653;33.72;587;03.58.52.495
12888;169650;33.72;588;03.58.52.495
12860;169664;33.72;589;03.58.52.495
12884;169667;33.72;590;03.58.52.495
12884;169664;33.72;591;03.58.52.495
12892;169666;33.72;592;03.58.52.506
12884;169665;33.72;593;03.58.52.506
12884;169679;33.72;594;03.58.52.506
12896;169680;33.72;595;03.58.52.506
12892;169677;33.72;596;03.58.52.506
12892;169676;33.72;597;03.58.52.506
12884;169672;33.72;598;03.58.52.506
12896;169676;33.72;599;03.58.52.506
12888;169686;33.68;600;03.58.52.616
12896;169680;33.68;601;03.58.52.616
12892;169686;33.68;602;03.58.52.616
12872;169686;33.68;603;03.58.52.616
12892;169687;33.68;604;03.58.52.616
12868;169686;33.68;605;03.58.52.616
12892;169695;33.68;606;03.58.52.616
12876;169703;33.68;607;03.58.52.616
12880;169702;33.68;608;03.58.52.616
12884;169686;33.68;609;03.58.52.616
12912;169694;33.68;610;03.58.52.616
12912;169701;33.68;611;03.58.52.616
12884;169698;33.68;612;03.58.52.627
12892;169700;33.68;613;03.58.52.627
12912;169694;33.68;614;03.58.52.627
12904;169699;33.68;615;03.58.52.627
12884;169686;33.68;616;03.58.52.627
12896;169699;33.68;617;03.58.52.627
12892;169693;33.68;618;03.58.52.627
12900;169684;33.68;619;03.58.52.627
12892;169686;33.68;620;03.58.52.627
12884;169680;33.68;621;03.58.52.627
12880;169680;33.68;622;03.58.52.627
12896;169679;33.68;623;03.58.52.627
12904;169668;33.68;624;03.58.52.627
12884;169659;33.68;625;03.58.52.748
12888;169661;33.68;626;03.58.52.748
12912;169659;33.68;627;03.58.52.748
12880;169644;33.68;628;03.58.52.748
12884;169655;33.68;629;03.58.52.748
12904;169650;33.68;630;03.58.52.748
12892;169655;33.68;631;03.58.52.748
12904;169640;33.68;632;03.58.52.748
12884;169642;33.68;633;03.58.52.759
12896;169642;33.68;634;03.58.52.759
12892;169640;33.68;635;03.58.52.759
12892;169634;33.68;636;03.58.52.759
12928;169640;33.68;637;03.58.52.759
12912;169639;33.68;638;03.58.52.759
12900;169627;33.68;639;03.58.52.759
12904;169629;33.68;640;03.58.52.759
12888;169635;33.68;641;03.58.52.759
12900;169634;33.68;642;03.58.52.759
12884;169630;33.68;643;03.58.52.759
12960;169631;33.68;644;03.58.52.759
12888;169632;33.68;645;03.58.52.770
12892;169634;33.68;646;03.58.52.770
12912;169635;33.68;647;03.58.52.770
12896;169638;33.68;648;03.58.52.770
12904;169635;33.68;649;03.58.52.770
12904;169624;33.72;650;03.58.52.857
12864;169627;33.72;651;03.58.52.857
12872;169633;33.72;652;03.58.52.857
12872;169635;33.72;653;03.58.52.857
12904;169635;33.72;654;03.58.52.857
12884;169631;33.72;655;03.58.52.868
12888;169635;33.72;656;03.58.52.868
12888;169630;33.72;657;03.58.52.868
12912;169634;33.72;658;03.58.52.868
12912;169635;33.72;659;03.58.52.868
12892;169634;33.72;660;03.58.52.868
12860;169637;33.72;661;03.58.52.868
12896;169633;33.72;662;03.58.52.868
12900;169640;33.72;663;03.58.52.868
12896;169632;33.72;664;03.58.52.868
12892;169643;33.72;665;03.58.52.879
12876;169637;33.72;666;03.58.52.879
12880;169644;33.72;667;03.58.52.879
12904;169631;33.72;668;03.58.52.879
12920;169644;33.72;669;03.58.52.879
12872;169639;33.72;670;03.58.52.879
12884;169648;33.72;671;03.58.52.879
12904;169634;33.72;672;03.58.52.890
12876;169645;33.72;673;03.58.52.890
12904;169640;33.72;674;03.58.52.890
12888;169644;33.72;675;03.58.52.989
12872;169649;33.72;676;03.58.52.999
12880;169641;33.72;677;03.58.52.999
12876;169639;33.72;678;03.58.52.999
12904;169648;33.72;679;03.58.52.999
12888;169642;33.72;680;03.58.52.999
12876;169645;33.72;681;03.58.52.999
12892;169635;33.72;682;03.58.52.999
12884;169641;33.72;683;03.58.52.999
12904;169649;33.72;684;03.58.52.999
12884;169632;33.72;685;03.58.52.999
12888;169645;33.72;686;03.58.52.999
12892;169639;33.72;687;03.58.52.999
12904;169643;33.72;688;03.58.52.999
12892;169642;33.72;689;03.58.53.010
12876;169644;33.72;690;03.58.53.010
12880;169644;33.72;691;03.58.53.010
12920;169641;33.72;692;03.58.53.021
12904;169650;33.72;693;03.58.53.021
12896;169645;33.72;694;03.58.53.021
12892;169641;33.72;695;03.58.53.021
12892;169640;33.72;696;03.58.53.021
12892;169642;33.72;697;03.58.53.021
12880;169645;33.72;698;03.58.53.021
12892;169649;33.72;699;03.58.53.021
12880;169638;33.72;700;03.58.53.132
12892;169644;33.72;701;03.58.53.132
12892;169651;33.72;702;03.58.53.132
12860;169644;33.72;703;03.58.53.132
12884;169647;33.72;704;03.58.53.132
12884;169653;33.72;705;03.58.53.132
12904;169648;33.72;706;03.58.53.132
12856;169655;33.72;707;03.58.53.132
12904;169655;33.72;708;03.58.53.165
12900;169673;33.72;709;03.58.53.165
12884;169675;33.72;710;03.58.53.165
12876;169669;33.72;711;03.58.53.165
12892;169674;33.72;712;03.58.53.165
12884;169670;33.72;713;03.58.53.165
12900;169674;33.72;714;03.58.53.165
12892;169677;33.72;715;03.58.53.165
12888;169677;33.72;716;03.58.53.165
12900;169678;33.72;717;03.58.53.165
12900;169683;33.72;718;03.58.53.165
12880;169681;33.72;719;03.58.53.176
12892;169685;33.72;720;03.58.53.176
12888;169680;33.72;721;03.58.53.176
12920;169689;33.72;722;03.58.53.176
12896;169690;33.72;723;03.58.53.176
12884;169693;33.72;724;03.58.53.176
12888;169692;33.72;725;03.58.53.252
12928;169696;33.72;726;03.58.53.252
12888;169686;33.72;727;03.58.53.252
12876;169698;33.72;728;03.58.53.252
12928;169700;33.72;729;03.58.53.252
12900;169702;33.72;730;03.58.53.252
12904;169694;33.72;731;03.58.53.252
12896;169695;33.72;732;03.58.53.252
12884;169704;33.72;733;03.58.53.263
12876;169700;33.72;734;03.58.53.263
12904;169704;33.72;735;03.58.53.263
12900;169710;33.72;736;03.58.53.263
12892;169711;33.72;737;03.58.53.263
12860;169705;33.72;738;03.58.53.263
12884;169703;33.72;739;03.58.53.263
12864;169712;33.72;740;03.58.53.263
12884;169715;33.72;741;03.58.53.263
12876;169712;33.72;742;03.58.53.263
12912;169718;33.72;743;03.58.53.263
12892;169721;33.72;744;03.58.53.263
12904;169716;33.72;745;03.58.53.274
12908;169718;33.72;746;03.58.53.274
12872;169725;33.72;747;03.58.53.274
12896;169724;33.72;748;03.58.53.274
12928;169730;33.72;749;03.58.53.274
12908;169729;33.72;750;03.58.53.351
12868;169727;33.72;751;03.58.53.351
12876;169738;33.72;752;03.58.53.351
12880;169727;33.72;753;03.58.53.351
12888;169723;33.72;754;03.58.53.362
12888;169727;33.72;755;03.58.53.362
12904;169725;33.72;756;03.58.53.362
12908;169721;33.72;757;03.58.53.362
12896;169711;33.72;758;03.58.53.362
12888;169713;33.72;759;03.58.53.362
12872;169708;33.72;760;03.58.53.362
12912;169693;33.72;761;03.58.53.362
12860;169697;33.72;762;03.58.53.373
12896;169702;33.72;763;03.58.53.373
12892;169687;33.72;764;03.58.53.373
12880;169683;33.72;765;03.58.53.373
12900;169684;33.72;766;03.58.53.373
12892;169674;33.72;767;03.58.53.373
12876;169665;33.72;768;03.58.53.373
12880;169669;33.72;769;03.58.53.384
12880;169667;33.72;770;03.58.53.384
12912;169658;33.72;771;03.58.53.384
12892;169649;33.72;772;03.58.53.384
12880;169653;33.72;773;03.58.53.384
12888;169647;33.72;774;03.58.53.384
12876;169651;33.72;775;03.58.53.493
12884;169646;33.72;776;03.58.53.493
12928;169642;33.72;777;03.58.53.493
12888;169640;33.72;778;03.58.53.493
12912;169637;33.72;779;03.58.53.493
12896;169640;33.72;780;03.58.53.493
12900;169640;33.72;781;03.58.53.493
12892;169640;33.72;782;03.58.53.493
12896;169632;33.72;783;03.58.53.493
12896;169622;33.72;784;03.58.53.493
12908;169625;33.72;785;03.58.53.493
12904;169628;33.72;786;03.58.53.493
12880;169630;33.72;787;03.58.53.504
12888;169627;33.72;788;03.58.53.504
12892;169629;33.72;789;03.58.53.504
12884;169618;33.72;790;03.58.53.504
12928;169618;33.72;791;03.58.53.504
12912;169619;33.72;792;03.58.53.525
12896;169621;33.72;793;03.58.53.525
12880;169619;33.72;794;03.58.53.525
12896;169621;33.72;795;03.58.53.525
12892;169615;33.72;796;03.58.53.525
12900;169611;33.72;797;03.58.53.525
12884;169611;33.72;798;03.58.53.525
12900;169610;33.72;799;03.58.53.525
12896;169615;33.68;800;03.58.53.613
12860;169611;33.68;801;03.58.53.613
12888;169612;33.68;802;03.58.53.613
12860;169615;33.68;803;03.58.53.613
12896;169616;33.68;804;03.58.53.613
12904;169622;33.68;805;03.58.53.613
12864;169616;33.68;806;03.58.53.613
12904;169619;33.68;807;03.58.53.624
12896;169621;33.68;808;03.58.53.624
12884;169627;33.68;809;03.58.53.624
12876;169622;33.68;810;03.58.53.624
12884;169621;33.68;811;03.58.53.624
12900;169621;33.68;812;03.58.53.624
12876;169630;33.68;813;03.58.53.624
12876;169619;33.68;814;03.58.53.624
12884;169628;33.68;815;03.58.53.624
12892;169628;33.68;816;03.58.53.624
12944;169618;33.68;817;03.58.53.635
12876;169627;33.68;818;03.58.53.635
12868;169625;33.68;819;03.58.53.635
12888;169615;33.68;820;03.58.53.635
12900;169620;33.68;821;03.58.53.635
12872;169625;33.68;822;03.58.53.635
12888;169638;33.68;823;03.58.53.635
12884;169621;33.68;824;03.58.53.646
12904;169628;33.68;825;03.58.53.744
12884;169630;33.68;826;03.58.53.744
12928;169630;33.68;827;03.58.53.744
12896;169633;33.68;828;03.58.53.744
12896;169635;33.68;829;03.58.53.755
12900;169632;33.68;830;03.58.53.755
12884;169630;33.68;831;03.58.53.755
12892;169629;33.68;832;03.58.53.755
12904;169635;33.68;833;03.58.53.755
12872;169632;33.68;834;03.58.53.755
12916;169644;33.68;835;03.58.53.755
12892;169640;33.68;836;03.58.53.755
12920;169639;33.68;837;03.58.53.755
12916;169638;33.68;838;03.58.53.755
12912;169634;33.68;839;03.58.53.755
12884;169643;33.68;840;03.58.53.755
12880;169644;33.68;841;03.58.53.766
12892;169645;33.68;842;03.58.53.788
12888;169643;33.68;843;03.58.53.788
12896;169644;33.68;844;03.58.53.788
12876;169652;33.68;845;03.58.53.799
12872;169646;33.68;846;03.58.53.799
12896;169658;33.68;847;03.58.53.799
12896;169661;33.68;848;03.58.53.799
12900;169655;33.68;849;03.58.53.799
12884;169661;33.72;850;03.58.53.865
12884;169658;33.72;851;03.58.53.865
12884;169665;33.72;852;03.58.53.865
12888;169654;33.72;853;03.58.53.865
12896;169663;33.72;854;03.58.53.865
12892;169670;33.72;855;03.58.53.865
12880;169665;33.72;856;03.58.53.865
12900;169670;33.72;857;03.58.53.865
12904;169667;33.72;858;03.58.53.887
12892;169665;33.72;859;03.58.53.887
12892;169671;33.72;860;03.58.53.887
12896;169673;33.72;861;03.58.53.887
12876;169673;33.72;862;03.58.53.887
12908;169673;33.72;863;03.58.53.887
12900;169686;33.72;864;03.58.53.887
12900;169682;33.72;865;03.58.53.887
12888;169685;33.72;866;03.58.53.887
12900;169688;33.72;867;03.58.53.887
12880;169682;33.72;868;03.58.53.887
12896;169695;33.72;869;03.58.53.887
12888;169692;33.72;870;03.58.53.898
12892;169690;33.72;871;03.58.53.898
12896;169688;33.72;872;03.58.53.898
12884;169696;33.72;873;03.58.53.898
12888;169698;33.72;874;03.58.53.898
12872;169702;33.72;875;03.58.53.986
12868;169705;33.72;876;03.58.53.986
12892;169703;33.72;877;03.58.53.986
12868;169696;33.72;878;03.58.53.986
12860;169699;33.72;879;03.58.53.986
12896;169703;33.72;880;03.58.53.986
12860;169703;33.72;881;03.58.53.986
12896;169709;33.72;882;03.58.53.986
12884;169709;33.72;883;03.58.53.997
12880;169713;33.72;884;03.58.53.997
12880;169715;33.72;885;03.58.53.997
12912;169714;33.72;886;03.58.53.997
12876;169712;33.72;887;03.58.53.997
12880;169709;33.72;888;03.58.53.997
12896;169716;33.72;889;03.58.53.997
12884;169701;33.72;890;03.58.53.997
12888;169708;33.72;891;03.58.53.997
12876;169702;33.72;892;03.58.54.019
12892;169699;33.72;893;03.58.54.019
12888;169695;33.72;894;03.58.54.019
12868;169697;33.72;895;03.58.54.019
12896;169687;33.72;896;03.58.54.019
12896;169682;33.72;897;03.58.54.019
12876;169677;33.72;898;03.58.54.019
12900;169674;33.72;899;03.58.54.019
12864;169663;33.72;900;03.58.54.105
12876;169664;33.72;901;03.58.54.105
12896;169653;33.72;902;03.58.54.105
12892;169655;33.72;903;03.58.54.105
12892;169658;33.72;904;03.58.54.116
12912;169650;33.72;905;03.58.54.116
12876;169646;33.72;906;03.58.54.116
12860;169640;33.72;907;03.58.54.116
12892;169633;33.72;908;03.58.54.116
12872;169635;33.72;909;03.58.54.116
12896;169638;33.72;910;03.58.54.116
12920;169630;33.72;911;03.58.54.116
12896;169627;33.72;912;03.58.54.116
12884;169623;33.72;913;03.58.54.116
12860;169617;33.72;914;03.58.54.116
12876;169627;33.72;915;03.58.54.116
12856;169626;33.72;916;03.58.54.127
12896;169626;33.72;917;03.58.54.127
12892;169626;33.72;918;03.58.54.127
12912;169613;33.72;919;03.58.54.127
12872;169612;33.72;920;03.58.54.127
12868;169610;33.72;921;03.58.54.127
12892;169606;33.72;922;03.58.54.127
12892;169605;33.72;923;03.58.54.127
12896;169609;33.72;924;03.58.54.127
12864;169609;33.72;925;03.58.54.248
12908;169607;33.72;926;03.58.54.248
12888;169613;33.72;927;03.58.54.248
12896;169612;33.72;928;03.58.54.248
12904;169601;33.72;929;03.58.54.248
12888;169605;33.72;930;03.58.54.248
12892;169604;33.72;931;03.58.54.248
12928;169594;33.72;932;03.58.54.248
12896;169606;33.72;933;03.58.54.248
12876;169610;33.72;934;03.58.54.248
12928;169606;33.72;935;03.58.54.248
12904;169613;33.72;936;03.58.54.248
12896;169603;33.72;937;03.58.54.248
12900;169610;33.72;938;03.58.54.259
12928;169607;33.72;939;03.58.54.259
12892;169609;33.72;940;03.58.54.259
12856;169612;33.72;941;03.58.54.259
12928;169615;33.72;942;03.58.54.259
12868;169620;33.72;943;03.58.54.259
12892;169624;33.72;944;03.58.54.259
12912;169620;33.72;945;03.58.54.259
12880;169621;33.72;946;03.58.54.259
12876;169624;33.72;947;03.58.54.259
12880;169625;33.72;948;03.58.54.259
12904;169626;33.72;949;03.58.54.259
12900;169623;33.72;950;03.58.54.380
12908;169625;33.72;951;03.58.54.380
12904;169622;33.72;952;03.58.54.380
12900;169635;33.72;953;03.58.54.380
12872;169625;33.72;954;03.58.54.380
12912;169634;33.72;955;03.58.54.380
12928;169622;33.72;956;03.58.54.380
12896;169615;33.72;957;03.58.54.380
12868;169626;33.72;958;03.58.54.380
12912;169621;33.72;959;03.58.54.391
12868;169625;33.72;960;03.58.54.391
12884;169626;33.72;961;03.58.54.391
12880;169633;33.72;962;03.58.54.391
12892;169630;33.72;963;03.58.54.391
12892;169633;33.72;964;03.58.54.391
12892;169636;33.72;965;03.58.54.391
12888;169629;33.72;966;03.58.54.391
12880;169632;33.72;967;03.58.54.402
12880;169633;33.72;968;03.58.54.402
12880;169639;33.72;969;03.58.54.402
12892;169636;33.72;970;03.58.54.402
12892;169645;33.72;971;03.58.54.402
12888;169640;33.72;972;03.58.54.402
12880;169637;33.72;973;03.58.54.402
12888;169631;33.72;974;03.58.54.402
12872;169641;33.72;975;03.58.54.489
12868;169651;33.72;976;03.58.54.489
12896;169649;33.72;977;03.58.54.489
12884;169655;33.72;978;03.58.54.489
12840;169646;33.72;979;03.58.54.489
12880;169649;33.72;980;03.58.54.489
12880;169654;33.72;981;03.58.54.489
12892;169657;33.72;982;03.58.54.500
12904;169659;33.72;983;03.58.54.500
12896;169657;33.72;984;03.58.54.500
12860;169654;33.72;985;03.58.54.500
12900;169669;33.72;986;03.58.54.500
12892;169672;33.72;987;03.58.54.500
12872;169667;33.72;988;03.58.54.511
12884;169680;33.72;989;03.58.54.511
12876;169673;33.72;990;03.58.54.511
12888;169682;33.72;991;03.58.54.511
12876;169677;33.72;992;03.58.54.511
12892;169685;33.72;993;03.58.54.511
12904;169675;33.72;994;03.58.54.511
12844;169685;33.72;995;03.58.54.511
12860;169681;33.72;996;03.58.54.511
12892;169687;33.72;997;03.58.54.522
12928;169684;33.72;998;03.58.54.522
12888;169691;33.72;999;03.58.54.522
12880;169696;33.72;000;03.58.54.610
12872;169698;33.72;001;03.58.54.621
12912;169706;33.72;002;03.58.54.621
12896;169705;33.72;003;03.58.54.621
12908;169697;33.72;004;03.58.54.621
12892;169710;33.72;005;03.58.54.621
12860;169707;33.72;006;03.58.54.621
12880;169718;33.72;007;03.58.54.621
12912;169716;33.72;008;03.58.54.621
12892;169718;33.72;009;03.58.54.621
12896;169720;33.72;010;03.58.54.621
12904;169720;33.72;011;03.58.54.632
12888;169725;33.72;012;03.58.54.632
12880;169725;33.72;013;03.58.54.632
12888;169722;33.72;014;03.58.54.632
12884;169725;33.72;015;03.58.54.632
12912;169731;33.72;016;03.58.54.632
12860;169743;33.72;017;03.58.54.643
12900;169740;33.72;018;03.58.54.654
12920;169740;33.72;019;03.58.54.654
12892;169749;33.72;020;03.58.54.654
12876;169740;33.72;021;03.58.54.654
12900;169740;33.72;022;03.58.54.654
12896;169749;33.72;023;03.58.54.654
12920;169752;33.72;024;03.58.54.654
12872;169752;33.72;025;03.58.54.741
12896;169755;33.72;026;03.58.54.741
12896;169755;33.72;027;03.58.54.741
12896;169755;33.72;028;03.58.54.741
12880;169761;33.72;029;03.58.54.741
12896;169768;33.72;030;03.58.54.741
12872;169770;33.72;031;03.58.54.741
12872;169764;33.72;032;03.58.54.741
12880;169766;33.72;033;03.58.54.741
12880;169764;33.72;034;03.58.54.741
12872;169768;33.72;035;03.58.54.741
12876;169765;33.72;036;03.58.54.752
12900;169768;33.72;037;03.58.54.752
12880;169777;33.72;038;03.58.54.752
12876;169778;33.72;039;03.58.54.752
12880;169781;33.72;040;03.58.54.752
12892;169787;33.72;041;03.58.54.752
12880;169789;33.72;042;03.58.54.752
12912;169796;33.72;043;03.58.54.752
12880;169790;33.72;044;03.58.54.752
12904;169794;33.72;045;03.58.54.752
12868;169796;33.72;046;03.58.54.752
12868;169794;33.72;047;03.58.54.752
12888;169794;33.72;048;03.58.54.752
12888;169797;33.72;049;03.58.54.763
12860;169799;33.72;050;03.58.54.873
12872;169809;33.72;051;03.58.54.873
12876;169811;33.72;052;03.58.54.873
12896;169811;33.72;053;03.58.54.873
12856;169808;33.72;054;03.58.54.873
12884;169812;33.72;055;03.58.54.873
12892;169803;33.72;056;03.58.54.873
12888;169811;33.72;057;03.58.54.884
12884;169807;33.72;058;03.58.54.884
12888;169808;33.72;059;03.58.54.884
12868;169806;33.72;060;03.58.54.884
12884;169799;33.72;061;03.58.54.884
12892;169785;33.72;062;03.58.54.884
12872;169789;33.72;063;03.58.54.884
12900;169780;33.72;064;03.58.54.884
12896;169779;33.72;065;03.58.54.884
12876;169771;33.72;066;03.58.54.884
12888;169765;33.72;067;03.58.54.884
12884;169752;33.72;068;03.58.54.884
12892;169757;33.72;069;03.58.54.884
12872;169747;33.72;070;03.58.54.895
12876;169736;33.72;071;03.58.54.895
12912;169738;33.72;072;03.58.54.895
12908;169721;33.72;073;03.58.54.895
12872;169727;33.72;074;03.58.54.895
12876;169731;33.72;075;03.58.54.982
12880;169718;33.72;076;03.58.54.982
12896;169720;33.72;077;03.58.54.982
12900;169720;33.72;078;03.58.54.993
12868;169710;33.72;079;03.58.54.993
12884;169704;33.72;080;03.58.54.993
12880;169713;33.72;081;03.58.54.993
12900;169704;33.72;082;03.58.54.993
12872;169706;33.72;083;03.58.54.993
12880;169699;33.72;084;03.58.54.993
12892;169702;33.72;085;03.58.54.993
12888;169695;33.72;086;03.58.54.993
12892;169697;33.72;087;03.58.55.004
12888;169692;33.72;088;03.58.55.004
12888;169691;33.72;089;03.58.55.004
12888;169686;33.72;090;03.58.55.004
12860;169688;33.72;091;03.58.55.004
12892;169680;33.72;092;03.58.55.026
12916;169677;33.72;093;03.58.55.026
12884;169682;33.72;094;03.58.55.026
12880;169685;33.72;095;03.58.55.037
12888;169679;33.72;096;03.58.55.037
12908;169673;33.72;097;03.58.55.037
12900;169677;33.72;098;03.58.55.037
12896;169673;33.72;099;03.58.55.037
12908;169680;33.72;100;03.58.55.114
12880;169664;33.72;101;03.58.55.114
12884;169672;33.72;102;03.58.55.114
12868;169673;33.72;103;03.58.55.114
12904;169672;33.72;104;03.58.55.114
12896;169676;33.72;105;03.58.55.114
12888;169672;33.72;106;03.58.55.114
12892;169677;33.72;107;03.58.55.114
12888;169678;33.72;108;03.58.55.114
12888;169669;33.72;109;03.58.55.114
12932;169674;33.72;110;03.58.55.114
12884;169678;33.72;111;03.58.55.114
12876;169684;33.72;112;03.58.55.125
12892;169684;33.72;113;03.58.55.125
12860;169680;33.72;114;03.58.55.125
12860;169676;33.72;115;03.58.55.125
12892;169678;33.72;116;03.58.55.125
12912;169681;33.72;117;03.58.55.125
12896;169684;33.72;118;03.58.55.125
12904;169683;33.72;119;03.58.55.125
12888;169689;33.72;120;03.58.55.125
12896;169682;33.72;121;03.58.55.125
12900;169681;33.72;122;03.58.55.125
12892;169681;33.72;123;03.58.55.125
12928;169683;33.72;124;03.58.55.125
12892;169682;33.72;125;03.58.55.235
12876;169675;33.72;126;03.58.55.235
12876;169681;33.72;127;03.58.55.235
12904;169678;33.72;128;03.58.55.235
12880;169693;33.72;129;03.58.55.235
12896;169685;33.72;130;03.58.55.235
12892;169693;33.72;131;03.58.55.235
12884;169690;33.72;132;03.58.55.235
12896;169690;33.72;133;03.58.55.235
12876;169684;33.72;134;03.58.55.245
12904;169696;33.72;135;03.58.55.245
12916;169688;33.72;136;03.58.55.245
12884;169687;33.72;137;03.58.55.245
12896;169690;33.72;138;03.58.55.245
12888;169694;33.72;139;03.58.55.245
12884;169700;33.72;140;03.58.55.245
12884;169694;33.72;141;03.58.55.245
12904;169701;33.72;142;03.58.55.245
12860;169702;33.72;143;03.58.55.245
12876;169699;33.72;144;03.58.55.245
12876;169705;33.72;145;03.58.55.245
12896;169712;33.72;146;03.58.55.245
12892;169711;33.72;147;03.58.55.256
12888;169707;33.72;148;03.58.55.256
12892;169707;33.72;149;03.58.55.256
12904;169714;33.72;150;03.58.55.366
12888;169714;33.72;151;03.58.55.366
12892;169727;33.72;152;03.58.55.366
12896;169715;33.72;153;03.58.55.366
12880;169723;33.72;154;03.58.55.366
12876;169717;33.72;155;03.58.55.377
12904;169722;33.72;156;03.58.55.377
12884;169724;33.72;157;03.58.55.377
12928;169729;33.72;158;03.58.55.377
12884;169738;33.72;159;03.58.55.377
12896;169724;33.72;160;03.58.55.377
12904;169735;33.72;161;03.58.55.377
12896;169739;33.72;162;03.58.55.377
12888;169736;33.72;163;03.58.55.377
12892;169733;33.72;164;03.58.55.377
12880;169737;33.72;165;03.58.55.377
12876;169739;33.72;166;03.58.55.377
12872;169732;33.72;167;03.58.55.377
12860;169743;33.72;168;03.58.55.388
12860;169737;33.72;169;03.58.55.388
12888;169738;33.72;170;03.58.55.388
12876;169742;33.72;171;03.58.55.388
12892;169743;33.72;172;03.58.55.388
12876;169750;33.72;173;03.58.55.388
12908;169755;33.72;174;03.58.55.388
12860;169750;33.72;175;03.58.55.476
12884;169753;33.72;176;03.58.55.476
12884;169755;33.72;177;03.58.55.487
12908;169754;33.72;178;03.58.55.487
12868;169751;33.72;179;03.58.55.487
12896;169755;33.72;180;03.58.55.487
12860;169756;33.72;181;03.58.55.487
12892;169766;33.72;182;03.58.55.487
12876;169766;33.72;183;03.58.55.487
12880;169764;33.72;184;03.58.55.498
12884;169770;33.72;185;03.58.55.498
12884;169777;33.72;186;03.58.55.498
12888;169777;33.72;187;03.58.55.498
12904;169776;33.72;188;03.58.55.498
12904;169769;33.72;189;03.58.55.498
12888;169783;33.72;190;03.58.55.498
12896;169775;33.72;191;03.58.55.498
12904;169775;33.72;192;03.58.55.498
12896;169775;33.72;193;03.58.55.498
12904;169782;33.72;194;03.58.55.498
12904;169788;33.72;195;03.58.55.509
12892;169788;33.72;196;03.58.55.509
12888;169791;33.72;197;03.58.55.509
12860;169794;33.72;198;03.58.55.509
12892;169784;33.72;199;03.58.55.509
12860;169793;33.76;200;03.58.55.608
12868;169789;33.76;201;03.58.55.608
12880;169791;33.76;202;03.58.55.608
12908;169793;33.76;203;03.58.55.608
12860;169790;33.76;204;03.58.55.608
12880;169793;33.76;205;03.58.55.608
12896;169799;33.76;206;03.58.55.608
12896;169801;33.76;207;03.58.55.608
12880;169812;33.76;208;03.58.55.608
12908;169809;33.76;209;03.58.55.608
12912;169802;33.76;210;03.58.55.608
12860;169798;33.76;211;03.58.55.608
12928;169815;33.76;212;03.58.55.618
12880;169801;33.76;213;03.58.55.618
12888;169814;33.76;214;03.58.55.618
12888;169815;33.76;215;03.58.55.618
12896;169823;33.76;216;03.58.55.618
12904;169819;33.76;217;03.58.55.618
12900;169819;33.76;218;03.58.55.618
12884;169827;33.76;219;03.58.55.618
12884;169824;33.76;220;03.58.55.618
12916;169815;33.76;221;03.58.55.618
12892;169828;33.76;222;03.58.55.618
12888;169836;33.76;223;03.58.55.618
12904;169823;33.76;224;03.58.55.629
12868;169834;33.76;225;03.58.55.728
12896;169830;33.76;226;03.58.55.728
12892;169833;33.76;227;03.58.55.728
12876;169828;33.76;228;03.58.55.728
12868;169837;33.76;229;03.58.55.728
12904;169842;33.76;230;03.58.55.728
12884;169838;33.76;231;03.58.55.728
12876;169843;33.76;232;03.58.55.739
12876;169831;33.76;233;03.58.55.739
12880;169841;33.76;234;03.58.55.739
12888;169831;33.76;235;03.58.55.739
12896;169834;33.76;236;03.58.55.739
12900;169834;33.76;237;03.58.55.739
12884;169827;33.76;238;03.58.55.739
12896;169826;33.76;239;03.58.55.739
12892;169817;33.76;240;03.58.55.739
12904;169820;33.76;241;03.58.55.739
12928;169807;33.76;242;03.58.55.739
12904;169795;33.76;243;03.58.55.739
12880;169789;33.76;244;03.58.55.739
12884;169793;33.76;245;03.58.55.739
12868;169791;33.76;246;03.58.55.750
12928;169789;33.76;247;03.58.55.750
12888;169785;33.76;248;03.58.55.750
12900;169780;33.76;249;03.58.55.750
12900;169773;33.72;250;03.58.55.860
12892;169774;33.72;251;03.58.55.860
12888;169766;33.72;252;03.58.55.860
12896;169760;33.72;253;03.58.55.860
12892;169759;33.72;254;03.58.55.871
12876;169759;33.72;255;03.58.55.871
12892;169759;33.72;256;03.58.55.871
12864;169758;33.72;257;03.58.55.871
12904;169752;33.72;258;03.58.55.871
12916;169751;33.72;259;03.58.55.871
12876;169750;33.72;260;03.58.55.871
12900;169758;33.72;261;03.58.55.871
12884;169747;33.72;262;03.58.55.871
12896;169748;33.72;263;03.58.55.871
12876;169748;33.72;264;03.58.55.871
12888;169747;33.72;265;03.58.55.871
12876;169744;33.72;266;03.58.55.871
12908;169749;33.72;267;03.58.55.882
12876;169745;33.72;268;03.58.55.882
12896;169748;33.72;269;03.58.55.882
12888;169740;33.72;270;03.58.55.882
12884;169739;33.72;271;03.58.55.882
12860;169743;33.72;272;03.58.55.882
12860;169739;33.72;273;03.58.55.882
12900;169732;33.72;274;03.58.55.882
12896;169750;33.72;275;03.58.56.002
12868;169738;33.72;276;03.58.56.002
12884;169737;33.72;277;03.58.56.002
12888;169745;33.72;278;03.58.56.002
12884;169740;33.72;279;03.58.56.002
12888;169750;33.72;280;03.58.56.002
12896;169751;33.72;281;03.58.56.002
12896;169748;33.72;282;03.58.56.002
12896;169748;33.72;283;03.58.56.002
12884;169749;33.72;284;03.58.56.002
12860;169752;33.72;285;03.58.56.002
12900;169759;33.72;286;03.58.56.002
12888;169758;33.72;287;03.58.56.013
12888;169755;33.72;288;03.58.56.013
12904;169755;33.72;289;03.58.56.013
12880;169753;33.72;290;03.58.56.013
12892;169766;33.72;291;03.58.56.013
12888;169757;33.72;292;03.58.56.013
12900;169756;33.72;293;03.58.56.013
12872;169758;33.72;294;03.58.56.013
12876;169755;33.72;295;03.58.56.013
12876;169751;33.72;296;03.58.56.013
12880;169754;33.72;297;03.58.56.013
12892;169754;33.72;298;03.58.56.013
12888;169752;33.72;299;03.58.56.013
12888;169754;33.72;300;03.58.56.112
12884;169750;33.72;301;03.58.56.112
12872;169750;33.72;302;03.58.56.112
12884;169756;33.72;303;03.58.56.112
12888;169747;33.72;304;03.58.56.112
12880;169757;33.72;305;03.58.56.112
12888;169753;33.72;306;03.58.56.112
12868;169757;33.72;307;03.58.56.112
12868;169763;33.72;308;03.58.56.134
12884;169759;33.72;309;03.58.56.134
12896;169758;33.72;310;03.58.56.134
12888;169758;33.72;311;03.58.56.134
12888;169760;33.72;312;03.58.56.134
12916;169758;33.72;313;03.58.56.134
12892;169766;33.72;314;03.58.56.134
12888;169758;33.72;315;03.58.56.134
12900;169759;33.72;316;03.58.56.134
12884;169761;33.72;317;03.58.56.145
12900;169764;33.72;318;03.58.56.145
12852;169759;33.72;319;03.58.56.145
12884;169767;33.72;320;03.58.56.145
12872;169764;33.72;321;03.58.56.145
12904;169760;33.72;322;03.58.56.145
12904;169770;33.72;323;03.58.56.145
12904;169773;33.72;324;03.58.56.145
12888;169760;33.72;325;03.58.56.233
12872;169766;33.72;326;03.58.56.233
12880;169766;33.72;327;03.58.56.233
12872;169767;33.72;328;03.58.56.233
12908;169777;33.72;329;03.58.56.233
12896;169780;33.72;330;03.58.56.244
12892;169782;33.72;331;03.58.56.244
12868;169787;33.72;332;03.58.56.244
12900;169781;33.72;333;03.58.56.244
12892;169786;33.72;334;03.58.56.244
12928;169781;33.72;335;03.58.56.244
12896;169773;33.72;336;03.58.56.244
12904;169779;33.72;337;03.58.56.244
12896;169785;33.72;338;03.58.56.244
12844;169789;33.72;339;03.58.56.244
12876;169784;33.72;340;03.58.56.244
12900;169784;33.72;341;03.58.56.244
12888;169791;33.72;342;03.58.56.244
12892;169789;33.72;343;03.58.56.255
12888;169791;33.72;344;03.58.56.255
12908;169795;33.72;345;03.58.56.255
12896;169795;33.72;346;03.58.56.255
12884;169796;33.72;347;03.58.56.255
12880;169797;33.72;348;03.58.56.255
12920;169795;33.72;349;03.58.56.255
12888;169792;33.72;350;03.58.56.366
12908;169790;33.72;351;03.58.56.366
12912;169801;33.72;352;03.58.56.366
12900;169801;33.72;353;03.58.56.366
12896;169795;33.72;354;03.58.56.377
12912;169802;33.72;355;03.58.56.377
12912;169808;33.72;356;03.58.56.377
12928;169815;33.72;357;03.58.56.377
12896;169810;33.72;358;03.58.56.377
12876;169812;33.72;359;03.58.56.377
12884;169811;33.72;360;03.58.56.377
12880;169817;33.72;361;03.58.56.377
12896;169823;33.72;362;03.58.56.377
12884;169816;33.72;363;03.58.56.377
12892;169825;33.72;364;03.58.56.377
12904;169826;33.72;365;03.58.56.377
12896;169817;33.72;366;03.58.56.377
12884;169829;33.72;367;03.58.56.388
12892;169823;33.72;368;03.58.56.388
12900;169822;33.72;369;03.58.56.388
12860;169825;33.72;370;03.58.56.388
12880;169832;33.72;371;03.58.56.388
12928;169836;33.72;372;03.58.56.388
12896;169835;33.72;373;03.58.56.388
12908;169831;33.72;374;03.58.56.388
12896;169835;33.72;375;03.58.56.553
12896;169839;33.72;376;03.58.56.553
12896;169843;33.72;377;03.58.56.553
12904;169842;33.72;378;03.58.56.553
12868;169841;33.72;379;03.58.56.553
12892;169846;33.72;380;03.58.56.553
12892;169851;33.72;381;03.58.56.553
12896;169852;33.72;382;03.58.56.553
12892;169853;33.72;383;03.58.56.553
12892;169849;33.72;384;03.58.56.553
12896;169851;33.72;385;03.58.56.553
12880;169861;33.72;386;03.58.56.564
12884;169863;33.72;387;03.58.56.564
12884;169863;33.72;388;03.58.56.564
12880;169867;33.72;389;03.58.56.564
12868;169867;33.72;390;03.58.56.564
12896;169868;33.72;391;03.58.56.564
12892;169868;33.72;392;03.58.56.564
12892;169876;33.72;393;03.58.56.564
12884;169873;33.72;394;03.58.56.564
12892;169873;33.72;395;03.58.56.564
12896;169873;33.72;396;03.58.56.564
12900;169866;33.72;397;03.58.56.564
12884;169866;33.72;398;03.58.56.564
12928;169858;33.72;399;03.58.56.574
12876;169854;33.72;400;03.58.56.607
12912;169850;33.72;401;03.58.56.607
12896;169853;33.72;402;03.58.56.607
12904;169848;33.72;403;03.58.56.607
12892;169843;33.72;404;03.58.56.607
12884;169839;33.72;405;03.58.56.607
12880;169838;33.72;406;03.58.56.607
12872;169823;33.72;407;03.58.56.607
12908;169825;33.72;408;03.58.56.607
12888;169815;33.72;409;03.58.56.607
12896;169807;33.72;410;03.58.56.618
12880;169802;33.72;411;03.58.56.618
12896;169799;33.72;412;03.58.56.618
12884;169790;33.72;413;03.58.56.618
12900;169789;33.72;414;03.58.56.618
12912;169778;33.72;415;03.58.56.618
12892;169784;33.72;416;03.58.56.618
12892;169790;33.72;417;03.58.56.640
12868;169784;33.72;418;03.58.56.640
12908;169784;33.72;419;03.58.56.640
12896;169783;33.72;420;03.58.56.640
12908;169776;33.72;421;03.58.56.640
12892;169775;33.72;422;03.58.56.640
12896;169767;33.72;423;03.58.56.640
12872;169769;33.72;424;03.58.56.640
12888;169764;33.72;425;03.58.56.728
12884;169775;33.72;426;03.58.56.728
12912;169759;33.72;427;03.58.56.728
12880;169760;33.72;428;03.58.56.728
12900;169757;33.72;429;03.58.56.728
12912;169755;33.72;430;03.58.56.728
12900;169754;33.72;431;03.58.56.739
12864;169760;33.72;432;03.58.56.739
12892;169755;33.72;433;03.58.56.739
12896;169758;33.72;434;03.58.56.739
12860;169751;33.72;435;03.58.56.739
12884;169749;33.72;436;03.58.56.739
12892;169757;33.72;437;03.58.56.739
12908;169756;33.72;438;03.58.56.739
12860;169754;33.72;439;03.58.56.739
12876;169754;33.72;440;03.58.56.739
12896;169752;33.72;441;03.58.56.739
12888;169759;33.72;442;03.58.56.739
12880;169758;33.72;443;03.58.56.739
12896;169754;33.72;444;03.58.56.750
12880;169754;33.72;445;03.58.56.750
12876;169759;33.72;446;03.58.56.750
12888;169761;33.72;447;03.58.56.750
12908;169760;33.72;448;03.58.56.750
12928;169763;33.72;449;03.58.56.750
12896;169764;33.72;450;03.58.56.860
12888;169763;33.72;451;03.58.56.860
12876;169766;33.72;452;03.58.56.871
12880;169759;33.72;453;03.58.56.871
12860;169757;33.72;454;03.58.56.871
12872;169756;33.72;455;03.58.56.871
12880;169757;33.72;456;03.58.56.871
12888;169755;33.72;457;03.58.56.871
12884;169759;33.72;458;03.58.56.871
12880;169765;33.72;459;03.58.56.871
12892;169759;33.72;460;03.58.56.871
12900;169757;33.72;461;03.58.56.871
12892;169755;33.72;462;03.58.56.871
12880;169757;33.72;463;03.58.56.871
12892;169757;33.72;464;03.58.56.871
12896;169761;33.72;465;03.58.56.882
12872;169756;33.72;466;03.58.56.882
12892;169755;33.72;467;03.58.56.904
12904;169761;33.72;468;03.58.56.915
12892;169762;33.72;469;03.58.56.915
12880;169766;33.72;470;03.58.56.915
12884;169758;33.72;471;03.58.56.915
12860;169766;33.72;472;03.58.56.915
12908;169754;33.72;473;03.58.56.915
12920;169755;33.72;474;03.58.56.915
12928;169761;33.72;475;03.58.57.002
12860;169766;33.72;476;03.58.57.002
12892;169772;33.72;477;03.58.57.002
12880;169763;33.72;478;03.58.57.002
12884;169771;33.72;479;03.58.57.002
12892;169770;33.72;480;03.58.57.002
12904;169769;33.72;481;03.58.57.002
12852;169769;33.72;482;03.58.57.002
12872;169761;33.72;483;03.58.57.002
12896;169775;33.72;484;03.58.57.002
12884;169771;33.72;485;03.58.57.002
12888;169782;33.72;486;03.58.57.013
12896;169777;33.72;487;03.58.57.013
12884;169779;33.72;488;03.58.57.013
12872;169777;33.72;489;03.58.57.013
12912;169777;33.72;490;03.58.57.013
12856;169787;33.72;491;03.58.57.013
12880;169789;33.72;492;03.58.57.013
12900;169788;33.72;493;03.58.57.013
12884;169791;33.72;494;03.58.57.013
12896;169787;33.72;495;03.58.57.013
12868;169797;33.72;496;03.58.57.013
12912;169792;33.72;497;03.58.57.013
12908;169793;33.72;498;03.58.57.013
12888;169785;33.72;499;03.58.57.024
12884;169800;33.72;500;03.58.57.134
12872;169789;33.72;501;03.58.57.134
12908;169791;33.72;502;03.58.57.134
12900;169804;33.72;503;03.58.57.134
12860;169805;33.72;504;03.58.57.134
12892;169798;33.72;505;03.58.57.134
12896;169804;33.72;506;03.58.57.134
12884;169810;33.72;507;03.58.57.145
12888;169808;33.72;508;03.58.57.145
12892;169804;33.72;509;03.58.57.145
12892;169803;33.72;510;03.58.57.145
12892;169803;33.72;511;03.58.57.145
12908;169820;33.72;512;03.58.57.145
12884;169809;33.72;513;03.58.57.145
12892;169802;33.72;514;03.58.57.145
12888;169820;33.72;515;03.58.57.145
12888;169813;33.72;516;03.58.57.145
12900;169808;33.72;517;03.58.57.145
12912;169823;33.72;518;03.58.57.145
12872;169822;33.72;519;03.58.57.145
12876;169822;33.72;520;03.58.57.156
12896;169822;33.72;521;03.58.57.156
12884;169821;33.72;522;03.58.57.156
12856;169828;33.72;523;03.58.57.156
12884;169821;33.72;524;03.58.57.156
12888;169823;33.72;525;03.58.57.233
12884;169836;33.72;526;03.58.57.233
12876;169841;33.72;527;03.58.57.233
12892;169838;33.72;528;03.58.57.233
12904;169834;33.72;529;03.58.57.244
12884;169838;33.72;530;03.58.57.244
12908;169840;33.72;531;03.58.57.244
12908;169836;33.72;532;03.58.57.244
12884;169841;33.72;533;03.58.57.244
12892;169835;33.72;534;03.58.57.244
12892;169845;33.72;535;03.58.57.244
12872;169842;33.72;536;03.58.57.244
12888;169839;33.72;537;03.58.57.244
12892;169848;33.72;538;03.58.57.255
12888;169849;33.72;539;03.58.57.255
12892;169850;33.72;540;03.58.57.255
12912;169846;33.72;541;03.58.57.255
12888;169845;33.72;542;03.58.57.266
12888;169852;33.72;543;03.58.57.266
12880;169854;33.72;544;03.58.57.266
12904;169861;33.72;545;03.58.57.266
12884;169855;33.72;546;03.58.57.277
12860;169866;33.72;547;03.58.57.277
12892;169862;33.72;548;03.58.57.277
12928;169865;33.72;549;03.58.57.277
12896;169864;33.72;550;03.58.57.364
12888;169863;33.72;551;03.58.57.364
12876;169880;33.72;552;03.58.57.364
12924;169877;33.72;553;03.58.57.364
12892;169875;33.72;554;03.58.57.364
12872;169878;33.72;555;03.58.57.364
12888;169872;33.72;556;03.58.57.364
12912;169878;33.72;557;03.58.57.364
12884;169875;33.72;558;03.58.57.364
12928;169878;33.72;559;03.58.57.364
12896;169874;33.72;560;03.58.57.364
12872;169873;33.72;561;03.58.57.364
12892;169880;33.72;562;03.58.57.364
12888;169888;33.72;563;03.58.57.375
12860;169875;33.72;564;03.58.57.375
12880;169875;33.72;565;03.58.57.375
12928;169877;33.72;566;03.58.57.375
12912;169879;33.72;567;03.58.57.375
12884;169873;33.72;568;03.58.57.375
12888;169872;33.72;569;03.58.57.375
12912;169856;33.72;570;03.58.57.375
12884;169850;33.72;571;03.58.57.375
12928;169845;33.72;572;03.58.57.375
12892;169843;33.72;573;03.58.57.375
12912;169832;33.72;574;03.58.57.375
12884;169821;33.72;575;03.58.57.540
12876;169819;33.72;576;03.58.57.540
12912;169805;33.72;577;03.58.57.540
12900;169817;33.72;578;03.58.57.540
12872;169804;33.72;579;03.58.57.540
12896;169809;33.72;580;03.58.57.540
12868;169798;33.72;581;03.58.57.540
12900;169796;33.72;582;03.58.57.540
12892;169793;33.72;583;03.58.57.551
12888;169790;33.72;584;03.58.57.551
12896;169787;33.72;585;03.58.57.551
12888;169790;33.72;586;03.58.57.551
12892;169787;33.72;587;03.58.57.551
12868;169781;33.72;588;03.58.57.551
12888;169770;33.72;589;03.58.57.551
12860;169768;33.72;590;03.58.57.551
12880;169773;33.72;591;03.58.57.551
12884;169763;33.72;592;03.58.57.551
12892;169768;33.72;593;03.58.57.551
12876;169764;33.72;594;03.58.57.551
12856;169765;33.72;595;03.58.57.551
12888;169760;33.72;596;03.58.57.562
12904;169766;33.72;597;03.58.57.562
12884;169751;33.72;598;03.58.57.562
12896;169743;33.72;599;03.58.57.562
12904;169752;33.72;600;03.58.57.606
12904;169741;33.72;601;03.58.57.606
12896;169740;33.72;602;03.58.57.606
12904;169741;33.72;603;03.58.57.606
12912;169737;33.72;604;03.58.57.606
12900;169741;33.72;605;03.58.57.606
12884;169741;33.72;606;03.58.57.617
12904;169736;33.72;607;03.58.57.617
12888;169735;33.72;608;03.58.57.628
12884;169734;33.72;609;03.58.57.628
12896;169731;33.72;610;03.58.57.628
12884;169730;33.72;611;03.58.57.628
12876;169736;33.72;612;03.58.57.628
12884;169732;33.72;613;03.58.57.628
12884;169729;33.72;614;03.58.57.639
12896;169726;33.72;615;03.58.57.639
12900;169723;33.72;616;03.58.57.639
12920;169730;33.72;617;03.58.57.639
12888;169733;33.72;618;03.58.57.639
12912;169731;33.72;619;03.58.57.639
12860;169735;33.72;620;03.58.57.639
12896;169732;33.72;621;03.58.57.639
12908;169729;33.72;622;03.58.57.639
12888;169741;33.72;623;03.58.57.639
12936;169729;33.72;624;03.58.57.639
12860;169738;33.72;625;03.58.57.726
12884;169737;33.72;626;03.58.57.726
12876;169730;33.72;627;03.58.57.726
12872;169735;33.72;628;03.58.57.737
12896;169736;33.72;629;03.58.57.737
12888;169741;33.72;630;03.58.57.737
12892;169743;33.72;631;03.58.57.737
12920;169742;33.72;632;03.58.57.737
12896;169741;33.72;633;03.58.57.737
12904;169738;33.72;634;03.58.57.737
12888;169742;33.72;635;03.58.57.737
12884;169735;33.72;636;03.58.57.748
12912;169726;33.72;637;03.58.57.748
12864;169735;33.72;638;03.58.57.748
12880;169740;33.72;639;03.58.57.748
12868;169736;33.72;640;03.58.57.748
12904;169733;33.72;641;03.58.57.748
12876;169730;33.72;642;03.58.57.759
12896;169738;33.72;643;03.58.57.759
12868;169728;33.72;644;03.58.57.770
12876;169743;33.72;645;03.58.57.770
12888;169743;33.72;646;03.58.57.770
12884;169746;33.72;647;03.58.57.770
12864;169743;33.72;648;03.58.57.770
12916;169747;33.72;649;03.58.57.770
12888;169756;33.72;650;03.58.57.858
12888;169755;33.72;651;03.58.57.858
12868;169754;33.72;652;03.58.57.858
12888;169764;33.72;653;03.58.57.858
12880;169757;33.72;654;03.58.57.858
12884;169756;33.72;655;03.58.57.858
12900;169756;33.72;656;03.58.57.858
12876;169759;33.72;657;03.58.57.858
12876;169768;33.72;658;03.58.57.858
12856;169763;33.72;659;03.58.57.858
12900;169770;33.72;660;03.58.57.858
12904;169768;33.72;661;03.58.57.869
12884;169769;33.72;662;03.58.57.869
12880;169769;33.72;663;03.58.57.869
12888;169767;33.72;664;03.58.57.869
12912;169776;33.72;665;03.58.57.869
12872;169778;33.72;666;03.58.57.869
12896;169776;33.72;667;03.58.57.869
12880;169777;33.72;668;03.58.57.869
12888;169783;33.72;669;03.58.57.869
12888;169773;33.72;670;03.58.57.869
12876;169777;33.72;671;03.58.57.869
12928;169786;33.72;672;03.58.57.869
12844;169784;33.72;673;03.58.57.869
12884;169779;33.72;674;03.58.57.869
12860;169786;33.72;675;03.58.57.989
12904;169789;33.72;676;03.58.57.989
12900;169779;33.72;677;03.58.57.989
12876;169785;33.72;678;03.58.57.989
12876;169789;33.72;679;03.58.57.989
12872;169791;33.72;680;03.58.57.989
12896;169798;33.72;681;03.58.57.989
12912;169792;33.72;682;03.58.58.000
12880;169798;33.72;683;03.58.58.000
12912;169804;33.72;684;03.58.58.000
12912;169806;33.72;685;03.58.58.000
12888;169811;33.72;686;03.58.58.000
12888;169813;33.72;687;03.58.58.000
12904;169801;33.72;688;03.58.58.000
12892;169806;33.72;689;03.58.58.000
12888;169804;33.72;690;03.58.58.000
12900;169809;33.72;691;03.58.58.000
12912;169823;33.72;692;03.58.58.000
12876;169812;33.72;693;03.58.58.000
12892;169816;33.72;694;03.58.58.000
12860;169814;33.72;695;03.58.58.011
12860;169818;33.72;696;03.58.58.011
12892;169818;33.72;697;03.58.58.011
12884;169823;33.72;698;03.58.58.011
12896;169828;33.72;699;03.58.58.011
12880;169828;33.72;700;03.58.58.143
12880;169824;33.72;701;03.58.58.143
12912;169821;33.72;702;03.58.58.143
12888;169826;33.72;703;03.58.58.154
12904;169836;33.72;704;03.58.58.154
12888;169836;33.72;705;03.58.58.154
12888;169837;33.72;706;03.58.58.154
12860;169831;33.72;707;03.58.58.154
12880;169838;33.72;708;03.58.58.165
12880;169846;33.72;709;03.58.58.165
12860;169841;33.72;710;03.58.58.165
12884;169850;33.72;711;03.58.58.176
12876;169848;33.72;712;03.58.58.176
12876;169851;33.72;713;03.58.58.176
12880;169859;33.72;714;03.58.58.176
12904;169856;33.72;715;03.58.58.176
12872;169852;33.72;716;03.58.58.176
12884;169866;33.72;717;03.58.58.176
12884;169855;33.72;718;03.58.58.176
12892;169848;33.72;719;03.58.58.176
12888;169864;33.72;720;03.58.58.176
12904;169860;33.72;721;03.58.58.176
12868;169866;33.72;722;03.58.58.176
12868;169870;33.72;723;03.58.58.176
12880;169873;33.72;724;03.58.58.187
12888;169876;33.72;725;03.58.58.263
12880;169870;33.72;726;03.58.58.263
12896;169876;33.72;727;03.58.58.263
12864;169888;33.72;728;03.58.58.263
12884;169877;33.72;729;03.58.58.263
12884;169885;33.72;730;03.58.58.263
12888;169883;33.72;731;03.58.58.263
12868;169884;33.72;732;03.58.58.263
12892;169886;33.72;733;03.58.58.263
12868;169892;33.72;734;03.58.58.263
12856;169888;33.72;735;03.58.58.263
12908;169891;33.72;736;03.58.58.263
12860;169894;33.72;737;03.58.58.263
12880;169893;33.72;738;03.58.58.274
12872;169890;33.72;739;03.58.58.274
12916;169894;33.72;740;03.58.58.274
12876;169903;33.72;741;03.58.58.274
12884;169898;33.72;742;03.58.58.274
12880;169901;33.72;743;03.58.58.274
12896;169907;33.72;744;03.58.58.274
12896;169898;33.72;745;03.58.58.274
12896;169903;33.72;746;03.58.58.274
12892;169898;33.72;747;03.58.58.274
12884;169895;33.72;748;03.58.58.274
12904;169893;33.72;749;03.58.58.274
12860;169886;33.76;750;03.58.58.362
12892;169890;33.76;751;03.58.58.362
12904;169883;33.76;752;03.58.58.362
12888;169882;33.76;753;03.58.58.362
12900;169871;33.76;754;03.58.58.362
12924;169870;33.76;755;03.58.58.362
12876;169868;33.76;756;03.58.58.362
12884;169861;33.76;757;03.58.58.362
12900;169846;33.76;758;03.58.58.362
12896;169847;33.76;759;03.58.58.373
12888;169841;33.76;760;03.58.58.373
12880;169833;33.76;761;03.58.58.373
12868;169829;33.76;762;03.58.58.373
12880;169836;33.76;763;03.58.58.373
12876;169824;33.76;764;03.58.58.373
12876;169827;33.76;765;03.58.58.373
12896;169826;33.76;766;03.58.58.373
12880;169822;33.76;767;03.58.58.373
12880;169813;33.76;768;03.58.58.373
12876;169813;33.76;769;03.58.58.373
12912;169804;33.76;770;03.58.58.373
12872;169807;33.76;771;03.58.58.373
12920;169797;33.76;772;03.58.58.384
12876;169793;33.76;773;03.58.58.384
12876;169794;33.76;774;03.58.58.384
12868;169793;33.76;775;03.58.58.483
12900;169783;33.76;776;03.58.58.483
12872;169790;33.76;777;03.58.58.483
12896;169787;33.76;778;03.58.58.483
12884;169784;33.76;779;03.58.58.483
12876;169785;33.76;780;03.58.58.483
12876;169789;33.76;781;03.58.58.494
12884;169782;33.76;782;03.58.58.494
12884;169777;33.76;783;03.58.58.494
12896;169779;33.76;784;03.58.58.494
12884;169777;33.76;785;03.58.58.494
12920;169777;33.76;786;03.58.58.494
12872;169778;33.76;787;03.58.58.494
12896;169774;33.76;788;03.58.58.505
12892;169768;33.76;789;03.58.58.505
12892;169763;33.76;790;03.58.58.505
12896;169765;33.76;791;03.58.58.505
12892;169759;33.76;792;03.58.58.516
12904;169759;33.76;793;03.58.58.516
12884;169759;33.76;794;03.58.58.516
12896;169764;33.76;795;03.58.58.516
12912;169760;33.76;796;03.58.58.527
12880;169757;33.76;797;03.58.58.527
12900;169752;33.76;798;03.58.58.527
12916;169761;33.76;799;03.58.58.527
12908;169756;33.76;800;03.58.58.614
12896;169774;33.76;801;03.58.58.625
12884;169770;33.76;802;03.58.58.625
12892;169760;33.76;803;03.58.58.625
12880;169764;33.76;804;03.58.58.625
12896;169767;33.76;805;03.58.58.625
12904;169774;33.76;806;03.58.58.625
12888;169775;33.76;807;03.58.58.625
12892;169767;33.76;808;03.58.58.625
12904;169776;33.76;809;03.58.58.625
12896;169777;33.76;810;03.58.58.625
12888;169772;33.76;811;03.58.58.625
12896;169773;33.76;812;03.58.58.625
12888;169772;33.76;813;03.58.58.625
12880;169772;33.76;814;03.58.58.625
12888;169761;33.76;815;03.58.58.636
12884;169771;33.76;816;03.58.58.636
12892;169777;33.76;817;03.58.58.636
12928;169767;33.76;818;03.58.58.636
12888;169776;33.76;819;03.58.58.636
12884;169784;33.76;820;03.58.58.636
12900;169776;33.76;821;03.58.58.636
12900;169771;33.76;822;03.58.58.636
12904;169775;33.76;823;03.58.58.636
12912;169773;33.76;824;03.58.58.636
12896;169771;33.76;825;03.58.58.735
12884;169773;33.76;826;03.58.58.735
12896;169777;33.76;827;03.58.58.735
12876;169779;33.76;828;03.58.58.735
12896;169774;33.76;829;03.58.58.735
12892;169779;33.76;830;03.58.58.735
12884;169770;33.76;831;03.58.58.735
12904;169776;33.76;832;03.58.58.735
12916;169778;33.76;833;03.58.58.746
12888;169776;33.76;834;03.58.58.746
12896;169795;33.76;835;03.58.58.746
12928;169790;33.76;836;03.58.58.746
12892;169779;33.76;837;03.58.58.746
12912;169795;33.76;838;03.58.58.746
12860;169795;33.76;839;03.58.58.746
12912;169794;33.76;840;03.58.58.746
12876;169795;33.76;841;03.58.58.746
12892;169798;33.76;842;03.58.58.779
12868;169789;33.76;843;03.58.58.779
12892;169799;33.76;844;03.58.58.779
12892;169802;33.76;845;03.58.58.779
12900;169808;33.76;846;03.58.58.779
12888;169813;33.76;847;03.58.58.779
12892;169819;33.76;848;03.58.58.779
12908;169814;33.76;849;03.58.58.779
12860;169812;33.72;850;03.58.58.856
12876;169817;33.72;851;03.58.58.856
12888;169813;33.72;852;03.58.58.856
12880;169821;33.72;853;03.58.58.856
12904;169820;33.72;854;03.58.58.856
12892;169816;33.72;855;03.58.58.856
12900;169809;33.72;856;03.58.58.856
12888;169822;33.72;857;03.58.58.856
12876;169815;33.72;858;03.58.58.867
12908;169820;33.72;859;03.58.58.867
12876;169830;33.72;860;03.58.58.867
12900;169829;33.72;861;03.58.58.867
12880;169824;33.72;862;03.58.58.867
12884;169830;33.72;863;03.58.58.867
12884;169825;33.72;864;03.58.58.867
12900;169829;33.72;865;03.58.58.867
12872;169823;33.72;866;03.58.58.867
12896;169839;33.72;867;03.58.58.867
12884;169830;33.72;868;03.58.58.867
12880;169841;33.72;869;03.58.58.867
12880;169848;33.72;870;03.58.58.867
12884;169845;33.72;871;03.58.58.878
12884;169841;33.72;872;03.58.58.878
12928;169839;33.72;873;03.58.58.878
12888;169843;33.72;874;03.58.58.878
12872;169846;33.72;875;03.58.58.976
12888;169851;33.72;876;03.58.58.976
12892;169847;33.72;877;03.58.58.976
12892;169854;33.72;878;03.58.58.987
12896;169854;33.72;879;03.58.58.987
12916;169853;33.72;880;03.58.58.987
12916;169857;33.72;881;03.58.58.987
12928;169860;33.72;882;03.58.58.987
12884;169859;33.72;883;03.58.58.987
12908;169864;33.72;884;03.58.58.987
12888;169869;33.72;885;03.58.58.987
12904;169873;33.72;886;03.58.58.987
12896;169871;33.72;887;03.58.58.987
12896;169871;33.72;888;03.58.58.987
12900;169874;33.72;889;03.58.58.987
12888;169878;33.72;890;03.58.58.987
12860;169870;33.72;891;03.58.58.998
12876;169875;33.72;892;03.58.58.998
12896;169878;33.72;893;03.58.58.998
12912;169883;33.72;894;03.58.58.998
12884;169876;33.72;895;03.58.58.998
12892;169879;33.72;896;03.58.58.998
12896;169883;33.72;897;03.58.58.998
12888;169891;33.72;898;03.58.58.998
12912;169890;33.72;899;03.58.58.998
12916;169896;33.72;900;03.58.59.119
12900;169891;33.72;901;03.58.59.119
12912;169893;33.72;902;03.58.59.119
12900;169898;33.72;903;03.58.59.119
12884;169899;33.72;904;03.58.59.119
12896;169902;33.72;905;03.58.59.119
12876;169908;33.72;906;03.58.59.119
12892;169906;33.72;907;03.58.59.119
12884;169907;33.72;908;03.58.59.119
12888;169902;33.72;909;03.58.59.119
12876;169904;33.72;910;03.58.59.119
12904;169915;33.72;911;03.58.59.119
12876;169920;33.72;912;03.58.59.130
12892;169911;33.72;913;03.58.59.130
12896;169912;33.72;914;03.58.59.130
12868;169920;33.72;915;03.58.59.130
12920;169912;33.72;916;03.58.59.130
12880;169922;33.72;917;03.58.59.130
12912;169930;33.72;918;03.58.59.130
12884;169931;33.72;919;03.58.59.130
12888;169922;33.72;920;03.58.59.130
12896;169920;33.72;921;03.58.59.130
12904;169935;33.72;922;03.58.59.130
12884;169931;33.72;923;03.58.59.130
12928;169936;33.72;924;03.58.59.130
12884;169936;33.72;925;03.58.59.250
12884;169936;33.72;926;03.58.59.250
12880;169937;33.72;927;03.58.59.250
12904;169942;33.72;928;03.58.59.250
12908;169940;33.72;929;03.58.59.250
12884;169943;33.72;930;03.58.59.250
12904;169947;33.72;931;03.58.59.250
12888;169943;33.72;932;03.58.59.250
12888;169949;33.72;933;03.58.59.261
12884;169949;33.72;934;03.58.59.261
12888;169943;33.72;935;03.58.59.261
12900;169950;33.72;936;03.58.59.261
12904;169947;33.72;937;03.58.59.261
12884;169950;33.72;938;03.58.59.261
12900;169946;33.72;939;03.58.59.261
12880;169948;33.72;940;03.58.59.261
12916;169943;33.72;941;03.58.59.261
12860;169946;33.72;942;03.58.59.261
12860;169942;33.72;943;03.58.59.261
12892;169943;33.72;944;03.58.59.261
12888;169934;33.72;945;03.58.59.261
12904;169935;33.72;946;03.58.59.272
12892;169921;33.72;947;03.58.59.272
12888;169916;33.72;948;03.58.59.272
12900;169908;33.72;949;03.58.59.272
12880;169911;33.72;950;03.58.59.382
12912;169902;33.72;951;03.58.59.382
12896;169902;33.72;952;03.58.59.382
12896;169891;33.72;953;03.58.59.382
12904;169884;33.72;954;03.58.59.392
12880;169873;33.72;955;03.58.59.392
12876;169872;33.72;956;03.58.59.392
12896;169873;33.72;957;03.58.59.392
12884;169867;33.72;958;03.58.59.392
12904;169859;33.72;959;03.58.59.392
12900;169858;33.72;960;03.58.59.392
12904;169855;33.72;961;03.58.59.392
12892;169852;33.72;962;03.58.59.392
12872;169861;33.72;963;03.58.59.392
12896;169851;33.72;964;03.58.59.392
12860;169851;33.72;965;03.58.59.392
12892;169844;33.72;966;03.58.59.403
12912;169835;33.72;967;03.58.59.403
12884;169842;33.72;968;03.58.59.403
12900;169842;33.72;969;03.58.59.403
12888;169846;33.72;970;03.58.59.403
12900;169842;33.72;971;03.58.59.403
12888;169842;33.72;972;03.58.59.403
12880;169840;33.72;973;03.58.59.403
12880;169838;33.72;974;03.58.59.403
12896;169834;33.72;975;03.58.59.490
12880;169841;33.72;976;03.58.59.490
12876;169836;33.72;977;03.58.59.490
12900;169833;33.72;978;03.58.59.490
12896;169828;33.72;979;03.58.59.490
12860;169829;33.72;980;03.58.59.490
12884;169832;33.72;981;03.58.59.490
12900;169831;33.72;982;03.58.59.490
12912;169821;33.72;983;03.58.59.490
12928;169829;33.72;984;03.58.59.490
12900;169821;33.72;985;03.58.59.490
12884;169822;33.72;986;03.58.59.490
12884;169830;33.72;987;03.58.59.490
12876;169826;33.72;988;03.58.59.501
12928;169823;33.72;989;03.58.59.501
12872;169827;33.72;990;03.58.59.501
12892;169823;33.72;991;03.58.59.501
12904;169837;33.72;992;03.58.59.501
12884;169828;33.72;993;03.58.59.501
12912;169843;33.72;994;03.58.59.501
12892;169836;33.72;995;03.58.59.501
12876;169835;33.72;996;03.58.59.501
12872;169831;33.72;997;03.58.59.501
12896;169831;33.72;998;03.58.59.501
12884;169824;33.72;999;03.58.59.501
12884;169831;33.72;000;03.58.59.609
12868;169826;33.72;001;03.58.59.609
12880;169831;33.72;002;03.58.59.609
12876;169832;33.72;003;03.58.59.609
12904;169832;33.72;004;03.58.59.609
12876;169830;33.72;005;03.58.59.609
12900;169836;33.72;006;03.58.59.609
12876;169838;33.72;007;03.58.59.620
12896;169833;33.72;008;03.58.59.620
12888;169829;33.72;009;03.58.59.620
12900;169831;33.72;010;03.58.59.620
12888;169828;33.72;011;03.58.59.620
12896;169826;33.72;012;03.58.59.620
12908;169832;33.72;013;03.58.59.620
12900;169827;33.72;014;03.58.59.620
12896;169830;33.72;015;03.58.59.620
12884;169823;33.72;016;03.58.59.620
12888;169827;33.72;017;03.58.59.631
12896;169828;33.72;018;03.58.59.631
12872;169827;33.72;019;03.58.59.631
12896;169822;33.72;020;03.58.59.631
12876;169822;33.72;021;03.58.59.631
12876;169831;33.72;022;03.58.59.631
12856;169823;33.72;023;03.58.59.631
12900;169827;33.72;024;03.58.59.631
12904;169834;33.72;025;03.58.59.750
12896;169836;33.72;026;03.58.59.761
12892;169835;33.72;027;03.58.59.761
12884;169829;33.72;028;03.58.59.761
12888;169840;33.72;029;03.58.59.761
12888;169845;33.72;030;03.58.59.761
12876;169845;33.72;031;03.58.59.761
12904;169850;33.72;032;03.58.59.761
12908;169844;33.72;033;03.58.59.761
12896;169852;33.72;034;03.58.59.761
12884;169846;33.72;035;03.58.59.761
12904;169852;33.72;036;03.58.59.761
12904;169851;33.72;037;03.58.59.761
12896;169853;33.72;038;03.58.59.761
12900;169856;33.72;039;03.58.59.772
12896;169851;33.72;040;03.58.59.772
12876;169855;33.72;041;03.58.59.772
12868;169857;33.72;042;03.58.59.772
12872;169858;33.72;043;03.58.59.772
12896;169864;33.72;044;03.58.59.772
12904;169869;33.72;045;03.58.59.772
12864;169866;33.72;046;03.58.59.772
12880;169869;33.72;047;03.58.59.772
12892;169868;33.72;048;03.58.59.772
12900;169868;33.72;049;03.58.59.772
12876;169868;33.72;050;03.58.59.860
12880;169867;33.72;051;03.58.59.860
12916;169878;33.72;052;03.58.59.860
12892;169873;33.72;053;03.58.59.860
12896;169875;33.72;054;03.58.59.860
12928;169878;33.72;055;03.58.59.860
12896;169887;33.72;056;03.58.59.860
12892;169877;33.72;057;03.58.59.860
12900;169874;33.72;058;03.58.59.871
12892;169885;33.72;059;03.58.59.871
12904;169891;33.72;060;03.58.59.871
12900;169896;33.72;061;03.58.59.871
12912;169890;33.72;062;03.58.59.871
12912;169896;33.72;063;03.58.59.871
12904;169891;33.72;064;03.58.59.871
12908;169891;33.72;065;03.58.59.871
12884;169889;33.72;066;03.58.59.871
12896;169896;33.72;067;03.58.59.893
12904;169901;33.72;068;03.58.59.893
12892;169894;33.72;069;03.58.59.893
12892;169891;33.72;070;03.58.59.893
12884;169891;33.72;071;03.58.59.893
12904;169897;33.72;072;03.58.59.893
12860;169900;33.72;073;03.58.59.893
12892;169904;33.72;074;03.58.59.893
12900;169903;33.72;075;03.58.59.992
12900;169907;33.72;076;03.58.59.992
12892;169899;33.72;077;03.58.59.992
12876;169908;33.72;078;03.58.59.992
12896;169910;33.72;079;03.58.59.992
12892;169912;33.72;080;03.58.59.992
12892;169920;33.72;081;03.58.59.992
12920;169911;33.72;082;03.59.00.003
12900;169920;33.72;083;03.59.00.003
12908;169921;33.72;084;03.59.00.003
12896;169912;33.72;085;03.59.00.003
12912;169917;33.72;086;03.59.00.003
12884;169921;33.72;087;03.59.00.003
12872;169925;33.72;088;03.59.00.003
12872;169925;33.72;089;03.59.00.003
12876;169920;33.72;090;03.59.00.003
12892;169924;33.72;091;03.59.00.003
12880;169933;33.72;092;03.59.00.024
12904;169927;33.72;093;03.59.00.024
12884;169941;33.72;094;03.59.00.024
12896;169935;33.72;095;03.59.00.024
12900;169937;33.72;096;03.59.00.024
12860;169940;33.72;097;03.59.00.024
12904;169939;33.72;098;03.59.00.024
12876;169935;33.72;099;03.59.00.035
12896;169933;33.76;100;03.59.00.112
12876;169944;33.76;101;03.59.00.112
12872;169941;33.76;102;03.59.00.112
12896;169944;33.76;103;03.59.00.123
12904;169939;33.76;104;03.59.00.123
12900;169942;33.76;105;03.59.00.123
12872;169952;33.76;106;03.59.00.123
12888;169950;33.76;107;03.59.00.123
12904;169960;33.76;108;03.59.00.123
12896;169953;33.76;109;03.59.00.123
12884;169955;33.76;110;03.59.00.123
12872;169954;33.76;111;03.59.00.123
12884;169955;33.76;112;03.59.00.123
12892;169965;33.76;113;03.59.00.123
12868;169959;33.76;114;03.59.00.123
12876;169961;33.76;115;03.59.00.123
12880;169968;33.76;116;03.59.00.134
12896;169978;33.76;117;03.59.00.134
12912;169961;33.76;118;03.59.00.134
12876;169970;33.76;119;03.59.00.134
12884;169983;33.76;120;03.59.00.134
12928;169977;33.76;121;03.59.00.134
12872;169974;33.76;122;03.59.00.134
12876;169979;33.76;123;03.59.00.134
12916;169973;33.76;124;03.59.00.134
12868;169972;33.76;125;03.59.00.255
12860;169975;33.76;126;03.59.00.255
12888;169982;33.76;127;03.59.00.255
12900;169984;33.76;128;03.59.00.255
12908;169983;33.76;129;03.59.00.255
12900;169989;33.76;130;03.59.00.255
12876;169982;33.76;131;03.59.00.255
12864;169982;33.76;132;03.59.00.255
12892;169979;33.76;133;03.59.00.255
12904;169978;33.76;134;03.59.00.255
12868;169982;33.76;135;03.59.00.255
12896;169968;33.76;136;03.59.00.255
12904;169966;33.76;137;03.59.00.266
12888;169959;33.76;138;03.59.00.266
12876;169948;33.76;139;03.59.00.266
12880;169947;33.76;140;03.59.00.266
12852;169944;33.76;141;03.59.00.266
12880;169935;33.76;142;03.59.00.266
12928;169933;33.76;143;03.59.00.266
12896;169927;33.76;144;03.59.00.266
12896;169923;33.76;145;03.59.00.266
12912;169918;33.76;146;03.59.00.266
12900;169911;33.76;147;03.59.00.266
12888;169903;33.76;148;03.59.00.266
12928;169904;33.76;149;03.59.00.266
12860;169899;33.72;150;03.59.00.365
12880;169898;33.72;151;03.59.00.365
12884;169901;33.72;152;03.59.00.365
12896;169901;33.72;153;03.59.00.365
12880;169894;33.72;154;03.59.00.365
12860;169884;33.72;155;03.59.00.365
12892;169884;33.72;156;03.59.00.365
12876;169884;33.72;157;03.59.00.365
12860;169887;33.72;158;03.59.00.376
12900;169874;33.72;159;03.59.00.376
12904;169880;33.72;160;03.59.00.376
12884;169877;33.72;161;03.59.00.376
12860;169878;33.72;162;03.59.00.376
12876;169874;33.72;163;03.59.00.376
12896;169874;33.72;164;03.59.00.376
12876;169875;33.72;165;03.59.00.376
12884;169872;33.72;166;03.59.00.376
12872;169873;33.72;167;03.59.00.387
12892;169873;33.72;168;03.59.00.387
12888;169872;33.72;169;03.59.00.387
12896;169869;33.72;170;03.59.00.387
12860;169867;33.72;171;03.59.00.387
12868;169869;33.72;172;03.59.00.387
12864;169868;33.72;173;03.59.00.387
12872;169866;33.72;174;03.59.00.387
12888;169858;33.72;175;03.59.00.485
12888;169859;33.72;176;03.59.00.485
12884;169862;33.72;177;03.59.00.485
12876;169862;33.72;178;03.59.00.485
12872;169863;33.72;179;03.59.00.485
12904;169862;33.72;180;03.59.00.485
12884;169860;33.72;181;03.59.00.496
12920;169857;33.72;182;03.59.00.496
12904;169862;33.72;183;03.59.00.496
12884;169863;33.72;184;03.59.00.496
12920;169867;33.72;185;03.59.00.496
12900;169866;33.72;186;03.59.00.496
12868;169862;33.72;187;03.59.00.496
12900;169868;33.72;188;03.59.00.496
12876;169867;33.72;189;03.59.00.496
12928;169865;33.72;190;03.59.00.496
12888;169873;33.72;191;03.59.00.496
12892;169874;33.72;192;03.59.00.518
12884;169866;33.72;193;03.59.00.518
12900;169868;33.72;194;03.59.00.518
12888;169861;33.72;195;03.59.00.518
12908;169870;33.72;196;03.59.00.518
12928;169868;33.72;197;03.59.00.529
12884;169869;33.72;198;03.59.00.529
12892;169862;33.72;199;03.59.00.529
12868;169864;33.72;200;03.59.00.628
12888;169869;33.72;201;03.59.00.628
12908;169878;33.72;202;03.59.00.628
12872;169869;33.72;203;03.59.00.628
12904;169867;33.72;204;03.59.00.628
12880;169857;33.72;205;03.59.00.628
12884;169864;33.72;206;03.59.00.628
12884;169864;33.72;207;03.59.00.628
12892;169863;33.72;208;03.59.00.650
12864;169870;33.72;209;03.59.00.661
12880;169858;33.72;210;03.59.00.661
12896;169860;33.72;211;03.59.00.661
12904;169848;33.72;212;03.59.00.661
12860;169853;33.72;213;03.59.00.661
12892;169864;33.72;214;03.59.00.661
12912;169861;33.72;215;03.59.00.661
12928;169865;33.72;216;03.59.00.661
12916;169873;33.72;217;03.59.00.661
12892;169858;33.72;218;03.59.00.661
12888;169874;33.72;219;03.59.00.661
12888;169875;33.72;220;03.59.00.661
12868;169877;33.72;221;03.59.00.661
12896;169874;33.72;222;03.59.00.661
12868;169877;33.72;223;03.59.00.672
12908;169884;33.72;224;03.59.00.672
12860;169885;33.72;225;03.59.00.749
12900;169884;33.72;226;03.59.00.749
12900;169886;33.72;227;03.59.00.749
12892;169886;33.72;228;03.59.00.749
12888;169888;33.72;229;03.59.00.749
12896;169901;33.72;230;03.59.00.749
12908;169901;33.72;231;03.59.00.749
12876;169897;33.72;232;03.59.00.749
12876;169898;33.72;233;03.59.00.749
12896;169904;33.72;234;03.59.00.749
12880;169902;33.72;235;03.59.00.749
12880;169900;33.72;236;03.59.00.760
12916;169900;33.72;237;03.59.00.760
12880;169897;33.72;238;03.59.00.760
12892;169896;33.72;239;03.59.00.760
12888;169900;33.72;240;03.59.00.760
12908;169898;33.72;241;03.59.00.760
12896;169903;33.72;242;03.59.00.760
12860;169906;33.72;243;03.59.00.760
12900;169909;33.72;244;03.59.00.760
12892;169909;33.72;245;03.59.00.760
12860;169918;33.72;246;03.59.00.760
12876;169914;33.72;247;03.59.00.760
12892;169907;33.72;248;03.59.00.760
12912;169922;33.72;249;03.59.00.760
12864;169917;33.72;250;03.59.00.859
12892;169925;33.72;251;03.59.00.859
12888;169926;33.72;252;03.59.00.859
12912;169934;33.72;253;03.59.00.859
12888;169928;33.72;254;03.59.00.859
12904;169929;33.72;255;03.59.00.859
12876;169938;33.72;256;03.59.00.859
12876;169930;33.72;257;03.59.00.859
12896;169926;33.72;258;03.59.00.881
12896;169937;33.72;259;03.59.00.881
12892;169928;33.72;260;03.59.00.881
12896;169937;33.72;261;03.59.00.881
12896;169941;33.72;262;03.59.00.881
12852;169945;33.72;263;03.59.00.881
12880;169939;33.72;264;03.59.00.881
12896;169944;33.72;265;03.59.00.881
12904;169936;33.72;266;03.59.00.881
12888;169943;33.72;267;03.59.00.892
12908;169941;33.72;268;03.59.00.892
12868;169942;33.72;269;03.59.00.892
12912;169951;33.72;270;03.59.00.892
12892;169955;33.72;271;03.59.00.892
12896;169951;33.72;272;03.59.00.892
12900;169950;33.72;273;03.59.00.892
12888;169961;33.72;274;03.59.00.892
12876;169956;33.72;275;03.59.00.979
12900;169960;33.72;276;03.59.00.979
12884;169954;33.72;277;03.59.00.979
12892;169958;33.72;278;03.59.00.979
12884;169967;33.72;279;03.59.00.990
12880;169966;33.72;280;03.59.00.990
12912;169971;33.72;281;03.59.00.990
12872;169977;33.72;282;03.59.00.990
12892;169968;33.72;283;03.59.00.990
12900;169976;33.72;284;03.59.00.990
12868;169973;33.72;285;03.59.00.990
12864;169982;33.72;286;03.59.00.990
12868;169971;33.72;287;03.59.00.990
12860;169989;33.72;288;03.59.00.990
12884;169991;33.72;289;03.59.00.990
12884;169990;33.72;290;03.59.00.990
12876;169979;33.72;291;03.59.00.990
12884;169990;33.72;292;03.59.01.012
12888;169984;33.72;293;03.59.01.012
12892;169989;33.72;294;03.59.01.012
12876;169994;33.72;295;03.59.01.012
12880;169994;33.72;296;03.59.01.023
12868;169991;33.72;297;03.59.01.023
12880;169995;33.72;298;03.59.01.023
12888;170003;33.72;299;03.59.01.023
12916;170000;33.76;300;03.59.01.111
12876;170001;33.76;301;03.59.01.111
12856;170007;33.76;302;03.59.01.111
12888;170002;33.76;303;03.59.01.111
12896;170014;33.76;304;03.59.01.111
12888;170008;33.76;305;03.59.01.111
12912;170010;33.76;306;03.59.01.111
12880;170012;33.76;307;03.59.01.111
12916;170010;33.76;308;03.59.01.111
12888;170014;33.76;309;03.59.01.111
12896;170022;33.76;310;03.59.01.111
12896;170010;33.76;311;03.59.01.111
12912;170007;33.76;312;03.59.01.111
12876;170009;33.76;313;03.59.01.122
12888;170009;33.76;314;03.59.01.122
12892;170018;33.76;315;03.59.01.122
12860;170022;33.76;316;03.59.01.122
12880;170026;33.76;317;03.59.01.122
12880;170023;33.76;318;03.59.01.122
12880;170022;33.76;319;03.59.01.122
12928;170008;33.76;320;03.59.01.122
12912;170009;33.76;321;03.59.01.122
12876;169995;33.76;322;03.59.01.122
12888;169995;33.76;323;03.59.01.122
12916;169994;33.76;324;03.59.01.122
12880;169985;33.76;325;03.59.01.243
12880;169985;33.76;326;03.59.01.243
12892;169981;33.76;327;03.59.01.243
12876;169976;33.76;328;03.59.01.243
12908;169968;33.76;329;03.59.01.243
12888;169967;33.76;330;03.59.01.243
12892;169952;33.76;331;03.59.01.243
12880;169956;33.76;332;03.59.01.243
12888;169942;33.76;333;03.59.01.243
12888;169949;33.76;334;03.59.01.253
12884;169945;33.76;335;03.59.01.253
12880;169941;33.76;336;03.59.01.253
12888;169944;33.76;337;03.59.01.253
12896;169937;33.76;338;03.59.01.253
12888;169937;33.76;339;03.59.01.253
12872;169935;33.76;340;03.59.01.253
12880;169932;33.76;341;03.59.01.253
12884;169941;33.76;342;03.59.01.286
12876;169934;33.76;343;03.59.01.286
12908;169929;33.76;344;03.59.01.286
12860;169930;33.76;345;03.59.01.286
12896;169933;33.76;346;03.59.01.286
12876;169933;33.76;347;03.59.01.286
12884;169930;33.76;348;03.59.01.286
12900;169930;33.76;349;03.59.01.286
12880;169935;33.72;350;03.59.01.385
12888;169938;33.72;351;03.59.01.385
12884;169931;33.72;352;03.59.01.385
12896;169933;33.72;353;03.59.01.385
12864;169941;33.72;354;03.59.01.385
12928;169930;33.72;355;03.59.01.385
12880;169925;33.72;356;03.59.01.397
12872;169934;33.72;357;03.59.01.397
12892;169926;33.72;358;03.59.01.397
12888;169926;33.72;359;03.59.01.397
12888;169927;33.72;360;03.59.01.397
12920;169920;33.72;361;03.59.01.397
12896;169921;33.72;362;03.59.01.397
12872;169924;33.72;363;03.59.01.397
12892;169929;33.72;364;03.59.01.397
12880;169926;33.72;365;03.59.01.408
12876;169930;33.72;366;03.59.01.408
12896;169930;33.72;367;03.59.01.419
12912;169918;33.72;368;03.59.01.419
12900;169924;33.72;369;03.59.01.419
12900;169921;33.72;370;03.59.01.419
12896;169935;33.72;371;03.59.01.419
12884;169936;33.72;372;03.59.01.419
12876;169929;33.72;373;03.59.01.419
12908;169941;33.72;374;03.59.01.430
12896;169938;33.72;375;03.59.01.485
12888;169938;33.72;376;03.59.01.485
12880;169934;33.72;377;03.59.01.485
12888;169932;33.72;378;03.59.01.485
12868;169933;33.72;379;03.59.01.496
12928;169934;33.72;380;03.59.01.496
12896;169931;33.72;381;03.59.01.496
12888;169934;33.72;382;03.59.01.496
12896;169940;33.72;383;03.59.01.507
12888;169935;33.72;384;03.59.01.507
12896;169929;33.72;385;03.59.01.507
12904;169935;33.72;386;03.59.01.507
12896;169933;33.72;387;03.59.01.507
12876;169934;33.72;388;03.59.01.507
12904;169932;33.72;389;03.59.01.507
12872;169940;33.72;390;03.59.01.507
12884;169929;33.72;391;03.59.01.507
12904;169931;33.72;392;03.59.01.507
12884;169931;33.72;393;03.59.01.507
12892;169938;33.72;394;03.59.01.507
12884;169937;33.72;395;03.59.01.507
12896;169934;33.72;396;03.59.01.507
12928;169937;33.72;397;03.59.01.518
12880;169934;33.72;398;03.59.01.518
12896;169935;33.72;399;03.59.01.518
12876;169933;33.72;400;03.59.01.617
12888;169935;33.72;401;03.59.01.617
12876;169930;33.72;402;03.59.01.617
12880;169938;33.72;403;03.59.01.617
12904;169938;33.72;404;03.59.01.617
12896;169936;33.72;405;03.59.01.617
12884;169943;33.72;406;03.59.01.617
12892;169934;33.72;407;03.59.01.617
12904;169941;33.72;408;03.59.01.617
12872;169952;33.72;409;03.59.01.617
12884;169943;33.72;410;03.59.01.617
12896;169945;33.72;411;03.59.01.617
12864;169958;33.72;412;03.59.01.617
12860;169955;33.72;413;03.59.01.627
12860;169948;33.72;414;03.59.01.627
12904;169947;33.72;415;03.59.01.627
12880;169955;33.72;416;03.59.01.627
12876;169957;33.72;417;03.59.01.627
12868;169954;33.72;418;03.59.01.627
12896;169950;33.72;419;03.59.01.627
12860;169960;33.72;420;03.59.01.627
12856;169960;33.72;421;03.59.01.627
12868;169961;33.72;422;03.59.01.627
12880;169958;33.72;423;03.59.01.627
12892;169957;33.72;424;03.59.01.627
12880;169960;33.72;425;03.59.01.737
12884;169966;33.72;426;03.59.01.737
12896;169965;33.72;427;03.59.01.737
12876;169964;33.72;428;03.59.01.737
12880;169963;33.72;429;03.59.01.737
12888;169973;33.72;430;03.59.01.737
12884;169973;33.72;431;03.59.01.737
12884;169976;33.72;432;03.59.01.737
12888;169979;33.72;433;03.59.01.737
12888;169977;33.72;434;03.59.01.748
12876;169978;33.72;435;03.59.01.748
12888;169977;33.72;436;03.59.01.748
12864;169985;33.72;437;03.59.01.748
12844;169992;33.72;438;03.59.01.748
12892;169993;33.72;439;03.59.01.748
12892;170000;33.72;440;03.59.01.748
12888;170000;33.72;441;03.59.01.748
12884;170006;33.72;442;03.59.01.748
12896;169994;33.72;443;03.59.01.748
12884;170008;33.72;444;03.59.01.748
12880;170016;33.72;445;03.59.01.748
12872;170031;33.72;446;03.59.01.748
12872;170033;33.72;447;03.59.01.759
12884;170036;33.72;448;03.59.01.759
12888;170045;33.72;449;03.59.01.759
12844;170051;33.76;450;03.59.01.890
12904;170060;33.76;451;03.59.01.890
12912;170075;33.76;452;03.59.01.890
12872;170077;33.76;453;03.59.01.901
12884;170088;33.76;454;03.59.01.901
12892;170094;33.76;455;03.59.01.901
12884;170115;33.76;456;03.59.01.901
12884;170119;33.76;457;03.59.01.901
12860;170139;33.76;458;03.59.01.901
12892;170143;33.76;459;03.59.01.901
12900;170149;33.76;460;03.59.01.901
12876;170162;33.76;461;03.59.01.901
12896;170173;33.76;462;03.59.01.901
12888;170186;33.76;463;03.59.01.901
12900;170197;33.76;464;03.59.01.901
12892;170212;33.76;465;03.59.01.901
12900;170225;33.76;466;03.59.01.901
12880;170241;33.76;467;03.59.01.912
12896;170248;33.76;468;03.59.01.912
12876;170263;33.76;469;03.59.01.912
12876;170278;33.76;470;03.59.01.912
12876;170288;33.76;471;03.59.01.923
12896;170303;33.76;472;03.59.01.923
12860;170312;33.76;473;03.59.01.923
12896;170328;33.76;474;03.59.01.923
12884;170337;33.76;475;03.59.02.010
12872;170347;33.76;476;03.59.02.010
12888;170356;33.76;477;03.59.02.010
12864;170367;33.76;478;03.59.02.010
12864;170373;33.76;479;03.59.02.010
12880;170375;33.76;480;03.59.02.010
12888;170381;33.76;481;03.59.02.010
12872;170386;33.76;482;03.59.02.010
12928;170381;33.76;483;03.59.02.010
12860;170403;33.76;484;03.59.02.010
12888;170406;33.76;485;03.59.02.010
12884;170418;33.76;486;03.59.02.010
12888;170417;33.76;487;03.59.02.010
12928;170424;33.76;488;03.59.02.021
12888;170429;33.76;489;03.59.02.021
12876;170444;33.76;490;03.59.02.021
12876;170442;33.76;491;03.59.02.021
12900;170438;33.76;492;03.59.02.021
12884;170448;33.76;493;03.59.02.021
12888;170450;33.76;494;03.59.02.021
12896;170434;33.76;495;03.59.02.021
12904;170437;33.76;496;03.59.02.021
12888;170438;33.76;497;03.59.02.021
12888;170441;33.76;498;03.59.02.021
12904;170443;33.76;499;03.59.02.021
12900;170445;33.76;500;03.59.02.109
12904;170457;33.76;501;03.59.02.109
12892;170460;33.76;502;03.59.02.109
12900;170466;33.76;503;03.59.02.109
12888;170466;33.76;504;03.59.02.109
12888;170473;33.76;505;03.59.02.109
12904;170478;33.76;506;03.59.02.109
12892;170471;33.76;507;03.59.02.109
12892;170481;33.76;508;03.59.02.109
12876;170485;33.76;509;03.59.02.109
12888;170486;33.76;510;03.59.02.120
12880;170491;33.76;511;03.59.02.120
12888;170489;33.76;512;03.59.02.120
12876;170484;33.76;513;03.59.02.120
12876;170486;33.76;514;03.59.02.120
12876;170481;33.76;515;03.59.02.120
12868;170485;33.76;516;03.59.02.120
12872;170488;33.76;517;03.59.02.120
12876;170484;33.76;518;03.59.02.120
12904;170488;33.76;519;03.59.02.120
12884;170494;33.76;520;03.59.02.120
12888;170485;33.76;521;03.59.02.120
12884;170485;33.76;522;03.59.02.120
12860;170484;33.76;523;03.59.02.131
12896;170478;33.76;524;03.59.02.131
12884;170483;33.76;525;03.59.02.230
12884;170489;33.76;526;03.59.02.230
12868;170472;33.76;527;03.59.02.230
12888;170472;33.76;528;03.59.02.230
12892;170476;33.76;529;03.59.02.230
12876;170470;33.76;530;03.59.02.230
12900;170465;33.76;531;03.59.02.241
12900;170453;33.76;532;03.59.02.241
12892;170453;33.76;533;03.59.02.241
12908;170445;33.76;534;03.59.02.241
12892;170433;33.76;535;03.59.02.241
12896;170433;33.76;536;03.59.02.241
12884;170422;33.76;537;03.59.02.241
12896;170406;33.76;538;03.59.02.241
12880;170405;33.76;539;03.59.02.241
12876;170398;33.76;540;03.59.02.241
12856;170389;33.76;541;03.59.02.241
12888;170393;33.76;542;03.59.02.241
12876;170381;33.76;543;03.59.02.241
12888;170378;33.76;544;03.59.02.252
12896;170370;33.76;545;03.59.02.252
12864;170362;33.76;546;03.59.02.252
12904;170354;33.76;547;03.59.02.252
12888;170350;33.76;548;03.59.02.252
12916;170345;33.76;549;03.59.02.252
12884;170331;33.72;550;03.59.02.360
12904;170313;33.72;551;03.59.02.371
12872;170312;33.72;552;03.59.02.371
12888;170303;33.72;553;03.59.02.371
12884;170289;33.72;554;03.59.02.371
12884;170269;33.72;555;03.59.02.371
12872;170258;33.72;556;03.59.02.371
12860;170247;33.72;557;03.59.02.371
12884;170228;33.72;558;03.59.02.371
12896;170226;33.72;559;03.59.02.371
12876;170200;33.72;560;03.59.02.371
12880;170192;33.72;561;03.59.02.371
12888;170170;33.72;562;03.59.02.371
12888;170157;33.72;563;03.59.02.371
12904;170140;33.72;564;03.59.02.382
12896;170125;33.72;565;03.59.02.382
12884;170105;33.72;566;03.59.02.382
12888;170102;33.72;567;03.59.02.382
12876;170086;33.72;568;03.59.02.382
12884;170083;33.72;569;03.59.02.393
12896;170068;33.72;570;03.59.02.393
12880;170057;33.72;571;03.59.02.393
12872;170046;33.72;572;03.59.02.393
12860;170040;33.72;573;03.59.02.393
12868;170033;33.72;574;03.59.02.393
12900;170030;33.72;575;03.59.02.525
12892;170021;33.72;576;03.59.02.525
12884;170025;33.72;577;03.59.02.525
12892;170016;33.72;578;03.59.02.525
12880;170011;33.72;579;03.59.02.525
12896;169998;33.72;580;03.59.02.525
12900;170002;33.72;581;03.59.02.525
12900;170000;33.72;582;03.59.02.525
12896;169995;33.72;583;03.59.02.536
12880;169989;33.72;584;03.59.02.536
12904;169984;33.72;585;03.59.02.536
12892;169973;33.72;586;03.59.02.536
12892;169968;33.72;587;03.59.02.536
12860;169964;33.72;588;03.59.02.536
12888;169965;33.72;589;03.59.02.536
12880;169965;33.72;590;03.59.02.536
12896;169953;33.72;591;03.59.02.536
12888;169949;33.72;592;03.59.02.547
12868;169946;33.72;593;03.59.02.547
12896;169946;33.72;594;03.59.02.547
12884;169938;33.72;595;03.59.02.547
12888;169937;33.72;596;03.59.02.547
12852;169936;33.72;597;03.59.02.547
12892;169931;33.72;598;03.59.02.547
12920;169923;33.72;599;03.59.02.547
12848;169932;33.72;600;03.59.02.613
12896;169930;33.72;601;03.59.02.613
12896;169933;33.72;602;03.59.02.613
12900;169931;33.72;603;03.59.02.613
12876;169928;33.72;604;03.59.02.613
12900;169923;33.72;605;03.59.02.613
12896;169929;33.72;606;03.59.02.613
12896;169919;33.72;607;03.59.02.624
12876;169917;33.72;608;03.59.02.624
12896;169923;33.72;609;03.59.02.624
12852;169920;33.72;610;03.59.02.624
12900;169918;33.72;611;03.59.02.624
12852;169919;33.72;612;03.59.02.624
12916;169918;33.72;613;03.59.02.624
12888;169918;33.72;614;03.59.02.635
12860;169926;33.72;615;03.59.02.635
12864;169920;33.72;616;03.59.02.635
12928;169925;33.72;617;03.59.02.635
12884;169931;33.72;618;03.59.02.635
12884;169923;33.72;619;03.59.02.635
12908;169917;33.72;620;03.59.02.635
12884;169918;33.72;621;03.59.02.635
12912;169918;33.72;622;03.59.02.635
12892;169909;33.72;623;03.59.02.635
12928;169921;33.72;624;03.59.02.635
12904;169923;33.72;625;03.59.02.733
12928;169921;33.72;626;03.59.02.733
12884;169926;33.72;627;03.59.02.733
12876;169920;33.72;628;03.59.02.744
12868;169923;33.72;629;03.59.02.744
12896;169928;33.72;630;03.59.02.744
12896;169928;33.72;631;03.59.02.744
12912;169927;33.72;632;03.59.02.744
12872;169922;33.72;633;03.59.02.744
12860;169923;33.72;634;03.59.02.744
12876;169932;33.72;635;03.59.02.744
12888;169930;33.72;636;03.59.02.744
12880;169930;33.72;637;03.59.02.744
12876;169926;33.72;638;03.59.02.744
12880;169930;33.72;639;03.59.02.744
12896;169929;33.72;640;03.59.02.744
12904;169934;33.72;641;03.59.02.744
12884;169930;33.72;642;03.59.02.755
12896;169927;33.72;643;03.59.02.755
12908;169935;33.72;644;03.59.02.755
12892;169931;33.72;645;03.59.02.755
12868;169934;33.72;646;03.59.02.755
12864;169938;33.72;647;03.59.02.755
12904;169931;33.72;648;03.59.02.755
12912;169926;33.72;649;03.59.02.755
12904;169935;33.72;650;03.59.02.863
12896;169927;33.72;651;03.59.02.863
12904;169923;33.72;652;03.59.02.863
12884;169919;33.72;653;03.59.02.863
12880;169914;33.72;654;03.59.02.863
12888;169909;33.72;655;03.59.02.863
12900;169905;33.72;656;03.59.02.863
12892;169892;33.72;657;03.59.02.863
12884;169885;33.72;658;03.59.02.863
12916;169888;33.72;659;03.59.02.863
12876;169879;33.72;660;03.59.02.863
12888;169872;33.72;661;03.59.02.874
12884;169875;33.72;662;03.59.02.874
12904;169859;33.72;663;03.59.02.874
12896;169859;33.72;664;03.59.02.874
12900;169843;33.72;665;03.59.02.874
12880;169838;33.72;666;03.59.02.874
12904;169850;33.72;667;03.59.02.874
12876;169830;33.72;668;03.59.02.874
12876;169826;33.72;669;03.59.02.874
12884;169823;33.72;670;03.59.02.874
12880;169828;33.72;671;03.59.02.874
12864;169817;33.72;672;03.59.02.874
12884;169818;33.72;673;03.59.02.874
12876;169816;33.72;674;03.59.02.885
12896;169807;33.72;675;03.59.02.995
12912;169811;33.72;676;03.59.02.995
12872;169804;33.72;677;03.59.02.995
12884;169813;33.72;678;03.59.02.995
12880;169802;33.72;679;03.59.02.995
12880;169806;33.72;680;03.59.02.995
12888;169805;33.72;681;03.59.02.995
12892;169801;33.72;682;03.59.03.006
12872;169794;33.72;683;03.59.03.006
12876;169798;33.72;684;03.59.03.006
12896;169791;33.72;685;03.59.03.006
12884;169790;33.72;686;03.59.03.006
12888;169798;33.72;687;03.59.03.006
12896;169787;33.72;688;03.59.03.006
12900;169789;33.72;689;03.59.03.006
12888;169785;33.72;690;03.59.03.006
12880;169791;33.72;691;03.59.03.006
12904;169778;33.72;692;03.59.03.006
12904;169785;33.72;693;03.59.03.006
12900;169776;33.72;694;03.59.03.006
12884;169776;33.72;695;03.59.03.017
12896;169784;33.72;696;03.59.03.017
12876;169778;33.72;697;03.59.03.017
12868;169777;33.72;698;03.59.03.017
12900;169770;33.72;699;03.59.03.017
12884;169775;33.72;700;03.59.03.105
12880;169771;33.72;701;03.59.03.105
12860;169785;33.72;702;03.59.03.105
12884;169773;33.72;703;03.59.03.116
12876;169776;33.72;704;03.59.03.116
12896;169786;33.72;705;03.59.03.116
12880;169774;33.72;706;03.59.03.116
12884;169779;33.72;707;03.59.03.116
12904;169783;33.72;708;03.59.03.138
12864;169784;33.72;709;03.59.03.138
12900;169783;33.72;710;03.59.03.138
12864;169787;33.72;711;03.59.03.148
12900;169790;33.72;712;03.59.03.148
12880;169779;33.72;713;03.59.03.148
12904;169777;33.72;714;03.59.03.148
12904;169783;33.72;715;03.59.03.148
12872;169787;33.72;716;03.59.03.148
12900;169782;33.72;717;03.59.03.148
12900;169776;33.72;718;03.59.03.148
12876;169779;33.72;719;03.59.03.148
12880;169774;33.72;720;03.59.03.148
12884;169776;33.72;721;03.59.03.148
12896;169781;33.72;722;03.59.03.148
12876;169770;33.72;723;03.59.03.148
12916;169774;33.72;724;03.59.03.159
12912;169766;33.72;725;03.59.03.236
12884;169770;33.72;726;03.59.03.236
12888;169770;33.72;727;03.59.03.236
12888;169774;33.72;728;03.59.03.236
12896;169774;33.72;729;03.59.03.236
12904;169772;33.72;730;03.59.03.236
12884;169762;33.72;731;03.59.03.236
12904;169774;33.72;732;03.59.03.236
12888;169778;33.72;733;03.59.03.236
12888;169776;33.72;734;03.59.03.236
12888;169775;33.72;735;03.59.03.236
12880;169784;33.72;736;03.59.03.236
12900;169780;33.72;737;03.59.03.247
12860;169776;33.72;738;03.59.03.247
12892;169774;33.72;739;03.59.03.247
12904;169782;33.72;740;03.59.03.247
12912;169789;33.72;741;03.59.03.247
12928;169789;33.72;742;03.59.03.247
12900;169789;33.72;743;03.59.03.247
12892;169795;33.72;744;03.59.03.247
12900;169794;33.72;745;03.59.03.247
12904;169798;33.72;746;03.59.03.247
12884;169791;33.72;747;03.59.03.247
12896;169799;33.72;748;03.59.03.247
12860;169793;33.72;749;03.59.03.247
12896;169795;33.72;750;03.59.03.379
12900;169793;33.72;751;03.59.03.379
12884;169790;33.72;752;03.59.03.379
12880;169790;33.72;753;03.59.03.379
12888;169792;33.72;754;03.59.03.379
12880;169799;33.72;755;03.59.03.379
12892;169802;33.72;756;03.59.03.379
12904;169802;33.72;757;03.59.03.379
12912;169811;33.72;758;03.59.03.412
12896;169803;33.72;759;03.59.03.412
12896;169813;33.72;760;03.59.03.412
12900;169818;33.72;761;03.59.03.412
12908;169813;33.72;762;03.59.03.412
12880;169810;33.72;763;03.59.03.412
12892;169825;33.72;764;03.59.03.412
12896;169820;33.72;765;03.59.03.412
12912;169825;33.72;766;03.59.03.412
12868;169823;33.72;767;03.59.03.423
12892;169826;33.72;768;03.59.03.423
12880;169828;33.72;769;03.59.03.423
12876;169828;33.72;770;03.59.03.423
12896;169825;33.72;771;03.59.03.423
12872;169824;33.72;772;03.59.03.423
12884;169829;33.72;773;03.59.03.423
12868;169824;33.72;774;03.59.03.423
12920;169829;33.72;775;03.59.03.500
12888;169827;33.72;776;03.59.03.500
12876;169836;33.72;777;03.59.03.500
12872;169835;33.72;778;03.59.03.500
12868;169838;33.72;779;03.59.03.500
12900;169848;33.72;780;03.59.03.511
12900;169836;33.72;781;03.59.03.511
12864;169841;33.72;782;03.59.03.511
12904;169844;33.72;783;03.59.03.511
12884;169841;33.72;784;03.59.03.511
12876;169838;33.72;785;03.59.03.511
12892;169846;33.72;786;03.59.03.511
12896;169843;33.72;787;03.59.03.511
12860;169848;33.72;788;03.59.03.511
12904;169845;33.72;789;03.59.03.511
12884;169850;33.72;790;03.59.03.511
12868;169848;33.72;791;03.59.03.511
12908;169853;33.72;792;03.59.03.521
12860;169854;33.72;793;03.59.03.521
12900;169862;33.72;794;03.59.03.521
12892;169862;33.72;795;03.59.03.521
12884;169866;33.72;796;03.59.03.521
12928;169870;33.72;797;03.59.03.521
12884;169867;33.72;798;03.59.03.521
12908;169877;33.72;799;03.59.03.521
12880;169879;33.76;800;03.59.03.620
12892;169883;33.76;801;03.59.03.631
12908;169871;33.76;802;03.59.03.631
12892;169882;33.76;803;03.59.03.631
12896;169887;33.76;804;03.59.03.631
12884;169887;33.76;805;03.59.03.631
12880;169881;33.76;806;03.59.03.631
12896;169889;33.76;807;03.59.03.631
12896;169885;33.76;808;03.59.03.631
12904;169888;33.76;809;03.59.03.631
12888;169887;33.76;810;03.59.03.631
12912;169879;33.76;811;03.59.03.631
12892;169883;33.76;812;03.59.03.631
12872;169882;33.76;813;03.59.03.631
12892;169871;33.76;814;03.59.03.631
12900;169870;33.76;815;03.59.03.642
12908;169862;33.76;816;03.59.03.642
12892;169854;33.76;817;03.59.03.642
12900;169851;33.76;818;03.59.03.653
12896;169846;33.76;819;03.59.03.653
12880;169839;33.76;820;03.59.03.653
12896;169831;33.76;821;03.59.03.653
12888;169837;33.76;822;03.59.03.653
12904;169826;33.76;823;03.59.03.653
12904;169822;33.76;824;03.59.03.653
12888;169816;33.76;825;03.59.03.741
12888;169803;33.76;826;03.59.03.741
12896;169797;33.76;827;03.59.03.741
12920;169787;33.76;828;03.59.03.741
12896;169788;33.76;829;03.59.03.741
12880;169780;33.76;830;03.59.03.741
12904;169779;33.76;831;03.59.03.741
12892;169771;33.76;832;03.59.03.741
12892;169769;33.76;833;03.59.03.773
12880;169773;33.76;834;03.59.03.773
12888;169766;33.76;835;03.59.03.773
12904;169762;33.76;836;03.59.03.773
12908;169768;33.76;837;03.59.03.773
12876;169765;33.76;838;03.59.03.773
12872;169760;33.76;839;03.59.03.773
12888;169760;33.76;840;03.59.03.773
12892;169755;33.76;841;03.59.03.773
12860;169749;33.76;842;03.59.03.773
12868;169758;33.76;843;03.59.03.784
12900;169760;33.76;844;03.59.03.784
12896;169755;33.76;845;03.59.03.784
12876;169748;33.76;846;03.59.03.784
12892;169747;33.76;847;03.59.03.784
12900;169751;33.76;848;03.59.03.784
12912;169744;33.76;849;03.59.03.784
12888;169736;33.76;850;03.59.03.861
12892;169741;33.76;851;03.59.03.861
12880;169741;33.76;852;03.59.03.861
12892;169729;33.76;853;03.59.03.861
12876;169727;33.76;854;03.59.03.861
12880;169727;33.76;855;03.59.03.861
12876;169726;33.76;856;03.59.03.872
12888;169723;33.76;857;03.59.03.872
12892;169726;33.76;858;03.59.03.872
12868;169738;33.76;859;03.59.03.872
12880;169726;33.76;860;03.59.03.872
12892;169738;33.76;861;03.59.03.872
12876;169737;33.76;862;03.59.03.872
12896;169734;33.76;863;03.59.03.872
12868;169733;33.76;864;03.59.03.872
12884;169733;33.76;865;03.59.03.872
12892;169740;33.76;866;03.59.03.872
12900;169740;33.76;867;03.59.03.872
12860;169746;33.76;868;03.59.03.872
12896;169739;33.76;869;03.59.03.883
12928;169739;33.76;870;03.59.03.883
12876;169739;33.76;871;03.59.03.883
12904;169740;33.76;872;03.59.03.883
12896;169740;33.76;873;03.59.03.883
12888;169741;33.76;874;03.59.03.883
12880;169743;33.76;875;03.59.03.992
12892;169743;33.76;876;03.59.03.992
12876;169737;33.76;877;03.59.04.003
12892;169751;33.76;878;03.59.04.003
12900;169737;33.76;879;03.59.04.003
12888;169737;33.76;880;03.59.04.003
12896;169736;33.76;881;03.59.04.003
12912;169750;33.76;882;03.59.04.003
12876;169747;33.76;883;03.59.04.003
12896;169739;33.76;884;03.59.04.003
12884;169736;33.76;885;03.59.04.003
12880;169748;33.76;886;03.59.04.014
12896;169746;33.76;887;03.59.04.014
12876;169742;33.76;888;03.59.04.014
12868;169743;33.76;889;03.59.04.014
12884;169747;33.76;890;03.59.04.014
12868;169752;33.76;891;03.59.04.014
12896;169738;33.76;892;03.59.04.014
12888;169742;33.76;893;03.59.04.014
12884;169751;33.76;894;03.59.04.014
12848;169753;33.76;895;03.59.04.014
12876;169754;33.76;896;03.59.04.014
12904;169759;33.76;897;03.59.04.014
12880;169758;33.76;898;03.59.04.025
12892;169753;33.76;899;03.59.04.025
12884;169763;33.72;900;03.59.04.112
12904;169764;33.72;901;03.59.04.112
12904;169765;33.72;902;03.59.04.112
12912;169757;33.72;903;03.59.04.112
12888;169763;33.72;904;03.59.04.112
12892;169771;33.72;905;03.59.04.112
12880;169772;33.72;906;03.59.04.112
12896;169765;33.72;907;03.59.04.112
12896;169769;33.72;908;03.59.04.112
12896;169775;33.72;909;03.59.04.112
12880;169776;33.72;910;03.59.04.123
12860;169770;33.72;911;03.59.04.123
12904;169763;33.72;912;03.59.04.123
12896;169774;33.72;913;03.59.04.123
12864;169778;33.72;914;03.59.04.123
12888;169776;33.72;915;03.59.04.123
12860;169770;33.72;916;03.59.04.123
12892;169776;33.72;917;03.59.04.134
12860;169773;33.72;918;03.59.04.134
12888;169783;33.72;919;03.59.04.134
12888;169779;33.72;920;03.59.04.134
12884;169788;33.72;921;03.59.04.134
12880;169784;33.72;922;03.59.04.134
12912;169792;33.72;923;03.59.04.134
12896;169793;33.72;924;03.59.04.134
12876;169785;33.72;925;03.59.04.233
12892;169790;33.72;926;03.59.04.233
12864;169792;33.72;927;03.59.04.233
12912;169787;33.72;928;03.59.04.233
12852;169788;33.72;929;03.59.04.233
12876;169788;33.72;930;03.59.04.233
12880;169798;33.72;931;03.59.04.233
12892;169798;33.72;932;03.59.04.244
12900;169791;33.72;933;03.59.04.244
12884;169796;33.72;934;03.59.04.244
12896;169792;33.72;935;03.59.04.244
12904;169802;33.72;936;03.59.04.244
12884;169804;33.72;937;03.59.04.244
12888;169802;33.72;938;03.59.04.244
12896;169796;33.72;939;03.59.04.244
12876;169805;33.72;940;03.59.04.244
12872;169807;33.72;941;03.59.04.255
12868;169814;33.72;942;03.59.04.266
12900;169824;33.72;943;03.59.04.266
12884;169813;33.72;944;03.59.04.266
12888;169818;33.72;945;03.59.04.266
12896;169817;33.72;946;03.59.04.266
12896;169820;33.72;947;03.59.04.266
12860;169819;33.72;948;03.59.04.266
12896;169820;33.72;949;03.59.04.277
12872;169820;33.76;950;03.59.04.354
12920;169828;33.76;951;03.59.04.354
12888;169832;33.76;952;03.59.04.354
12900;169831;33.76;953;03.59.04.365
12868;169834;33.76;954;03.59.04.365
12896;169830;33.76;955;03.59.04.365
12896;169834;33.76;956;03.59.04.365
12900;169842;33.76;957;03.59.04.365
12884;169848;33.76;958;03.59.04.365
12880;169838;33.76;959;03.59.04.365
12900;169849;33.76;960;03.59.04.365
12880;169848;33.76;961;03.59.04.376
12892;169856;33.76;962;03.59.04.376
12892;169851;33.76;963;03.59.04.376
12880;169845;33.76;964;03.59.04.376
12892;169845;33.76;965;03.59.04.376
12860;169850;33.76;966;03.59.04.376
12908;169855;33.76;967;03.59.04.398
12884;169852;33.76;968;03.59.04.398
12900;169864;33.76;969;03.59.04.398
12884;169863;33.76;970;03.59.04.398
12904;169855;33.76;971;03.59.04.409
12880;169860;33.76;972;03.59.04.409
12896;169861;33.76;973;03.59.04.409
12920;169860;33.76;974;03.59.04.409
12880;169863;33.76;975;03.59.04.496
12896;169868;33.76;976;03.59.04.496
12912;169860;33.76;977;03.59.04.496
12896;169861;33.76;978;03.59.04.496
12880;169872;33.76;979;03.59.04.496
12880;169864;33.76;980;03.59.04.496
12872;169853;33.76;981;03.59.04.496
12892;169852;33.76;982;03.59.04.496
12892;169838;33.76;983;03.59.04.496
12904;169838;33.76;984;03.59.04.496
12892;169839;33.76;985;03.59.04.496
12896;169833;33.76;986;03.59.04.496
12900;169824;33.76;987;03.59.04.496
12884;169815;33.76;988;03.59.04.507
12888;169812;33.76;989;03.59.04.507
12904;169809;33.76;990;03.59.04.507
12876;169804;33.76;991;03.59.04.507
12884;169792;33.76;992;03.59.04.507
12888;169792;33.76;993;03.59.04.507
12908;169788;33.76;994;03.59.04.507
12872;169788;33.76;995;03.59.04.507
12896;169776;33.76;996;03.59.04.507
12880;169775;33.76;997;03.59.04.507
12892;169772;33.76;998;03.59.04.507
12888;169774;33.76;999;03.59.04.507
12892;169763;33.72;000;03.59.04.628
12888;169757;33.72;001;03.59.04.628
12900;169759;33.72;002;03.59.04.628
12884;169762;33.72;003;03.59.04.628
12884;169765;33.72;004;03.59.04.628
12896;169766;33.72;005;03.59.04.628
12888;169756;33.72;006;03.59.04.628
12892;169768;33.72;007;03.59.04.628
12888;169760;33.72;008;03.59.04.628
12872;169756;33.72;009;03.59.04.639
12884;169752;33.72;010;03.59.04.639
12888;169759;33.72;011;03.59.04.639
12864;169750;33.72;012;03.59.04.639
12892;169755;33.72;013;03.59.04.639
12884;169754;33.72;014;03.59.04.639
12896;169746;33.72;015;03.59.04.639
12888;169750;33.72;016;03.59.04.639
12904;169748;33.72;017;03.59.04.639
12896;169744;33.72;018;03.59.04.639
12864;169738;33.72;019;03.59.04.639
12880;169735;33.72;020;03.59.04.639
12876;169732;33.72;021;03.59.04.639
12876;169731;33.72;022;03.59.04.650
12884;169731;33.72;023;03.59.04.650
12884;169728;33.72;024;03.59.04.650
12896;169731;33.72;025;03.59.04.738
12884;169723;33.72;026;03.59.04.738
12892;169729;33.72;027;03.59.04.738
12872;169727;33.72;028;03.59.04.738
12884;169720;33.72;029;03.59.04.738
12868;169726;33.72;030;03.59.04.738
12896;169729;33.72;031;03.59.04.749
12900;169738;33.72;032;03.59.04.749
12912;169732;33.72;033;03.59.04.760
12880;169718;33.72;034;03.59.04.760
12880;169726;33.72;035;03.59.04.760
12860;169738;33.72;036;03.59.04.760
12872;169732;33.72;037;03.59.04.771
12892;169741;33.72;038;03.59.04.771
12884;169736;33.72;039;03.59.04.771
12920;169739;33.72;040;03.59.04.771
12884;169735;33.72;041;03.59.04.771
12872;169735;33.72;042;03.59.04.771
12872;169743;33.72;043;03.59.04.771
12876;169733;33.72;044;03.59.04.771
12876;169739;33.72;045;03.59.04.771
12896;169737;33.72;046;03.59.04.771
12864;169734;33.72;047;03.59.04.771
12880;169728;33.72;048;03.59.04.771
12912;169731;33.72;049;03.59.04.771
12912;169737;33.76;050;03.59.04.858
12884;169737;33.76;051;03.59.04.869
12900;169741;33.76;052;03.59.04.869
12860;169743;33.76;053;03.59.04.869
12904;169746;33.76;054;03.59.04.869
12888;169755;33.76;055;03.59.04.869
12900;169752;33.76;056;03.59.04.869
12876;169742;33.76;057;03.59.04.869
12900;169748;33.76;058;03.59.04.869
12872;169755;33.76;059;03.59.04.869
12892;169750;33.76;060;03.59.04.869
12892;169757;33.76;061;03.59.04.869
12876;169753;33.76;062;03.59.04.869
12888;169751;33.76;063;03.59.04.869
12896;169748;33.76;064;03.59.04.869
12896;169756;33.76;065;03.59.04.880
12876;169756;33.76;066;03.59.04.880
12876;169752;33.76;067;03.59.04.880
12888;169749;33.76;068;03.59.04.880
12892;169749;33.76;069;03.59.04.880
12904;169753;33.76;070;03.59.04.880
12880;169756;33.76;071;03.59.04.880
12872;169763;33.76;072;03.59.04.880
12904;169762;33.76;073;03.59.04.880
12876;169759;33.76;074;03.59.04.880
12884;169767;33.76;075;03.59.04.990
12904;169763;33.76;076;03.59.04.990
12884;169764;33.76;077;03.59.04.990
12868;169772;33.76;078;03.59.04.990
12900;169774;33.76;079;03.59.04.990
12884;169767;33.76;080;03.59.04.990
12860;169771;33.76;081;03.59.04.990
