gsr; bvp; skt; skt2; Cont; time
12916;176266;34.28;267;03.16.16.872
12932;176261;34.28;268;03.16.16.872
12928;176264;34.28;269;03.16.16.883
12944;176261;34.28;270;03.16.16.883
12944;176264;34.28;271;03.16.16.883
12932;176261;34.28;272;03.16.16.883
12928;176258;34.28;273;03.16.16.883
12904;176253;34.28;274;03.16.16.883
12948;176256;34.24;275;03.16.16.955
12924;176251;34.24;276;03.16.16.955
12940;176254;34.24;277;03.16.16.955
12928;176259;34.24;278;03.16.16.955
12940;176261;34.24;279;03.16.16.955
12956;176256;34.24;280;03.16.16.955
12912;176259;34.24;281;03.16.16.955
12952;176258;34.24;282;03.16.16.955
12924;176261;34.24;283;03.16.16.955
12936;176249;34.24;284;03.16.16.955
12940;176249;34.24;285;03.16.16.955
12944;176247;34.24;286;03.16.16.955
12940;176246;34.24;287;03.16.16.955
12920;176253;34.24;288;03.16.16.955
12960;176253;34.24;289;03.16.16.955
12920;176252;34.24;290;03.16.16.955
12944;176249;34.24;291;03.16.16.955
12928;176254;34.24;292;03.16.16.999
12932;176259;34.24;293;03.16.16.999
12936;176260;34.24;294;03.16.16.999
12932;176261;34.24;295;03.16.16.999
12944;176251;34.24;296;03.16.16.999
12952;176260;34.24;297;03.16.17.010
12964;176254;34.24;298;03.16.17.010
12920;176263;34.24;299;03.16.17.010
12960;176266;34.24;300;03.16.17.076
12924;176253;34.24;301;03.16.17.076
12932;176257;34.24;302;03.16.17.087
12940;176263;34.24;303;03.16.17.087
12944;176265;34.24;304;03.16.17.087
12908;176273;34.24;305;03.16.17.087
12924;176266;34.24;306;03.16.17.087
12964;176270;34.24;307;03.16.17.087
12960;176261;34.24;308;03.16.17.087
12944;176274;34.24;309;03.16.17.087
12952;176272;34.24;310;03.16.17.087
12928;176274;34.24;311;03.16.17.087
12944;176280;34.24;312;03.16.17.087
12944;176276;34.24;313;03.16.17.087
12944;176274;34.24;314;03.16.17.098
12932;176282;34.24;315;03.16.17.098
12928;176275;34.24;316;03.16.17.098
12944;176289;34.24;317;03.16.17.098
12928;176278;34.24;318;03.16.17.098
12916;176274;34.24;319;03.16.17.098
12924;176277;34.24;320;03.16.17.098
12960;176276;34.24;321;03.16.17.098
12924;176280;34.24;322;03.16.17.098
12964;176280;34.24;323;03.16.17.098
12960;176270;34.24;324;03.16.17.098
12952;176283;34.28;325;03.16.17.218
12948;176273;34.28;326;03.16.17.218
12948;176276;34.28;327;03.16.17.218
12944;176274;34.28;328;03.16.17.218
12916;176268;34.28;329;03.16.17.218
12928;176268;34.28;330;03.16.17.218
12924;176273;34.28;331;03.16.17.218
12912;176267;34.28;332;03.16.17.218
12916;176275;34.28;333;03.16.17.229
12932;176279;34.28;334;03.16.17.229
12960;176263;34.28;335;03.16.17.229
12912;176269;34.28;336;03.16.17.229
12924;176267;34.28;337;03.16.17.229
12892;176273;34.28;338;03.16.17.229
12932;176268;34.28;339;03.16.17.229
12908;176268;34.28;340;03.16.17.229
12908;176259;34.28;341;03.16.17.229
12916;176260;34.28;342;03.16.17.229
12948;176260;34.28;343;03.16.17.229
12944;176262;34.28;344;03.16.17.240
12916;176252;34.28;345;03.16.17.240
12908;176260;34.28;346;03.16.17.240
12944;176256;34.28;347;03.16.17.240
12932;176255;34.28;348;03.16.17.240
12968;176245;34.28;349;03.16.17.240
12944;176247;34.28;350;03.16.17.316
12960;176244;34.28;351;03.16.17.316
12928;176236;34.28;352;03.16.17.316
12928;176226;34.28;353;03.16.17.316
12936;176222;34.28;354;03.16.17.316
12944;176238;34.28;355;03.16.17.316
12944;176224;34.28;356;03.16.17.316
12936;176222;34.28;357;03.16.17.316
12932;176226;34.28;358;03.16.17.327
12960;176215;34.28;359;03.16.17.327
12960;176217;34.28;360;03.16.17.327
12916;176219;34.28;361;03.16.17.327
12960;176218;34.28;362;03.16.17.327
12944;176224;34.28;363;03.16.17.327
12944;176215;34.28;364;03.16.17.327
12928;176216;34.28;365;03.16.17.327
12952;176216;34.28;366;03.16.17.338
12932;176227;34.28;367;03.16.17.371
12936;176223;34.28;368;03.16.17.371
12936;176221;34.28;369;03.16.17.371
12936;176223;34.28;370;03.16.17.371
12960;176228;34.28;371;03.16.17.371
12936;176221;34.28;372;03.16.17.371
12936;176227;34.28;373;03.16.17.382
12952;176230;34.28;374;03.16.17.382
12924;176235;34.24;375;03.16.17.437
12924;176232;34.24;376;03.16.17.437
12936;176238;34.24;377;03.16.17.448
12948;176235;34.24;378;03.16.17.448
12940;176243;34.24;379;03.16.17.448
12916;176242;34.24;380;03.16.17.448
12924;176240;34.24;381;03.16.17.448
12928;176235;34.24;382;03.16.17.448
12936;176245;34.24;383;03.16.17.448
12916;176237;34.24;384;03.16.17.448
12932;176238;34.24;385;03.16.17.448
12952;176234;34.24;386;03.16.17.448
12944;176238;34.24;387;03.16.17.448
12924;176236;34.24;388;03.16.17.448
12928;176238;34.24;389;03.16.17.448
12924;176228;34.24;390;03.16.17.448
12940;176220;34.24;391;03.16.17.448
12916;176219;34.24;392;03.16.17.458
12924;176220;34.24;393;03.16.17.458
12928;176212;34.24;394;03.16.17.458
12928;176219;34.24;395;03.16.17.458
12936;176215;34.24;396;03.16.17.458
12936;176219;34.24;397;03.16.17.458
12956;176212;34.24;398;03.16.17.458
12948;176217;34.24;399;03.16.17.458
12924;176217;34.24;400;03.16.17.578
12920;176224;34.24;401;03.16.17.578
12948;176228;34.24;402;03.16.17.578
12924;176236;34.24;403;03.16.17.578
12936;176233;34.24;404;03.16.17.578
12928;176239;34.24;405;03.16.17.578
12964;176238;34.24;406;03.16.17.578
12944;176238;34.24;407;03.16.17.578
12940;176239;34.24;408;03.16.17.578
12960;176250;34.24;409;03.16.17.578
12944;176244;34.24;410;03.16.17.578
12944;176250;34.24;411;03.16.17.589
12940;176250;34.24;412;03.16.17.589
12908;176246;34.24;413;03.16.17.589
12940;176253;34.24;414;03.16.17.589
12948;176254;34.24;415;03.16.17.589
12932;176251;34.24;416;03.16.17.589
12936;176254;34.24;417;03.16.17.600
12936;176259;34.24;418;03.16.17.600
12928;176253;34.24;419;03.16.17.600
12936;176249;34.24;420;03.16.17.600
12936;176247;34.24;421;03.16.17.600
12948;176254;34.24;422;03.16.17.600
12928;176245;34.24;423;03.16.17.600
12956;176240;34.24;424;03.16.17.600
12924;176241;34.24;425;03.16.17.765
12924;176233;34.24;426;03.16.17.765
12936;176229;34.24;427;03.16.17.765
12916;176223;34.24;428;03.16.17.765
12932;176211;34.24;429;03.16.17.765
12912;176217;34.24;430;03.16.17.775
12940;176209;34.24;431;03.16.17.775
12916;176197;34.24;432;03.16.17.775
12960;176193;34.24;433;03.16.17.775
12944;176187;34.24;434;03.16.17.775
12944;176183;34.24;435;03.16.17.775
12936;176177;34.24;436;03.16.17.775
12948;176177;34.24;437;03.16.17.775
12928;176170;34.24;438;03.16.17.775
12920;176166;34.24;439;03.16.17.775
12948;176160;34.24;440;03.16.17.775
12968;176164;34.24;441;03.16.17.775
12928;176164;34.24;442;03.16.17.775
12932;176158;34.24;443;03.16.17.786
12924;176158;34.24;444;03.16.17.786
12944;176154;34.24;445;03.16.17.786
12924;176153;34.24;446;03.16.17.786
12900;176147;34.24;447;03.16.17.786
12900;176147;34.24;448;03.16.17.786
12964;176153;34.24;449;03.16.17.786
12912;176152;34.24;450;03.16.17.819
12892;176153;34.24;451;03.16.17.819
12932;176160;34.24;452;03.16.17.819
12932;176161;34.24;453;03.16.17.830
12940;176163;34.24;454;03.16.17.830
12960;176167;34.24;455;03.16.17.830
12916;176157;34.24;456;03.16.17.830
12924;176166;34.24;457;03.16.17.830
12916;176167;34.24;458;03.16.17.830
12908;176179;34.24;459;03.16.17.830
12944;176177;34.24;460;03.16.17.841
12960;176178;34.24;461;03.16.17.841
12920;176186;34.24;462;03.16.17.841
12932;176187;34.24;463;03.16.17.841
12952;176190;34.24;464;03.16.17.841
12952;176194;34.24;465;03.16.17.841
12924;176196;34.24;466;03.16.17.841
12936;176190;34.24;467;03.16.17.841
12960;176187;34.24;468;03.16.17.841
12960;176191;34.24;469;03.16.17.841
12920;176191;34.24;470;03.16.17.841
12920;176187;34.24;471;03.16.17.841
12936;176201;34.24;472;03.16.17.841
12924;176192;34.24;473;03.16.17.841
12952;176185;34.24;474;03.16.17.852
12928;176184;34.28;475;03.16.17.995
12948;176185;34.28;476;03.16.17.995
12936;176185;34.28;477;03.16.17.995
12940;176177;34.28;478;03.16.17.995
12956;176177;34.28;479;03.16.17.995
12928;176171;34.28;480;03.16.17.995
12932;176164;34.28;481;03.16.17.995
12892;176151;34.28;482;03.16.17.995
12936;176150;34.28;483;03.16.17.995
12928;176149;34.28;484;03.16.17.995
12920;176136;34.28;485;03.16.17.995
12920;176138;34.28;486;03.16.18.006
12924;176131;34.28;487;03.16.18.006
12952;176135;34.28;488;03.16.18.006
12936;176128;34.28;489;03.16.18.006
12952;176119;34.28;490;03.16.18.006
12936;176126;34.28;491;03.16.18.006
12892;176120;34.28;492;03.16.18.028
12944;176104;34.28;493;03.16.18.028
12916;176113;34.28;494;03.16.18.028
12920;176111;34.28;495;03.16.18.028
12944;176105;34.28;496;03.16.18.028
12928;176100;34.28;497;03.16.18.028
12936;176101;34.28;498;03.16.18.028
12964;176104;34.28;499;03.16.18.028
12932;176106;34.28;500;03.16.18.072
12916;176112;34.28;501;03.16.18.072
12920;176116;34.28;502;03.16.18.072
12908;176111;34.28;503;03.16.18.072
12904;176121;34.28;504;03.16.18.072
12920;176129;34.28;505;03.16.18.072
12940;176129;34.28;506;03.16.18.072
12924;176129;34.28;507;03.16.18.072
12944;176134;34.28;508;03.16.18.072
12916;176159;34.28;509;03.16.18.083
12924;176149;34.28;510;03.16.18.083
12928;176152;34.28;511;03.16.18.083
12936;176159;34.28;512;03.16.18.083
12936;176166;34.28;513;03.16.18.083
12892;176166;34.28;514;03.16.18.083
12940;176168;34.28;515;03.16.18.083
12928;176172;34.28;516;03.16.18.083
12924;176177;34.28;517;03.16.18.083
12944;176182;34.28;518;03.16.18.083
12920;176182;34.28;519;03.16.18.083
12916;176182;34.28;520;03.16.18.083
12960;176186;34.28;521;03.16.18.083
12928;176180;34.28;522;03.16.18.094
12892;176181;34.28;523;03.16.18.094
12940;176188;34.28;524;03.16.18.094
12940;176186;34.24;525;03.16.18.203
12924;176180;34.24;526;03.16.18.203
12936;176190;34.24;527;03.16.18.203
12924;176187;34.24;528;03.16.18.203
12928;176198;34.24;529;03.16.18.203
12932;176191;34.24;530;03.16.18.214
12944;176197;34.24;531;03.16.18.214
12924;176196;34.24;532;03.16.18.214
12916;176195;34.24;533;03.16.18.214
12940;176194;34.24;534;03.16.18.214
12944;176181;34.24;535;03.16.18.214
12928;176188;34.24;536;03.16.18.214
12924;176190;34.24;537;03.16.18.214
12920;176185;34.24;538;03.16.18.214
12924;176184;34.24;539;03.16.18.214
12916;176171;34.24;540;03.16.18.214
12936;176178;34.24;541;03.16.18.214
12920;176171;34.24;542;03.16.18.225
12908;176167;34.24;543;03.16.18.225
12928;176172;34.24;544;03.16.18.225
12960;176171;34.24;545;03.16.18.225
12948;176162;34.24;546;03.16.18.225
12960;176167;34.24;547;03.16.18.236
12908;176174;34.24;548;03.16.18.236
12924;176167;34.24;549;03.16.18.236
12976;176167;34.24;550;03.16.18.313
12952;176158;34.24;551;03.16.18.313
12892;176167;34.24;552;03.16.18.324
12924;176171;34.24;553;03.16.18.324
12932;176167;34.24;554;03.16.18.324
12924;176171;34.24;555;03.16.18.324
12940;176174;34.24;556;03.16.18.324
12936;176179;34.24;557;03.16.18.324
12944;176179;34.24;558;03.16.18.324
12944;176186;34.24;559;03.16.18.335
12936;176176;34.24;560;03.16.18.335
12916;176179;34.24;561;03.16.18.335
12912;176183;34.24;562;03.16.18.335
12924;176184;34.24;563;03.16.18.335
12924;176191;34.24;564;03.16.18.335
12908;176188;34.24;565;03.16.18.335
12936;176189;34.24;566;03.16.18.335
12952;176184;34.24;567;03.16.18.335
12928;176193;34.24;568;03.16.18.335
12904;176187;34.24;569;03.16.18.346
12908;176188;34.24;570;03.16.18.346
12924;176189;34.24;571;03.16.18.346
12928;176200;34.24;572;03.16.18.346
12916;176186;34.24;573;03.16.18.346
12960;176194;34.24;574;03.16.18.346
12944;176199;34.24;575;03.16.18.444
12940;176196;34.24;576;03.16.18.444
12924;176194;34.24;577;03.16.18.444
12936;176204;34.24;578;03.16.18.444
12932;176208;34.24;579;03.16.18.444
12952;176214;34.24;580;03.16.18.444
12940;176207;34.24;581;03.16.18.444
12944;176219;34.24;582;03.16.18.444
12924;176217;34.24;583;03.16.18.444
12944;176222;34.24;584;03.16.18.444
12928;176212;34.24;585;03.16.18.444
12908;176222;34.24;586;03.16.18.455
12960;176232;34.24;587;03.16.18.455
12924;176234;34.24;588;03.16.18.455
12952;176223;34.24;589;03.16.18.455
12932;176233;34.24;590;03.16.18.455
12964;176234;34.24;591;03.16.18.455
12940;176239;34.24;592;03.16.18.455
12928;176239;34.24;593;03.16.18.455
12916;176228;34.24;594;03.16.18.455
12916;176234;34.24;595;03.16.18.455
12916;176234;34.24;596;03.16.18.455
12920;176229;34.24;597;03.16.18.455
12916;176234;34.24;598;03.16.18.455
12944;176230;34.24;599;03.16.18.466
12924;176234;34.24;600;03.16.18.565
12936;176226;34.24;601;03.16.18.565
12932;176225;34.24;602;03.16.18.565
12936;176219;34.24;603;03.16.18.565
12936;176232;34.24;604;03.16.18.565
12932;176230;34.24;605;03.16.18.565
12960;176219;34.24;606;03.16.18.565
12928;176225;34.24;607;03.16.18.576
12944;176219;34.24;608;03.16.18.576
12928;176234;34.24;609;03.16.18.576
12960;176231;34.24;610;03.16.18.576
12916;176224;34.24;611;03.16.18.576
12924;176235;34.24;612;03.16.18.576
12936;176239;34.24;613;03.16.18.576
12936;176244;34.24;614;03.16.18.576
12960;176245;34.24;615;03.16.18.576
12940;176251;34.24;616;03.16.18.576
12924;176246;34.24;617;03.16.18.576
12956;176242;34.24;618;03.16.18.576
12924;176240;34.24;619;03.16.18.576
12916;176234;34.24;620;03.16.18.587
12936;176247;34.24;621;03.16.18.587
12948;176240;34.24;622;03.16.18.587
12948;176233;34.24;623;03.16.18.587
12960;176233;34.24;624;03.16.18.587
12928;176232;34.24;625;03.16.18.697
12916;176234;34.24;626;03.16.18.697
12904;176229;34.24;627;03.16.18.708
12908;176241;34.24;628;03.16.18.708
12924;176227;34.24;629;03.16.18.708
12920;176235;34.24;630;03.16.18.708
12968;176231;34.24;631;03.16.18.708
12936;176236;34.24;632;03.16.18.708
12924;176234;34.24;633;03.16.18.708
12948;176246;34.24;634;03.16.18.708
12928;176241;34.24;635;03.16.18.708
12960;176251;34.24;636;03.16.18.708
12928;176256;34.24;637;03.16.18.708
12936;176265;34.24;638;03.16.18.708
12908;176262;34.24;639;03.16.18.708
12936;176259;34.24;640;03.16.18.708
12924;176279;34.24;641;03.16.18.718
12924;176277;34.24;642;03.16.18.718
12960;176282;34.24;643;03.16.18.718
12932;176283;34.24;644;03.16.18.718
12908;176289;34.24;645;03.16.18.718
12952;176304;34.24;646;03.16.18.718
12944;176309;34.24;647;03.16.18.718
12944;176308;34.24;648;03.16.18.718
12960;176316;34.24;649;03.16.18.718
12920;176315;34.24;650;03.16.18.850
12960;176323;34.24;651;03.16.18.850
12928;176320;34.24;652;03.16.18.850
12924;176318;34.24;653;03.16.18.850
12920;176324;34.24;654;03.16.18.850
12928;176327;34.24;655;03.16.18.850
12928;176323;34.24;656;03.16.18.850
12928;176328;34.24;657;03.16.18.850
12940;176324;34.24;658;03.16.18.850
12944;176321;34.24;659;03.16.18.850
12924;176324;34.24;660;03.16.18.850
12944;176332;34.24;661;03.16.18.861
12928;176327;34.24;662;03.16.18.861
12916;176325;34.24;663;03.16.18.861
12948;176342;34.24;664;03.16.18.861
12940;176347;34.24;665;03.16.18.861
12936;176345;34.24;666;03.16.18.861
12964;176357;34.24;667;03.16.18.861
12928;176362;34.24;668;03.16.18.861
12924;176368;34.24;669;03.16.18.861
12928;176372;34.24;670;03.16.18.861
12908;176385;34.24;671;03.16.18.861
12924;176387;34.24;672;03.16.18.861
12932;176403;34.24;673;03.16.18.861
12960;176403;34.24;674;03.16.18.872
12916;176419;34.24;675;03.16.18.982
12936;176429;34.24;676;03.16.18.982
12928;176437;34.24;677;03.16.18.982
12924;176446;34.24;678;03.16.18.982
12944;176458;34.24;679;03.16.18.982
12968;176452;34.24;680;03.16.18.982
12952;176457;34.24;681;03.16.18.982
12936;176453;34.24;682;03.16.18.982
12944;176466;34.24;683;03.16.18.982
12960;176473;34.24;684;03.16.18.993
12952;176463;34.24;685;03.16.18.993
12944;176474;34.24;686;03.16.18.993
12924;176462;34.24;687;03.16.18.993
12936;176470;34.24;688;03.16.18.993
12956;176469;34.24;689;03.16.18.993
12924;176473;34.24;690;03.16.18.993
12920;176466;34.24;691;03.16.18.993
12936;176467;34.24;692;03.16.18.993
12920;176461;34.24;693;03.16.18.993
12936;176465;34.24;694;03.16.18.993
12960;176449;34.24;695;03.16.18.993
12924;176450;34.24;696;03.16.18.993
12932;176447;34.24;697;03.16.19.004
12928;176448;34.24;698;03.16.19.004
12964;176447;34.24;699;03.16.19.004
12928;176449;34.24;700;03.16.19.070
12892;176445;34.24;701;03.16.19.070
12924;176440;34.24;702;03.16.19.070
12936;176434;34.24;703;03.16.19.070
12936;176439;34.24;704;03.16.19.070
12932;176442;34.24;705;03.16.19.081
12940;176437;34.24;706;03.16.19.081
12948;176430;34.24;707;03.16.19.081
12956;176429;34.24;708;03.16.19.081
12928;176421;34.24;709;03.16.19.081
12940;176421;34.24;710;03.16.19.081
12936;176414;34.24;711;03.16.19.081
12948;176423;34.24;712;03.16.19.081
12936;176423;34.24;713;03.16.19.081
12916;176427;34.24;714;03.16.19.081
12928;176432;34.24;715;03.16.19.081
12952;176416;34.24;716;03.16.19.081
12932;176436;34.24;717;03.16.19.091
12916;176422;34.24;718;03.16.19.091
12940;176431;34.24;719;03.16.19.091
12920;176429;34.24;720;03.16.19.091
12928;176431;34.24;721;03.16.19.091
12944;176432;34.24;722;03.16.19.102
12944;176446;34.24;723;03.16.19.102
12968;176433;34.24;724;03.16.19.102
12944;176440;34.24;725;03.16.19.201
12924;176443;34.24;726;03.16.19.212
12952;176453;34.24;727;03.16.19.212
12932;176455;34.24;728;03.16.19.212
12916;176447;34.24;729;03.16.19.212
12928;176466;34.24;730;03.16.19.212
12936;176480;34.24;731;03.16.19.212
12892;176480;34.24;732;03.16.19.212
12940;176481;34.24;733;03.16.19.212
12932;176488;34.24;734;03.16.19.212
12948;176490;34.24;735;03.16.19.212
12928;176493;34.24;736;03.16.19.212
12952;176505;34.24;737;03.16.19.212
12916;176499;34.24;738;03.16.19.212
12960;176502;34.24;739;03.16.19.223
12952;176503;34.24;740;03.16.19.223
12940;176498;34.24;741;03.16.19.223
12932;176504;34.24;742;03.16.19.223
12936;176496;34.24;743;03.16.19.223
12924;176509;34.24;744;03.16.19.223
12924;176497;34.24;745;03.16.19.223
12948;176503;34.24;746;03.16.19.223
12932;176493;34.24;747;03.16.19.223
12932;176490;34.24;748;03.16.19.223
12960;176479;34.24;749;03.16.19.223
12956;176473;34.24;750;03.16.19.322
12960;176466;34.24;751;03.16.19.322
12924;176465;34.24;752;03.16.19.322
12936;176448;34.24;753;03.16.19.322
12944;176453;34.24;754;03.16.19.322
12944;176443;34.24;755;03.16.19.322
12920;176430;34.24;756;03.16.19.322
12908;176433;34.24;757;03.16.19.322
12952;176430;34.24;758;03.16.19.344
12960;176416;34.24;759;03.16.19.344
12952;176419;34.24;760;03.16.19.344
12928;176437;34.24;761;03.16.19.344
12964;176422;34.24;762;03.16.19.344
12944;176427;34.24;763;03.16.19.344
12936;176425;34.24;764;03.16.19.344
12908;176427;34.24;765;03.16.19.344
12948;176417;34.24;766;03.16.19.344
12960;176417;34.24;767;03.16.19.366
12924;176415;34.24;768;03.16.19.366
12948;176405;34.24;769;03.16.19.366
12940;176394;34.24;770;03.16.19.366
12952;176404;34.24;771;03.16.19.366
12908;176395;34.24;772;03.16.19.366
12936;176385;34.24;773;03.16.19.366
12944;176383;34.24;774;03.16.19.366
12960;176382;34.28;775;03.16.19.443
12932;176390;34.28;776;03.16.19.443
12944;176377;34.28;777;03.16.19.443
12940;176392;34.28;778;03.16.19.443
12952;176392;34.28;779;03.16.19.443
12952;176389;34.28;780;03.16.19.443
12932;176379;34.28;781;03.16.19.443
12944;176382;34.28;782;03.16.19.454
12936;176379;34.28;783;03.16.19.454
12960;176385;34.28;784;03.16.19.454
12936;176384;34.28;785;03.16.19.454
12924;176382;34.28;786;03.16.19.454
12916;176380;34.28;787;03.16.19.454
12944;176386;34.28;788;03.16.19.454
12940;176392;34.28;789;03.16.19.454
12936;176387;34.28;790;03.16.19.454
12924;176396;34.28;791;03.16.19.454
12932;176395;34.28;792;03.16.19.475
12940;176400;34.28;793;03.16.19.475
12924;176399;34.28;794;03.16.19.475
12920;176412;34.28;795;03.16.19.475
12936;176417;34.28;796;03.16.19.475
12936;176419;34.28;797;03.16.19.475
12944;176423;34.28;798;03.16.19.475
12948;176442;34.28;799;03.16.19.486
12928;176447;34.28;800;03.16.19.563
12960;176449;34.28;801;03.16.19.563
12940;176459;34.28;802;03.16.19.563
12944;176455;34.28;803;03.16.19.574
12912;176460;34.28;804;03.16.19.574
12920;176458;34.28;805;03.16.19.574
12944;176458;34.28;806;03.16.19.574
12924;176456;34.28;807;03.16.19.574
12924;176461;34.28;808;03.16.19.574
12944;176458;34.28;809;03.16.19.574
12952;176452;34.28;810;03.16.19.574
12940;176440;34.28;811;03.16.19.574
12924;176457;34.28;812;03.16.19.574
12924;176447;34.28;813;03.16.19.574
12932;176450;34.28;814;03.16.19.574
12928;176439;34.28;815;03.16.19.574
12944;176444;34.28;816;03.16.19.585
12924;176444;34.28;817;03.16.19.585
12928;176443;34.28;818;03.16.19.585
12936;176436;34.28;819;03.16.19.585
12908;176436;34.28;820;03.16.19.585
12928;176422;34.28;821;03.16.19.596
12940;176420;34.28;822;03.16.19.596
12920;176420;34.28;823;03.16.19.596
12960;176409;34.28;824;03.16.19.596
12892;176396;34.24;825;03.16.19.706
12936;176393;34.24;826;03.16.19.706
12920;176389;34.24;827;03.16.19.706
12936;176382;34.24;828;03.16.19.706
12924;176381;34.24;829;03.16.19.706
12940;176370;34.24;830;03.16.19.706
12912;176369;34.24;831;03.16.19.706
12960;176376;34.24;832;03.16.19.706
12928;176370;34.24;833;03.16.19.706
12952;176373;34.24;834;03.16.19.706
12928;176377;34.24;835;03.16.19.706
12908;176370;34.24;836;03.16.19.706
12940;176381;34.24;837;03.16.19.717
12948;176375;34.24;838;03.16.19.717
12936;176390;34.24;839;03.16.19.717
12948;176388;34.24;840;03.16.19.717
12948;176385;34.24;841;03.16.19.717
12924;176381;34.24;842;03.16.19.717
12948;176377;34.24;843;03.16.19.717
12936;176368;34.24;844;03.16.19.717
12932;176381;34.24;845;03.16.19.717
12892;176373;34.24;846;03.16.19.717
12924;176377;34.24;847;03.16.19.717
12952;176372;34.24;848;03.16.19.717
12932;176370;34.24;849;03.16.19.717
12940;176379;34.24;850;03.16.19.838
12924;176375;34.24;851;03.16.19.838
12952;176372;34.24;852;03.16.19.838
12928;176372;34.24;853;03.16.19.838
12908;176385;34.24;854;03.16.19.838
12924;176379;34.24;855;03.16.19.838
12932;176384;34.24;856;03.16.19.838
12924;176390;34.24;857;03.16.19.838
12940;176388;34.24;858;03.16.19.849
12936;176383;34.24;859;03.16.19.849
12944;176383;34.24;860;03.16.19.849
12916;176385;34.24;861;03.16.19.849
12924;176387;34.24;862;03.16.19.849
12924;176394;34.24;863;03.16.19.849
12960;176394;34.24;864;03.16.19.849
12940;176403;34.24;865;03.16.19.849
12932;176399;34.24;866;03.16.19.849
12924;176399;34.24;867;03.16.19.849
12944;176403;34.24;868;03.16.19.849
12928;176396;34.24;869;03.16.19.849
12932;176394;34.24;870;03.16.19.849
12936;176392;34.24;871;03.16.19.849
12936;176395;34.24;872;03.16.19.861
12924;176386;34.24;873;03.16.19.861
12940;176386;34.24;874;03.16.19.861
12940;176382;34.24;875;03.16.19.948
12940;176383;34.24;876;03.16.19.948
12932;176380;34.24;877;03.16.19.948
12936;176363;34.24;878;03.16.19.948
12944;176362;34.24;879;03.16.19.948
12944;176347;34.24;880;03.16.19.948
12916;176335;34.24;881;03.16.19.959
12960;176323;34.24;882;03.16.19.959
12920;176310;34.24;883;03.16.19.959
12936;176295;34.24;884;03.16.19.959
12936;176276;34.24;885;03.16.19.959
12916;176262;34.24;886;03.16.19.959
12924;176247;34.24;887;03.16.19.959
12936;176230;34.24;888;03.16.19.959
12960;176208;34.24;889;03.16.19.959
12928;176190;34.24;890;03.16.19.959
12920;176179;34.24;891;03.16.19.959
12924;176166;34.24;892;03.16.19.970
12948;176156;34.24;893;03.16.19.970
12932;176143;34.24;894;03.16.19.970
12916;176133;34.24;895;03.16.19.970
12936;176133;34.24;896;03.16.19.970
12936;176134;34.24;897;03.16.19.970
12916;176124;34.24;898;03.16.19.970
12948;176127;34.24;899;03.16.19.981
12932;176121;34.24;900;03.16.20.080
12924;176115;34.24;901;03.16.20.080
12960;176123;34.24;902;03.16.20.080
12924;176108;34.24;903;03.16.20.091
12960;176122;34.24;904;03.16.20.091
12924;176112;34.24;905;03.16.20.091
12960;176123;34.24;906;03.16.20.091
12960;176117;34.24;907;03.16.20.091
12956;176109;34.24;908;03.16.20.102
12932;176118;34.24;909;03.16.20.102
12924;176118;34.24;910;03.16.20.102
12924;176123;34.24;911;03.16.20.113
12964;176123;34.24;912;03.16.20.113
12940;176117;34.24;913;03.16.20.113
12936;176124;34.24;914;03.16.20.113
12940;176128;34.24;915;03.16.20.113
12940;176125;34.24;916;03.16.20.113
12932;176130;34.24;917;03.16.20.113
12960;176127;34.24;918;03.16.20.113
12944;176124;34.24;919;03.16.20.113
12952;176126;34.24;920;03.16.20.113
12948;176135;34.24;921;03.16.20.113
12960;176127;34.24;922;03.16.20.113
12956;176131;34.24;923;03.16.20.113
12968;176128;34.24;924;03.16.20.124
12944;176138;34.28;925;03.16.20.200
12932;176135;34.28;926;03.16.20.200
12952;176133;34.28;927;03.16.20.200
12940;176139;34.28;928;03.16.20.200
12948;176138;34.28;929;03.16.20.200
12944;176146;34.28;930;03.16.20.200
12944;176145;34.28;931;03.16.20.200
12960;176146;34.28;932;03.16.20.200
12908;176165;34.28;933;03.16.20.200
12948;176162;34.28;934;03.16.20.200
12968;176170;34.28;935;03.16.20.200
12952;176174;34.28;936;03.16.20.211
12924;176177;34.28;937;03.16.20.211
12948;176194;34.28;938;03.16.20.211
12968;176194;34.28;939;03.16.20.211
12944;176192;34.28;940;03.16.20.211
12960;176188;34.28;941;03.16.20.211
12940;176192;34.28;942;03.16.20.211
12972;176203;34.28;943;03.16.20.211
12916;176200;34.28;944;03.16.20.211
12944;176200;34.28;945;03.16.20.211
12948;176212;34.28;946;03.16.20.211
12936;176205;34.28;947;03.16.20.211
12952;176205;34.28;948;03.16.20.211
12940;176214;34.28;949;03.16.20.222
12944;176210;34.28;950;03.16.20.332
12936;176213;34.28;951;03.16.20.332
12956;176215;34.28;952;03.16.20.332
12924;176225;34.28;953;03.16.20.332
12960;176218;34.28;954;03.16.20.332
12948;176214;34.28;955;03.16.20.332
12948;176225;34.28;956;03.16.20.332
12908;176225;34.28;957;03.16.20.332
12928;176231;34.28;958;03.16.20.343
12928;176234;34.28;959;03.16.20.343
12944;176235;34.28;960;03.16.20.343
12932;176240;34.28;961;03.16.20.343
12944;176236;34.28;962;03.16.20.343
12932;176240;34.28;963;03.16.20.343
12928;176238;34.28;964;03.16.20.343
12944;176246;34.28;965;03.16.20.343
12936;176243;34.28;966;03.16.20.343
12936;176244;34.28;967;03.16.20.343
12944;176244;34.28;968;03.16.20.343
12932;176247;34.28;969;03.16.20.343
12920;176249;34.28;970;03.16.20.343
12916;176257;34.28;971;03.16.20.354
12940;176245;34.28;972;03.16.20.354
12936;176260;34.28;973;03.16.20.354
12940;176249;34.28;974;03.16.20.354
12916;176268;34.28;975;03.16.20.474
12924;176263;34.28;976;03.16.20.474
12936;176270;34.28;977;03.16.20.474
12924;176276;34.28;978;03.16.20.474
12884;176276;34.28;979;03.16.20.485
12956;176283;34.28;980;03.16.20.485
12952;176282;34.28;981;03.16.20.485
12932;176292;34.28;982;03.16.20.485
12920;176285;34.28;983;03.16.20.518
12932;176300;34.28;984;03.16.20.518
12932;176302;34.28;985;03.16.20.518
12940;176305;34.28;986;03.16.20.518
12936;176300;34.28;987;03.16.20.529
12932;176304;34.28;988;03.16.20.529
12940;176304;34.28;989;03.16.20.529
12892;176306;34.28;990;03.16.20.529
12964;176309;34.28;991;03.16.20.529
12928;176315;34.28;992;03.16.20.529
12928;176310;34.28;993;03.16.20.529
12944;176308;34.28;994;03.16.20.529
12936;176300;34.28;995;03.16.20.529
12928;176306;34.28;996;03.16.20.529
12940;176315;34.28;997;03.16.20.529
12924;176310;34.28;998;03.16.20.529
12924;176322;34.28;999;03.16.20.529
12944;176317;34.28;000;03.16.20.562
12924;176314;34.28;001;03.16.20.573
12952;176309;34.28;002;03.16.20.573
12960;176312;34.28;003;03.16.20.573
12936;176315;34.28;004;03.16.20.573
12940;176320;34.28;005;03.16.20.573
12952;176313;34.28;006;03.16.20.573
12976;176316;34.28;007;03.16.20.573
12948;176320;34.28;008;03.16.20.573
12944;176321;34.28;009;03.16.20.573
12944;176314;34.28;010;03.16.20.584
12968;176325;34.28;011;03.16.20.584
12968;176314;34.28;012;03.16.20.584
12944;176312;34.28;013;03.16.20.584
12948;176305;34.28;014;03.16.20.584
12948;176311;34.28;015;03.16.20.584
12948;176311;34.28;016;03.16.20.584
12960;176314;34.28;017;03.16.20.617
12924;176308;34.28;018;03.16.20.617
12924;176312;34.28;019;03.16.20.617
12956;176314;34.28;020;03.16.20.617
12936;176300;34.28;021;03.16.20.617
12980;176304;34.28;022;03.16.20.617
12944;176303;34.28;023;03.16.20.617
12980;176306;34.28;024;03.16.20.617
12920;176307;34.28;025;03.16.20.695
12968;176303;34.28;026;03.16.20.695
12936;176302;34.28;027;03.16.20.695
12944;176308;34.28;028;03.16.20.695
12952;176307;34.28;029;03.16.20.695
12940;176312;34.28;030;03.16.20.695
12932;176309;34.28;031;03.16.20.695
12928;176318;34.28;032;03.16.20.695
12964;176315;34.28;033;03.16.20.695
12932;176320;34.28;034;03.16.20.695
12944;176332;34.28;035;03.16.20.695
12920;176327;34.28;036;03.16.20.706
12920;176338;34.28;037;03.16.20.706
12964;176340;34.28;038;03.16.20.706
12976;176337;34.28;039;03.16.20.706
12924;176346;34.28;040;03.16.20.706
12948;176350;34.28;041;03.16.20.706
12912;176362;34.28;042;03.16.20.706
12940;176353;34.28;043;03.16.20.706
12924;176363;34.28;044;03.16.20.706
12920;176360;34.28;045;03.16.20.706
12936;176381;34.28;046;03.16.20.706
12956;176370;34.28;047;03.16.20.706
12960;176372;34.28;048;03.16.20.706
12944;176371;34.28;049;03.16.20.717
12928;176363;34.28;050;03.16.20.826
12932;176375;34.28;051;03.16.20.826
12920;176374;34.28;052;03.16.20.826
12960;176368;34.28;053;03.16.20.826
12944;176363;34.28;054;03.16.20.826
12928;176371;34.28;055;03.16.20.826
12960;176362;34.28;056;03.16.20.826
12944;176362;34.28;057;03.16.20.837
12908;176364;34.28;058;03.16.20.837
12948;176354;34.28;059;03.16.20.837
12916;176355;34.28;060;03.16.20.837
12964;176362;34.28;061;03.16.20.837
12944;176353;34.28;062;03.16.20.837
12940;176346;34.28;063;03.16.20.837
12944;176338;34.28;064;03.16.20.837
12948;176335;34.28;065;03.16.20.837
12944;176345;34.28;066;03.16.20.837
12944;176344;34.28;067;03.16.20.837
12948;176341;34.28;068;03.16.20.837
12912;176337;34.28;069;03.16.20.837
12948;176335;34.28;070;03.16.20.848
12936;176340;34.28;071;03.16.20.848
12940;176340;34.28;072;03.16.20.848
12928;176332;34.28;073;03.16.20.848
12948;176335;34.28;074;03.16.20.848
12960;176332;34.24;075;03.16.20.958
12952;176324;34.24;076;03.16.20.958
12928;176331;34.24;077;03.16.20.958
12944;176324;34.24;078;03.16.20.969
12924;176317;34.24;079;03.16.20.969
12948;176309;34.24;080;03.16.20.969
12964;176313;34.24;081;03.16.20.969
12936;176310;34.24;082;03.16.20.969
12928;176305;34.24;083;03.16.20.969
12960;176306;34.24;084;03.16.20.969
12968;176309;34.24;085;03.16.20.969
12960;176301;34.24;086;03.16.20.969
12936;176306;34.24;087;03.16.20.969
12976;176293;34.24;088;03.16.20.969
12968;176308;34.24;089;03.16.20.969
12916;176309;34.24;090;03.16.20.969
12928;176320;34.24;091;03.16.20.980
12916;176310;34.24;092;03.16.20.980
12924;176319;34.24;093;03.16.20.980
12960;176322;34.24;094;03.16.20.980
12948;176333;34.24;095;03.16.20.980
12928;176336;34.24;096;03.16.20.980
12948;176344;34.24;097;03.16.20.980
12952;176341;34.24;098;03.16.20.980
12944;176353;34.24;099;03.16.20.980
12960;176360;34.24;100;03.16.21.079
12952;176352;34.24;101;03.16.21.079
12944;176361;34.24;102;03.16.21.079
12968;176358;34.24;103;03.16.21.079
12956;176356;34.24;104;03.16.21.079
12936;176359;34.24;105;03.16.21.079
12936;176346;34.24;106;03.16.21.079
12936;176350;34.24;107;03.16.21.079
12932;176358;34.24;108;03.16.21.101
12944;176338;34.24;109;03.16.21.101
12952;176345;34.24;110;03.16.21.101
12968;176334;34.24;111;03.16.21.101
12972;176339;34.24;112;03.16.21.101
12932;176344;34.24;113;03.16.21.101
12964;176342;34.24;114;03.16.21.101
12964;176332;34.24;115;03.16.21.101
12932;176342;34.24;116;03.16.21.101
12940;176332;34.24;117;03.16.21.101
12908;176338;34.24;118;03.16.21.101
12960;176328;34.24;119;03.16.21.101
12952;176340;34.24;120;03.16.21.101
12924;176330;34.24;121;03.16.21.112
12940;176335;34.24;122;03.16.21.112
12928;176335;34.24;123;03.16.21.112
12948;176336;34.24;124;03.16.21.112
12948;176338;34.28;125;03.16.21.198
12960;176333;34.28;126;03.16.21.198
12960;176335;34.28;127;03.16.21.198
12936;176325;34.28;128;03.16.21.198
12960;176320;34.28;129;03.16.21.198
12944;176313;34.28;130;03.16.21.198
12920;176315;34.28;131;03.16.21.198
12924;176308;34.28;132;03.16.21.198
12960;176295;34.28;133;03.16.21.209
12924;176292;34.28;134;03.16.21.209
12960;176278;34.28;135;03.16.21.209
12920;176270;34.28;136;03.16.21.209
12924;176260;34.28;137;03.16.21.209
12960;176262;34.28;138;03.16.21.209
12944;176244;34.28;139;03.16.21.209
12912;176242;34.28;140;03.16.21.209
12940;176230;34.28;141;03.16.21.209
12952;176231;34.28;142;03.16.21.209
12944;176220;34.28;143;03.16.21.209
12944;176227;34.28;144;03.16.21.209
12948;176225;34.28;145;03.16.21.209
12936;176232;34.28;146;03.16.21.220
12960;176235;34.28;147;03.16.21.220
12924;176240;34.28;148;03.16.21.220
12964;176237;34.28;149;03.16.21.220
12916;176246;34.28;150;03.16.21.319
12908;176240;34.28;151;03.16.21.319
12948;176251;34.28;152;03.16.21.319
12928;176250;34.28;153;03.16.21.319
12924;176250;34.28;154;03.16.21.330
12908;176256;34.28;155;03.16.21.330
12936;176256;34.28;156;03.16.21.330
12960;176246;34.28;157;03.16.21.330
12948;176246;34.28;158;03.16.21.330
12952;176257;34.28;159;03.16.21.330
12960;176258;34.28;160;03.16.21.330
12936;176255;34.28;161;03.16.21.330
12944;176252;34.28;162;03.16.21.330
12948;176244;34.28;163;03.16.21.330
12932;176249;34.28;164;03.16.21.330
12928;176245;34.28;165;03.16.21.330
12944;176233;34.28;166;03.16.21.330
12924;176242;34.28;167;03.16.21.340
12952;176249;34.28;168;03.16.21.340
12960;176240;34.28;169;03.16.21.340
12916;176242;34.28;170;03.16.21.340
12948;176248;34.28;171;03.16.21.351
12936;176247;34.28;172;03.16.21.351
12960;176239;34.28;173;03.16.21.351
12948;176242;34.28;174;03.16.21.351
12960;176246;34.32;175;03.16.21.461
12952;176234;34.32;176;03.16.21.461
12936;176245;34.32;177;03.16.21.461
12936;176248;34.32;178;03.16.21.461
12948;176241;34.32;179;03.16.21.461
12900;176255;34.32;180;03.16.21.461
12948;176250;34.32;181;03.16.21.461
12936;176250;34.32;182;03.16.21.461
12944;176261;34.32;183;03.16.21.461
12932;176256;34.32;184;03.16.21.461
12932;176257;34.32;185;03.16.21.461
12932;176255;34.32;186;03.16.21.461
12924;176250;34.32;187;03.16.21.461
12948;176257;34.32;188;03.16.21.472
12960;176249;34.32;189;03.16.21.472
12932;176247;34.32;190;03.16.21.472
12936;176256;34.32;191;03.16.21.472
12920;176251;34.32;192;03.16.21.472
12936;176254;34.32;193;03.16.21.472
12952;176245;34.32;194;03.16.21.472
12924;176253;34.32;195;03.16.21.472
12924;176254;34.32;196;03.16.21.472
12960;176255;34.32;197;03.16.21.472
12952;176255;34.32;198;03.16.21.472
12956;176256;34.32;199;03.16.21.472
12936;176258;34.32;200;03.16.21.570
12936;176256;34.32;201;03.16.21.570
12932;176257;34.32;202;03.16.21.570
12960;176260;34.32;203;03.16.21.570
12956;176264;34.32;204;03.16.21.570
12924;176264;34.32;205;03.16.21.570
12928;176272;34.32;206;03.16.21.570
12944;176266;34.32;207;03.16.21.570
12924;176271;34.32;208;03.16.21.592
12920;176280;34.32;209;03.16.21.592
12964;176285;34.32;210;03.16.21.592
12932;176274;34.32;211;03.16.21.592
12932;176282;34.32;212;03.16.21.592
12908;176292;34.32;213;03.16.21.592
12932;176286;34.32;214;03.16.21.592
12948;176300;34.32;215;03.16.21.592
12932;176299;34.32;216;03.16.21.592
12924;176293;34.32;217;03.16.21.603
12936;176297;34.32;218;03.16.21.603
12940;176306;34.32;219;03.16.21.603
12920;176307;34.32;220;03.16.21.603
12936;176310;34.32;221;03.16.21.603
12944;176312;34.32;222;03.16.21.603
12928;176310;34.32;223;03.16.21.603
12960;176308;34.32;224;03.16.21.603
12940;176311;34.28;225;03.16.21.701
12960;176315;34.28;226;03.16.21.701
12932;176308;34.28;227;03.16.21.701
12968;176308;34.28;228;03.16.21.701
12936;176307;34.28;229;03.16.21.712
12924;176300;34.28;230;03.16.21.712
12952;176304;34.28;231;03.16.21.712
12928;176302;34.28;232;03.16.21.712
12956;176298;34.28;233;03.16.21.712
12928;176299;34.28;234;03.16.21.712
12960;176305;34.28;235;03.16.21.712
12932;176301;34.28;236;03.16.21.712
12964;176292;34.28;237;03.16.21.723
12928;176291;34.28;238;03.16.21.723
12944;176300;34.28;239;03.16.21.723
12936;176295;34.28;240;03.16.21.723
12928;176300;34.28;241;03.16.21.723
12904;176306;34.28;242;03.16.21.723
12924;176309;34.28;243;03.16.21.723
12940;176301;34.28;244;03.16.21.723
12944;176307;34.28;245;03.16.21.723
12928;176320;34.28;246;03.16.21.723
12936;176309;34.28;247;03.16.21.723
12948;176320;34.28;248;03.16.21.723
12944;176321;34.28;249;03.16.21.723
12948;176325;34.28;250;03.16.21.833
12924;176329;34.28;251;03.16.21.833
12960;176343;34.28;252;03.16.21.833
12944;176333;34.28;253;03.16.21.833
12936;176330;34.28;254;03.16.21.833
12944;176333;34.28;255;03.16.21.833
12924;176337;34.28;256;03.16.21.833
12944;176332;34.28;257;03.16.21.833
12928;176336;34.28;258;03.16.21.833
12944;176331;34.28;259;03.16.21.833
12920;176330;34.28;260;03.16.21.833
12928;176332;34.28;261;03.16.21.833
12920;176329;34.28;262;03.16.21.833
12964;176330;34.28;263;03.16.21.844
12936;176336;34.28;264;03.16.21.844
12924;176337;34.28;265;03.16.21.844
12928;176352;34.28;266;03.16.21.844
12920;176341;34.28;267;03.16.21.844
12932;176345;34.28;268;03.16.21.844
12948;176350;34.28;269;03.16.21.844
12992;176352;34.28;270;03.16.21.844
12932;176345;34.28;271;03.16.21.844
12940;176342;34.28;272;03.16.21.844
12924;176353;34.28;273;03.16.21.844
12948;176347;34.28;274;03.16.21.844
12924;176347;34.24;275;03.16.21.964
12944;176352;34.24;276;03.16.21.964
12916;176352;34.24;277;03.16.21.964
12948;176353;34.24;278;03.16.21.964
12924;176348;34.24;279;03.16.21.964
12924;176360;34.24;280;03.16.21.964
12916;176348;34.24;281;03.16.21.964
12960;176354;34.24;282;03.16.21.964
12932;176354;34.24;283;03.16.21.974
12960;176359;34.24;284;03.16.21.974
12924;176355;34.24;285;03.16.21.974
12936;176357;34.24;286;03.16.21.974
12920;176362;34.24;287;03.16.21.974
12948;176363;34.24;288;03.16.21.974
12968;176368;34.24;289;03.16.21.974
12936;176370;34.24;290;03.16.21.974
12916;176368;34.24;291;03.16.21.974
12936;176367;34.24;292;03.16.21.996
12936;176361;34.24;293;03.16.21.996
12928;176365;34.24;294;03.16.21.996
12940;176371;34.24;295;03.16.21.996
12924;176368;34.24;296;03.16.21.996
12924;176369;34.24;297;03.16.21.996
12940;176362;34.24;298;03.16.21.996
12972;176364;34.24;299;03.16.21.996
12960;176370;34.24;300;03.16.22.095
12944;176371;34.24;301;03.16.22.095
12948;176368;34.24;302;03.16.22.095
12932;176369;34.24;303;03.16.22.095
12936;176371;34.24;304;03.16.22.095
12924;176372;34.24;305;03.16.22.106
12976;176378;34.24;306;03.16.22.106
12968;176370;34.24;307;03.16.22.106
12984;176366;34.24;308;03.16.22.106
12944;176372;34.24;309;03.16.22.106
12952;176371;34.24;310;03.16.22.106
12924;176375;34.24;311;03.16.22.106
12956;176371;34.24;312;03.16.22.106
12928;176384;34.24;313;03.16.22.106
12916;176372;34.24;314;03.16.22.106
12948;176371;34.24;315;03.16.22.106
12940;176379;34.24;316;03.16.22.106
12924;176365;34.24;317;03.16.22.128
12952;176379;34.24;318;03.16.22.128
12932;176370;34.24;319;03.16.22.128
12924;176379;34.24;320;03.16.22.128
12932;176381;34.24;321;03.16.22.139
12960;176373;34.24;322;03.16.22.139
12944;176371;34.24;323;03.16.22.139
12972;176359;34.24;324;03.16.22.139
12924;176370;34.28;325;03.16.22.216
12924;176366;34.28;326;03.16.22.227
12948;176365;34.28;327;03.16.22.227
12960;176371;34.28;328;03.16.22.227
12936;176372;34.28;329;03.16.22.227
12952;176371;34.28;330;03.16.22.227
12948;176380;34.28;331;03.16.22.227
12964;176387;34.28;332;03.16.22.227
12920;176385;34.28;333;03.16.22.227
12948;176392;34.28;334;03.16.22.227
12924;176399;34.28;335;03.16.22.227
12960;176416;34.28;336;03.16.22.227
12960;176420;34.28;337;03.16.22.227
12940;176414;34.28;338;03.16.22.238
12940;176427;34.28;339;03.16.22.238
12948;176425;34.28;340;03.16.22.238
12948;176436;34.28;341;03.16.22.238
12944;176432;34.28;342;03.16.22.238
12940;176423;34.28;343;03.16.22.238
12920;176441;34.28;344;03.16.22.238
12940;176435;34.28;345;03.16.22.238
12960;176434;34.28;346;03.16.22.238
12948;176435;34.28;347;03.16.22.238
12924;176423;34.28;348;03.16.22.238
12940;176432;34.28;349;03.16.22.238
12936;176424;34.28;350;03.16.22.326
12920;176424;34.28;351;03.16.22.326
12936;176430;34.28;352;03.16.22.326
12928;176421;34.28;353;03.16.22.326
12944;176430;34.28;354;03.16.22.326
12916;176431;34.28;355;03.16.22.326
12944;176437;34.28;356;03.16.22.326
12936;176439;34.28;357;03.16.22.326
12944;176444;34.28;358;03.16.22.347
12928;176439;34.28;359;03.16.22.347
12948;176447;34.28;360;03.16.22.347
12936;176434;34.28;361;03.16.22.347
12928;176435;34.28;362;03.16.22.347
12936;176442;34.28;363;03.16.22.347
12936;176438;34.28;364;03.16.22.347
12952;176444;34.28;365;03.16.22.347
12924;176446;34.28;366;03.16.22.347
12924;176456;34.28;367;03.16.22.358
12948;176452;34.28;368;03.16.22.358
12960;176467;34.28;369;03.16.22.358
12940;176465;34.28;370;03.16.22.358
12944;176479;34.28;371;03.16.22.358
12944;176478;34.28;372;03.16.22.358
12936;176487;34.28;373;03.16.22.358
12960;176496;34.28;374;03.16.22.358
12952;176496;34.28;375;03.16.22.490
12944;176504;34.28;376;03.16.22.490
12936;176510;34.28;377;03.16.22.490
12948;176505;34.28;378;03.16.22.490
12952;176515;34.28;379;03.16.22.490
12944;176512;34.28;380;03.16.22.490
12944;176520;34.28;381;03.16.22.501
12952;176524;34.28;382;03.16.22.501
12924;176520;34.28;383;03.16.22.501
12948;176525;34.28;384;03.16.22.501
12948;176522;34.28;385;03.16.22.501
12960;176523;34.28;386;03.16.22.501
12960;176525;34.28;387;03.16.22.501
12944;176528;34.28;388;03.16.22.501
12960;176523;34.28;389;03.16.22.512
12916;176522;34.28;390;03.16.22.512
12928;176533;34.28;391;03.16.22.512
12940;176535;34.28;392;03.16.22.512
12944;176536;34.28;393;03.16.22.512
12960;176535;34.28;394;03.16.22.512
12948;176550;34.28;395;03.16.22.512
12924;176541;34.28;396;03.16.22.512
12944;176542;34.28;397;03.16.22.512
12960;176547;34.28;398;03.16.22.512
12952;176549;34.28;399;03.16.22.512
12920;176550;34.28;400;03.16.22.589
12944;176549;34.28;401;03.16.22.589
12944;176557;34.28;402;03.16.22.589
12960;176557;34.28;403;03.16.22.600
12924;176560;34.28;404;03.16.22.600
12940;176561;34.28;405;03.16.22.600
12928;176561;34.28;406;03.16.22.600
12936;176556;34.28;407;03.16.22.600
12932;176556;34.28;408;03.16.22.600
12940;176576;34.28;409;03.16.22.600
12944;176566;34.28;410;03.16.22.600
12936;176560;34.28;411;03.16.22.600
12936;176568;34.28;412;03.16.22.611
12944;176566;34.28;413;03.16.22.611
12940;176566;34.28;414;03.16.22.611
12936;176573;34.28;415;03.16.22.611
12932;176570;34.28;416;03.16.22.611
12940;176578;34.28;417;03.16.22.611
12936;176573;34.28;418;03.16.22.611
12948;176577;34.28;419;03.16.22.611
12936;176573;34.28;420;03.16.22.611
12932;176576;34.28;421;03.16.22.611
12944;176578;34.28;422;03.16.22.611
12928;176592;34.28;423;03.16.22.611
12924;176582;34.28;424;03.16.22.611
12960;176585;34.28;425;03.16.22.721
12920;176594;34.28;426;03.16.22.721
12932;176594;34.28;427;03.16.22.721
12948;176594;34.28;428;03.16.22.721
12916;176598;34.28;429;03.16.22.721
12960;176587;34.28;430;03.16.22.721
12968;176599;34.28;431;03.16.22.721
12928;176592;34.28;432;03.16.22.721
12936;176601;34.28;433;03.16.22.721
12940;176600;34.28;434;03.16.22.721
12960;176602;34.28;435;03.16.22.721
12964;176606;34.28;436;03.16.22.721
12944;176600;34.28;437;03.16.22.731
12944;176596;34.28;438;03.16.22.731
12936;176601;34.28;439;03.16.22.731
12936;176599;34.28;440;03.16.22.731
12952;176603;34.28;441;03.16.22.731
12952;176601;34.28;442;03.16.22.731
12924;176601;34.28;443;03.16.22.731
12936;176599;34.28;444;03.16.22.731
12944;176606;34.28;445;03.16.22.731
12924;176603;34.28;446;03.16.22.731
12936;176600;34.28;447;03.16.22.731
12932;176597;34.28;448;03.16.22.731
12956;176587;34.28;449;03.16.22.731
12936;176597;34.28;450;03.16.22.819
12928;176590;34.28;451;03.16.22.819
12928;176582;34.28;452;03.16.22.819
12940;176580;34.28;453;03.16.22.819
12932;176568;34.28;454;03.16.22.819
12924;176562;34.28;455;03.16.22.819
12916;176561;34.28;456;03.16.22.819
12944;176551;34.28;457;03.16.22.819
12936;176549;34.28;458;03.16.22.830
12924;176546;34.28;459;03.16.22.830
12932;176552;34.28;460;03.16.22.830
12944;176552;34.28;461;03.16.22.830
12948;176552;34.28;462;03.16.22.830
12952;176553;34.28;463;03.16.22.830
12924;176560;34.28;464;03.16.22.830
12944;176571;34.28;465;03.16.22.830
12936;176564;34.28;466;03.16.22.830
12940;176560;34.28;467;03.16.22.852
12944;176569;34.28;468;03.16.22.852
12940;176568;34.28;469;03.16.22.852
12952;176567;34.28;470;03.16.22.852
12940;176572;34.28;471;03.16.22.852
12924;176577;34.28;472;03.16.22.852
12936;176571;34.28;473;03.16.22.852
12952;176570;34.28;474;03.16.22.852
12920;176569;34.28;475;03.16.22.983
12928;176570;34.28;476;03.16.22.983
12940;176562;34.28;477;03.16.22.983
12944;176561;34.28;478;03.16.22.994
12916;176568;34.28;479;03.16.22.994
12928;176568;34.28;480;03.16.22.994
12924;176557;34.28;481;03.16.22.994
12944;176576;34.28;482;03.16.22.994
12944;176571;34.28;483;03.16.22.994
12924;176571;34.28;484;03.16.22.994
12912;176575;34.28;485;03.16.22.994
12932;176581;34.28;486;03.16.22.994
12944;176577;34.28;487;03.16.22.994
12932;176570;34.28;488;03.16.22.994
12928;176584;34.28;489;03.16.22.994
12968;176584;34.28;490;03.16.22.994
12952;176568;34.28;491;03.16.22.994
12924;176573;34.28;492;03.16.23.005
12944;176563;34.28;493;03.16.23.005
12920;176563;34.28;494;03.16.23.005
12924;176568;34.28;495;03.16.23.005
12928;176565;34.28;496;03.16.23.005
12948;176548;34.28;497;03.16.23.005
12912;176545;34.28;498;03.16.23.005
12972;176548;34.28;499;03.16.23.005
12936;176539;34.28;500;03.16.23.082
12928;176535;34.28;501;03.16.23.093
12940;176535;34.28;502;03.16.23.093
12992;176522;34.28;503;03.16.23.093
12936;176522;34.28;504;03.16.23.093
12940;176517;34.28;505;03.16.23.093
12944;176526;34.28;506;03.16.23.093
12940;176519;34.28;507;03.16.23.093
12948;176518;34.28;508;03.16.23.093
12952;176520;34.28;509;03.16.23.093
12928;176514;34.28;510;03.16.23.093
12948;176519;34.28;511;03.16.23.093
12912;176514;34.28;512;03.16.23.093
12960;176511;34.28;513;03.16.23.093
12928;176520;34.28;514;03.16.23.104
12956;176520;34.28;515;03.16.23.104
12960;176520;34.28;516;03.16.23.104
12936;176521;34.28;517;03.16.23.137
12920;176531;34.28;518;03.16.23.137
12944;176525;34.28;519;03.16.23.137
12960;176526;34.28;520;03.16.23.137
12932;176528;34.28;521;03.16.23.137
12932;176530;34.28;522;03.16.23.137
12960;176536;34.28;523;03.16.23.137
12956;176528;34.28;524;03.16.23.137
12936;176531;34.32;525;03.16.23.224
12964;176520;34.32;526;03.16.23.224
12956;176521;34.32;527;03.16.23.224
12944;176517;34.32;528;03.16.23.224
12928;176521;34.32;529;03.16.23.224
12920;176512;34.32;530;03.16.23.224
12960;176517;34.32;531;03.16.23.224
12960;176520;34.32;532;03.16.23.224
12960;176522;34.32;533;03.16.23.224
12944;176518;34.32;534;03.16.23.235
12936;176530;34.32;535;03.16.23.235
12944;176525;34.32;536;03.16.23.235
12936;176516;34.32;537;03.16.23.235
12964;176528;34.32;538;03.16.23.235
12932;176528;34.32;539;03.16.23.235
12948;176525;34.32;540;03.16.23.235
12968;176521;34.32;541;03.16.23.235
12948;176523;34.32;542;03.16.23.235
12976;176523;34.32;543;03.16.23.235
12920;176533;34.32;544;03.16.23.235
12972;176533;34.32;545;03.16.23.235
12948;176533;34.32;546;03.16.23.235
12940;176529;34.32;547;03.16.23.246
12936;176528;34.32;548;03.16.23.246
12948;176524;34.32;549;03.16.23.246
12948;176526;34.32;550;03.16.23.367
12924;176523;34.32;551;03.16.23.367
12892;176527;34.32;552;03.16.23.367
12940;176526;34.32;553;03.16.23.367
12936;176520;34.32;554;03.16.23.367
12924;176524;34.32;555;03.16.23.378
12940;176521;34.32;556;03.16.23.378
12940;176522;34.32;557;03.16.23.378
12940;176513;34.32;558;03.16.23.378
12964;176513;34.32;559;03.16.23.378
12920;176506;34.32;560;03.16.23.378
12924;176509;34.32;561;03.16.23.378
12948;176513;34.32;562;03.16.23.378
12964;176505;34.32;563;03.16.23.378
12936;176510;34.32;564;03.16.23.378
12944;176498;34.32;565;03.16.23.378
12936;176505;34.32;566;03.16.23.378
12952;176510;34.32;567;03.16.23.401
12920;176509;34.32;568;03.16.23.401
12960;176508;34.32;569;03.16.23.401
12920;176504;34.32;570;03.16.23.401
12924;176496;34.32;571;03.16.23.401
12940;176505;34.32;572;03.16.23.412
12948;176501;34.32;573;03.16.23.412
12936;176505;34.32;574;03.16.23.412
12944;176507;34.28;575;03.16.23.466
12944;176497;34.28;576;03.16.23.466
12944;176494;34.28;577;03.16.23.466
12920;176484;34.28;578;03.16.23.477
12936;176489;34.28;579;03.16.23.477
12952;176491;34.28;580;03.16.23.477
12944;176483;34.28;581;03.16.23.477
12944;176483;34.28;582;03.16.23.477
12944;176489;34.28;583;03.16.23.488
12920;176478;34.28;584;03.16.23.488
12924;176473;34.28;585;03.16.23.488
12936;176479;34.28;586;03.16.23.499
12948;176480;34.28;587;03.16.23.499
12952;176472;34.28;588;03.16.23.499
12940;176468;34.28;589;03.16.23.499
12936;176465;34.28;590;03.16.23.499
12944;176459;34.28;591;03.16.23.499
12952;176451;34.28;592;03.16.23.499
12900;176451;34.28;593;03.16.23.499
12924;176441;34.28;594;03.16.23.499
12908;176437;34.28;595;03.16.23.499
12976;176429;34.28;596;03.16.23.499
12960;176424;34.28;597;03.16.23.499
12928;176421;34.28;598;03.16.23.499
12936;176427;34.28;599;03.16.23.510
12944;176413;34.28;600;03.16.23.576
12928;176412;34.28;601;03.16.23.576
12944;176405;34.28;602;03.16.23.576
12944;176404;34.28;603;03.16.23.576
12940;176401;34.28;604;03.16.23.576
12916;176395;34.28;605;03.16.23.576
12924;176392;34.28;606;03.16.23.576
12928;176379;34.28;607;03.16.23.576
12936;176379;34.28;608;03.16.23.587
12936;176377;34.28;609;03.16.23.598
12924;176363;34.28;610;03.16.23.598
12924;176363;34.28;611;03.16.23.598
12936;176361;34.28;612;03.16.23.598
12924;176348;34.28;613;03.16.23.598
12940;176343;34.28;614;03.16.23.598
12940;176335;34.28;615;03.16.23.598
12936;176330;34.28;616;03.16.23.598
12960;176336;34.28;617;03.16.23.598
12928;176334;34.28;618;03.16.23.598
12952;176330;34.28;619;03.16.23.598
12960;176335;34.28;620;03.16.23.598
12956;176332;34.28;621;03.16.23.609
12920;176326;34.28;622;03.16.23.609
12944;176324;34.28;623;03.16.23.609
12920;176321;34.28;624;03.16.23.609
12952;176317;34.24;625;03.16.23.719
12940;176311;34.24;626;03.16.23.719
12952;176328;34.24;627;03.16.23.719
12936;176322;34.24;628;03.16.23.719
12940;176320;34.24;629;03.16.23.719
12944;176317;34.24;630;03.16.23.719
12944;176325;34.24;631;03.16.23.719
12944;176320;34.24;632;03.16.23.719
12936;176322;34.24;633;03.16.23.719
12944;176328;34.24;634;03.16.23.730
12940;176329;34.24;635;03.16.23.730
12936;176324;34.24;636;03.16.23.730
12960;176325;34.24;637;03.16.23.730
12944;176320;34.24;638;03.16.23.730
12936;176318;34.24;639;03.16.23.730
12944;176322;34.24;640;03.16.23.730
12892;176321;34.24;641;03.16.23.730
12932;176312;34.24;642;03.16.23.730
12976;176305;34.24;643;03.16.23.730
12944;176310;34.24;644;03.16.23.730
12936;176300;34.24;645;03.16.23.730
12924;176294;34.24;646;03.16.23.730
12944;176296;34.24;647;03.16.23.741
12936;176302;34.24;648;03.16.23.741
12960;176288;34.24;649;03.16.23.741
12944;176303;34.24;650;03.16.23.850
12932;176303;34.24;651;03.16.23.850
12956;176286;34.24;652;03.16.23.850
12936;176291;34.24;653;03.16.23.850
12920;176303;34.24;654;03.16.23.850
12960;176304;34.24;655;03.16.23.850
12960;176300;34.24;656;03.16.23.861
12940;176297;34.24;657;03.16.23.861
12964;176305;34.24;658;03.16.23.861
12960;176305;34.24;659;03.16.23.861
12940;176298;34.24;660;03.16.23.861
12960;176305;34.24;661;03.16.23.861
12960;176294;34.24;662;03.16.23.861
12964;176298;34.24;663;03.16.23.861
12948;176298;34.24;664;03.16.23.861
12976;176304;34.24;665;03.16.23.861
12948;176298;34.24;666;03.16.23.861
12936;176302;34.24;667;03.16.23.861
12952;176298;34.24;668;03.16.23.861
12944;176298;34.24;669;03.16.23.872
12952;176299;34.24;670;03.16.23.872
12948;176299;34.24;671;03.16.23.872
12928;176289;34.24;672;03.16.23.872
12940;176295;34.24;673;03.16.23.872
12936;176300;34.24;674;03.16.23.872
12920;176292;34.32;675;03.16.23.938
12944;176292;34.32;676;03.16.23.938
12916;176297;34.32;677;03.16.23.949
12928;176287;34.32;678;03.16.23.949
12944;176286;34.32;679;03.16.23.949
12928;176284;34.32;680;03.16.23.949
12960;176273;34.32;681;03.16.23.949
12960;176274;34.32;682;03.16.23.949
12960;176275;34.32;683;03.16.23.949
12920;176268;34.32;684;03.16.23.949
12892;176276;34.32;685;03.16.23.949
12944;176278;34.32;686;03.16.23.949
12960;176263;34.32;687;03.16.23.949
12956;176267;34.32;688;03.16.23.949
12936;176276;34.32;689;03.16.23.960
12944;176263;34.32;690;03.16.23.960
12940;176256;34.32;691;03.16.23.960
12936;176256;34.32;692;03.16.23.960
12948;176251;34.32;693;03.16.23.960
12928;176244;34.32;694;03.16.23.960
12952;176242;34.32;695;03.16.23.960
12932;176242;34.32;696;03.16.23.960
12908;176249;34.32;697;03.16.23.960
12940;176241;34.32;698;03.16.23.960
12968;176248;34.32;699;03.16.23.960
12944;176245;34.32;700;03.16.24.080
12940;176239;34.32;701;03.16.24.080
12916;176243;34.32;702;03.16.24.080
12928;176237;34.32;703;03.16.24.080
12960;176235;34.32;704;03.16.24.080
12940;176240;34.32;705;03.16.24.080
12952;176246;34.32;706;03.16.24.080
12964;176248;34.32;707;03.16.24.080
12904;176241;34.32;708;03.16.24.080
12932;176243;34.32;709;03.16.24.080
12960;176246;34.32;710;03.16.24.091
12908;176251;34.32;711;03.16.24.091
12904;176237;34.32;712;03.16.24.091
12924;176238;34.32;713;03.16.24.091
12952;176245;34.32;714;03.16.24.091
12968;176245;34.32;715;03.16.24.091
12944;176247;34.32;716;03.16.24.091
12960;176246;34.32;717;03.16.24.091
12924;176247;34.32;718;03.16.24.091
12952;176240;34.32;719;03.16.24.091
12920;176247;34.32;720;03.16.24.091
12892;176236;34.32;721;03.16.24.091
12940;176246;34.32;722;03.16.24.091
12936;176247;34.32;723;03.16.24.102
12948;176249;34.32;724;03.16.24.102
12952;176248;34.24;725;03.16.24.211
12916;176254;34.24;726;03.16.24.211
12924;176259;34.24;727;03.16.24.211
12936;176272;34.24;728;03.16.24.211
12928;176251;34.24;729;03.16.24.211
12948;176252;34.24;730;03.16.24.222
12944;176252;34.24;731;03.16.24.222
12932;176261;34.24;732;03.16.24.222
12944;176256;34.24;733;03.16.24.222
12960;176259;34.24;734;03.16.24.222
12936;176255;34.24;735;03.16.24.222
12912;176257;34.24;736;03.16.24.222
12964;176255;34.24;737;03.16.24.222
12948;176255;34.24;738;03.16.24.222
12924;176262;34.24;739;03.16.24.222
12948;176257;34.24;740;03.16.24.222
12944;176268;34.24;741;03.16.24.222
12936;176258;34.24;742;03.16.24.266
12948;176266;34.24;743;03.16.24.266
12944;176263;34.24;744;03.16.24.266
12948;176257;34.24;745;03.16.24.266
12932;176266;34.24;746;03.16.24.266
12924;176261;34.24;747;03.16.24.277
12940;176255;34.24;748;03.16.24.277
12908;176258;34.24;749;03.16.24.277
12920;176256;34.24;750;03.16.24.320
12924;176256;34.24;751;03.16.24.331
12964;176250;34.24;752;03.16.24.331
12904;176248;34.24;753;03.16.24.331
12936;176251;34.24;754;03.16.24.331
12932;176243;34.24;755;03.16.24.331
12948;176244;34.24;756;03.16.24.331
12952;176237;34.24;757;03.16.24.331
12944;176232;34.24;758;03.16.24.342
12928;176230;34.24;759;03.16.24.353
12916;176230;34.24;760;03.16.24.353
12928;176220;34.24;761;03.16.24.353
12936;176221;34.24;762;03.16.24.353
12904;176226;34.24;763;03.16.24.353
12960;176223;34.24;764;03.16.24.353
12944;176231;34.24;765;03.16.24.353
12944;176221;34.24;766;03.16.24.353
12948;176226;34.24;767;03.16.24.353
12924;176220;34.24;768;03.16.24.353
12940;176220;34.24;769;03.16.24.353
12932;176222;34.24;770;03.16.24.353
12924;176227;34.24;771;03.16.24.353
12948;176232;34.24;772;03.16.24.353
12936;176219;34.24;773;03.16.24.365
12924;176226;34.24;774;03.16.24.365
12960;176228;34.32;775;03.16.24.463
12944;176229;34.32;776;03.16.24.463
12948;176231;34.32;777;03.16.24.463
12932;176229;34.32;778;03.16.24.463
12956;176226;34.32;779;03.16.24.463
12952;176230;34.32;780;03.16.24.463
12952;176231;34.32;781;03.16.24.463
12908;176236;34.32;782;03.16.24.463
12956;176246;34.32;783;03.16.24.496
12940;176247;34.32;784;03.16.24.496
12960;176251;34.32;785;03.16.24.496
12932;176250;34.32;786;03.16.24.496
12960;176246;34.32;787;03.16.24.496
12940;176245;34.32;788;03.16.24.496
12944;176253;34.32;789;03.16.24.496
12936;176245;34.32;790;03.16.24.496
12960;176251;34.32;791;03.16.24.496
12924;176261;34.32;792;03.16.24.496
12924;176254;34.32;793;03.16.24.507
12920;176255;34.32;794;03.16.24.507
12932;176259;34.32;795;03.16.24.507
12924;176258;34.32;796;03.16.24.507
12916;176263;34.32;797;03.16.24.507
12908;176253;34.32;798;03.16.24.507
12976;176250;34.32;799;03.16.24.507
12928;176263;34.32;800;03.16.24.573
12944;176261;34.32;801;03.16.24.573
12944;176264;34.32;802;03.16.24.573
12928;176260;34.32;803;03.16.24.573
12928;176252;34.32;804;03.16.24.573
12920;176264;34.32;805;03.16.24.573
12952;176265;34.32;806;03.16.24.573
12912;176262;34.32;807;03.16.24.584
12944;176256;34.32;808;03.16.24.584
12928;176250;34.32;809;03.16.24.584
12940;176252;34.32;810;03.16.24.584
12936;176241;34.32;811;03.16.24.584
12924;176238;34.32;812;03.16.24.584
12932;176237;34.32;813;03.16.24.584
12944;176241;34.32;814;03.16.24.584
12924;176233;34.32;815;03.16.24.584
12944;176226;34.32;816;03.16.24.584
12928;176216;34.32;817;03.16.24.584
12924;176223;34.32;818;03.16.24.584
12940;176222;34.32;819;03.16.24.584
12924;176209;34.32;820;03.16.24.595
12956;176209;34.32;821;03.16.24.595
12924;176206;34.32;822;03.16.24.595
12928;176202;34.32;823;03.16.24.595
12980;176202;34.32;824;03.16.24.595
12944;176201;34.28;825;03.16.24.704
12948;176200;34.28;826;03.16.24.704
12916;176197;34.28;827;03.16.24.704
12944;176196;34.28;828;03.16.24.704
12928;176199;34.28;829;03.16.24.715
12920;176195;34.28;830;03.16.24.715
12944;176203;34.28;831;03.16.24.715
12924;176197;34.28;832;03.16.24.715
12956;176201;34.28;833;03.16.24.715
12940;176205;34.28;834;03.16.24.715
12952;176204;34.28;835;03.16.24.715
12956;176205;34.28;836;03.16.24.715
12936;176209;34.28;837;03.16.24.715
12944;176205;34.28;838;03.16.24.715
12932;176214;34.28;839;03.16.24.715
12932;176209;34.28;840;03.16.24.715
12932;176210;34.28;841;03.16.24.726
12916;176218;34.28;842;03.16.24.726
12936;176227;34.28;843;03.16.24.726
12924;176227;34.28;844;03.16.24.726
12948;176225;34.28;845;03.16.24.726
12952;176216;34.28;846;03.16.24.726
12936;176221;34.28;847;03.16.24.726
12908;176221;34.28;848;03.16.24.726
12952;176220;34.28;849;03.16.24.726
12936;176223;34.28;850;03.16.24.825
12944;176216;34.28;851;03.16.24.825
12952;176215;34.28;852;03.16.24.825
12924;176208;34.28;853;03.16.24.825
12964;176212;34.28;854;03.16.24.825
12968;176213;34.28;855;03.16.24.825
12932;176192;34.28;856;03.16.24.825
12944;176195;34.28;857;03.16.24.825
12924;176195;34.28;858;03.16.24.847
12928;176183;34.28;859;03.16.24.847
12924;176183;34.28;860;03.16.24.847
12948;176189;34.28;861;03.16.24.847
12956;176192;34.28;862;03.16.24.847
12924;176191;34.28;863;03.16.24.847
12944;176190;34.28;864;03.16.24.847
12936;176189;34.28;865;03.16.24.847
12940;176183;34.28;866;03.16.24.847
12944;176174;34.28;867;03.16.24.847
12912;176168;34.28;868;03.16.24.847
12936;176173;34.28;869;03.16.24.847
12944;176152;34.28;870;03.16.24.858
12928;176158;34.28;871;03.16.24.858
12944;176142;34.28;872;03.16.24.858
12932;176142;34.28;873;03.16.24.858
12960;176134;34.28;874;03.16.24.858
12928;176129;34.32;875;03.16.24.945
12936;176117;34.32;876;03.16.24.945
12932;176124;34.32;877;03.16.24.945
12904;176117;34.32;878;03.16.24.945
12992;176109;34.32;879;03.16.24.945
12928;176098;34.32;880;03.16.24.945
12932;176094;34.32;881;03.16.24.945
12924;176097;34.32;882;03.16.24.945
12960;176084;34.32;883;03.16.24.967
12924;176086;34.32;884;03.16.24.967
12936;176072;34.32;885;03.16.24.967
12932;176078;34.32;886;03.16.24.967
12956;176060;34.32;887;03.16.24.967
12944;176071;34.32;888;03.16.24.967
12952;176063;34.32;889;03.16.24.967
12936;176046;34.32;890;03.16.24.967
12920;176041;34.32;891;03.16.24.978
12916;176039;34.32;892;03.16.24.978
12928;176028;34.32;893;03.16.24.978
12920;176031;34.32;894;03.16.24.978
12948;176030;34.32;895;03.16.24.978
12928;176027;34.32;896;03.16.24.978
12924;176025;34.32;897;03.16.24.978
12924;176023;34.32;898;03.16.24.978
12944;176013;34.32;899;03.16.24.978
12928;176009;34.32;900;03.16.25.066
12912;176001;34.32;901;03.16.25.066
12924;176004;34.32;902;03.16.25.066
12952;175996;34.32;903;03.16.25.066
12948;175990;34.32;904;03.16.25.066
12944;175979;34.32;905;03.16.25.077
12948;175974;34.32;906;03.16.25.077
12936;175975;34.32;907;03.16.25.077
12920;175963;34.32;908;03.16.25.077
12936;175968;34.32;909;03.16.25.077
12944;175966;34.32;910;03.16.25.077
12960;175974;34.32;911;03.16.25.077
12952;175975;34.32;912;03.16.25.077
12924;175979;34.32;913;03.16.25.077
12928;175983;34.32;914;03.16.25.077
12928;175981;34.32;915;03.16.25.077
12916;175984;34.32;916;03.16.25.077
12928;175976;34.32;917;03.16.25.088
12916;175998;34.32;918;03.16.25.088
12952;175988;34.32;919;03.16.25.088
12932;175990;34.32;920;03.16.25.088
12920;176001;34.32;921;03.16.25.088
12932;175997;34.32;922;03.16.25.088
12908;176004;34.32;923;03.16.25.099
12948;176007;34.32;924;03.16.25.099
12936;176011;34.32;925;03.16.25.198
12924;176009;34.32;926;03.16.25.209
12904;176011;34.32;927;03.16.25.209
12944;176015;34.32;928;03.16.25.209
12916;176018;34.32;929;03.16.25.209
12940;176012;34.32;930;03.16.25.209
12948;176019;34.32;931;03.16.25.209
12948;176019;34.32;932;03.16.25.209
12928;176025;34.32;933;03.16.25.209
12944;176015;34.32;934;03.16.25.209
12932;176018;34.32;935;03.16.25.209
12924;176027;34.32;936;03.16.25.209
12920;176028;34.32;937;03.16.25.209
12892;176039;34.32;938;03.16.25.209
12960;176038;34.32;939;03.16.25.220
12960;176039;34.32;940;03.16.25.220
12940;176049;34.32;941;03.16.25.220
12924;176055;34.32;942;03.16.25.220
12936;176056;34.32;943;03.16.25.220
12952;176061;34.32;944;03.16.25.231
12940;176058;34.32;945;03.16.25.231
12936;176073;34.32;946;03.16.25.231
12940;176076;34.32;947;03.16.25.231
12936;176083;34.32;948;03.16.25.231
12948;176096;34.32;949;03.16.25.231
12924;176094;34.32;950;03.16.25.340
12952;176098;34.32;951;03.16.25.340
12944;176111;34.32;952;03.16.25.340
12960;176108;34.32;953;03.16.25.340
12920;176113;34.32;954;03.16.25.340
12960;176114;34.32;955;03.16.25.340
12924;176119;34.32;956;03.16.25.340
12932;176121;34.32;957;03.16.25.340
12940;176121;34.32;958;03.16.25.351
12948;176113;34.32;959;03.16.25.351
12940;176127;34.32;960;03.16.25.351
12940;176113;34.32;961;03.16.25.351
12948;176114;34.32;962;03.16.25.351
12960;176110;34.32;963;03.16.25.351
12936;176097;34.32;964;03.16.25.351
12920;176098;34.32;965;03.16.25.351
12924;176097;34.32;966;03.16.25.351
12936;176092;34.32;967;03.16.25.351
12944;176095;34.32;968;03.16.25.351
12908;176081;34.32;969;03.16.25.362
12940;176079;34.32;970;03.16.25.362
12936;176081;34.32;971;03.16.25.362
12940;176063;34.32;972;03.16.25.362
12924;176065;34.32;973;03.16.25.362
12932;176064;34.32;974;03.16.25.362
12932;176062;34.28;975;03.16.25.450
12948;176067;34.28;976;03.16.25.450
12936;176071;34.28;977;03.16.25.450
12920;176063;34.28;978;03.16.25.450
12944;176069;34.28;979;03.16.25.450
12940;176071;34.28;980;03.16.25.450
12960;176059;34.28;981;03.16.25.450
12924;176063;34.28;982;03.16.25.461
12944;176064;34.28;983;03.16.25.461
12960;176062;34.28;984;03.16.25.461
12940;176059;34.28;985;03.16.25.461
12932;176065;34.28;986;03.16.25.461
12948;176055;34.28;987;03.16.25.461
12952;176063;34.28;988;03.16.25.461
12928;176058;34.28;989;03.16.25.461
12944;176048;34.28;990;03.16.25.461
12940;176054;34.28;991;03.16.25.461
12960;176047;34.28;992;03.16.25.472
12944;176049;34.28;993;03.16.25.472
12928;176051;34.28;994;03.16.25.472
12944;176047;34.28;995;03.16.25.472
12956;176052;34.28;996;03.16.25.472
12932;176043;34.28;997;03.16.25.472
12952;176033;34.28;998;03.16.25.472
12960;176044;34.28;999;03.16.25.483
12940;176032;34.28;000;03.16.25.570
12924;176026;34.28;001;03.16.25.570
12952;176022;34.28;002;03.16.25.581
12940;176021;34.28;003;03.16.25.581
12944;176026;34.28;004;03.16.25.581
12932;176018;34.28;005;03.16.25.581
12948;176013;34.28;006;03.16.25.581
12908;176007;34.28;007;03.16.25.581
12932;176021;34.28;008;03.16.25.581
12920;176018;34.28;009;03.16.25.581
12948;176021;34.28;010;03.16.25.581
12944;176015;34.28;011;03.16.25.581
12948;176017;34.28;012;03.16.25.581
12944;176015;34.28;013;03.16.25.581
12932;176019;34.28;014;03.16.25.581
12952;176015;34.28;015;03.16.25.592
12940;176008;34.28;016;03.16.25.592
12924;176012;34.28;017;03.16.25.592
12932;176008;34.28;018;03.16.25.592
12964;176004;34.28;019;03.16.25.592
12944;176004;34.28;020;03.16.25.592
12940;176005;34.28;021;03.16.25.592
12960;176005;34.28;022;03.16.25.592
12940;175997;34.28;023;03.16.25.592
12948;176007;34.28;024;03.16.25.592
12928;176004;34.32;025;03.16.25.694
12924;176009;34.32;026;03.16.25.694
12960;176012;34.32;027;03.16.25.705
12940;176006;34.32;028;03.16.25.705
12920;176005;34.32;029;03.16.25.705
12908;176015;34.32;030;03.16.25.705
12960;176021;34.32;031;03.16.25.705
12944;176015;34.32;032;03.16.25.705
12936;176013;34.32;033;03.16.25.705
12928;176007;34.32;034;03.16.25.705
12936;176007;34.32;035;03.16.25.705
12960;176006;34.32;036;03.16.25.705
12924;175996;34.32;037;03.16.25.705
12956;175997;34.32;038;03.16.25.705
12920;175992;34.32;039;03.16.25.705
12928;175995;34.32;040;03.16.25.705
12944;175982;34.32;041;03.16.25.716
12936;175981;34.32;042;03.16.25.716
12944;175970;34.32;043;03.16.25.716
12928;175977;34.32;044;03.16.25.716
12940;175973;34.32;045;03.16.25.716
12924;175975;34.32;046;03.16.25.716
12920;175973;34.32;047;03.16.25.716
12924;175973;34.32;048;03.16.25.716
12944;175973;34.32;049;03.16.25.716
12948;175973;34.32;050;03.16.25.837
12948;175980;34.32;051;03.16.25.837
12944;175975;34.32;052;03.16.25.837
12928;175985;34.32;053;03.16.25.837
12928;175973;34.32;054;03.16.25.837
12920;175982;34.32;055;03.16.25.837
12960;175979;34.32;056;03.16.25.837
12928;175981;34.32;057;03.16.25.837
12940;175987;34.32;058;03.16.25.837
12944;175989;34.32;059;03.16.25.837
12944;175992;34.32;060;03.16.25.837
12960;175992;34.32;061;03.16.25.837
12956;175993;34.32;062;03.16.25.848
12944;175997;34.32;063;03.16.25.848
12904;175999;34.32;064;03.16.25.848
12928;176000;34.32;065;03.16.25.848
12936;175999;34.32;066;03.16.25.848
12928;175996;34.32;067;03.16.25.848
12932;176001;34.32;068;03.16.25.848
12936;176011;34.32;069;03.16.25.848
12924;175999;34.32;070;03.16.25.848
12944;175991;34.32;071;03.16.25.848
12928;175996;34.32;072;03.16.25.848
12924;175993;34.32;073;03.16.25.848
12924;175986;34.32;074;03.16.25.859
12936;175989;34.32;075;03.16.25.946
12948;175994;34.32;076;03.16.25.946
12928;175993;34.32;077;03.16.25.946
12920;175987;34.32;078;03.16.25.946
12916;175987;34.32;079;03.16.25.946
12968;175981;34.32;080;03.16.25.946
12940;175975;34.32;081;03.16.25.946
12928;175992;34.32;082;03.16.25.946
12912;175992;34.32;083;03.16.25.957
12948;175984;34.32;084;03.16.25.957
12920;175987;34.32;085;03.16.25.957
12940;175994;34.32;086;03.16.25.957
12948;175989;34.32;087;03.16.25.957
12932;175993;34.32;088;03.16.25.957
12936;175999;34.32;089;03.16.25.957
12936;175994;34.32;090;03.16.25.968
12944;175997;34.32;091;03.16.25.968
12912;175992;34.32;092;03.16.25.968
12960;175990;34.32;093;03.16.25.968
12900;175996;34.32;094;03.16.25.968
12936;175988;34.32;095;03.16.25.968
12948;175991;34.32;096;03.16.25.968
12920;175998;34.32;097;03.16.25.968
12932;175993;34.32;098;03.16.25.979
12948;176000;34.32;099;03.16.25.979
12944;175995;34.32;100;03.16.26.066
12916;176002;34.32;101;03.16.26.066
12916;175996;34.32;102;03.16.26.066
12936;175999;34.32;103;03.16.26.066
12936;176001;34.32;104;03.16.26.077
12936;176010;34.32;105;03.16.26.077
12936;176004;34.32;106;03.16.26.077
12932;176009;34.32;107;03.16.26.077
12924;176006;34.32;108;03.16.26.088
12936;176004;34.32;109;03.16.26.088
12944;176001;34.32;110;03.16.26.088
12932;176005;34.32;111;03.16.26.099
12932;176003;34.32;112;03.16.26.099
12932;175997;34.32;113;03.16.26.099
12940;176013;34.32;114;03.16.26.099
12968;176008;34.32;115;03.16.26.099
12916;176005;34.32;116;03.16.26.099
12948;176004;34.32;117;03.16.26.099
12948;176009;34.32;118;03.16.26.099
12924;176015;34.32;119;03.16.26.099
12928;176011;34.32;120;03.16.26.099
12916;176003;34.32;121;03.16.26.099
12956;176004;34.32;122;03.16.26.099
12936;176012;34.32;123;03.16.26.110
12948;176012;34.32;124;03.16.26.110
12940;176021;34.28;125;03.16.26.197
12940;176015;34.28;126;03.16.26.197
12932;176019;34.28;127;03.16.26.197
12944;176020;34.28;128;03.16.26.197
12952;176017;34.28;129;03.16.26.197
12960;176022;34.28;130;03.16.26.197
12908;176021;34.28;131;03.16.26.197
12948;176018;34.28;132;03.16.26.197
12936;176023;34.28;133;03.16.26.208
12952;176013;34.28;134;03.16.26.208
12944;176009;34.28;135;03.16.26.208
12936;176005;34.28;136;03.16.26.208
12928;176007;34.28;137;03.16.26.208
12920;176007;34.28;138;03.16.26.208
12924;176000;34.28;139;03.16.26.208
12932;175987;34.28;140;03.16.26.208
12944;175980;34.28;141;03.16.26.208
12932;175976;34.28;142;03.16.26.219
12944;175970;34.28;143;03.16.26.219
12940;175965;34.28;144;03.16.26.219
12924;175956;34.28;145;03.16.26.219
12944;175963;34.28;146;03.16.26.219
12976;175951;34.28;147;03.16.26.219
12940;175942;34.28;148;03.16.26.219
12944;175934;34.28;149;03.16.26.219
12916;175933;34.28;150;03.16.26.329
12944;175927;34.28;151;03.16.26.329
12928;175919;34.28;152;03.16.26.329
12924;175915;34.28;153;03.16.26.329
12908;175916;34.28;154;03.16.26.329
12940;175918;34.28;155;03.16.26.329
12956;175907;34.28;156;03.16.26.329
12952;175911;34.28;157;03.16.26.329
12920;175906;34.28;158;03.16.26.329
12960;175905;34.28;159;03.16.26.340
12940;175904;34.28;160;03.16.26.340
12924;175903;34.28;161;03.16.26.340
12932;175904;34.28;162;03.16.26.340
12952;175905;34.28;163;03.16.26.340
12916;175903;34.28;164;03.16.26.340
12944;175909;34.28;165;03.16.26.340
12940;175916;34.28;166;03.16.26.340
12960;175925;34.28;167;03.16.26.340
12916;175910;34.28;168;03.16.26.340
12928;175922;34.28;169;03.16.26.340
12936;175917;34.28;170;03.16.26.340
12940;175919;34.28;171;03.16.26.340
12924;175930;34.28;172;03.16.26.340
12916;175935;34.28;173;03.16.26.351
12944;175929;34.28;174;03.16.26.351
12932;175933;34.32;175;03.16.26.449
12920;175940;34.32;176;03.16.26.449
12924;175941;34.32;177;03.16.26.449
12936;175941;34.32;178;03.16.26.460
12932;175942;34.32;179;03.16.26.460
12924;175942;34.32;180;03.16.26.460
12944;175938;34.32;181;03.16.26.460
12920;175937;34.32;182;03.16.26.460
12928;175942;34.32;183;03.16.26.460
12948;175943;34.32;184;03.16.26.460
12936;175937;34.32;185;03.16.26.460
12944;175948;34.32;186;03.16.26.460
12968;175947;34.32;187;03.16.26.460
12952;175952;34.32;188;03.16.26.460
12944;175951;34.32;189;03.16.26.460
12940;175953;34.32;190;03.16.26.471
12940;175952;34.32;191;03.16.26.471
12936;175953;34.32;192;03.16.26.471
12916;175957;34.32;193;03.16.26.471
12936;175952;34.32;194;03.16.26.471
12932;175954;34.32;195;03.16.26.471
12932;175953;34.32;196;03.16.26.471
12936;175955;34.32;197;03.16.26.482
12932;175945;34.32;198;03.16.26.482
12944;175948;34.32;199;03.16.26.482
12940;175954;34.32;200;03.16.26.570
12928;175950;34.32;201;03.16.26.581
12936;175957;34.32;202;03.16.26.581
12948;175955;34.32;203;03.16.26.581
12952;175954;34.32;204;03.16.26.581
12892;175948;34.32;205;03.16.26.581
12944;175941;34.32;206;03.16.26.581
12960;175938;34.32;207;03.16.26.581
12916;175932;34.32;208;03.16.26.581
12936;175927;34.32;209;03.16.26.581
12928;175938;34.32;210;03.16.26.581
12916;175923;34.32;211;03.16.26.592
12932;175919;34.32;212;03.16.26.592
12928;175914;34.32;213;03.16.26.592
12916;175908;34.32;214;03.16.26.592
12944;175914;34.32;215;03.16.26.592
12960;175915;34.32;216;03.16.26.592
12932;175919;34.32;217;03.16.26.669
12944;175917;34.32;218;03.16.26.669
12948;175913;34.32;219;03.16.26.669
12936;175917;34.32;220;03.16.26.669
12980;175924;34.32;221;03.16.26.669
12924;175929;34.32;222;03.16.26.669
12944;175925;34.32;223;03.16.26.669
12948;175929;34.32;224;03.16.26.669
12932;175940;34.28;225;03.16.26.702
12960;175943;34.28;226;03.16.26.702
12952;175935;34.28;227;03.16.26.702
12944;175935;34.28;228;03.16.26.702
12936;175939;34.28;229;03.16.26.702
12936;175940;34.28;230;03.16.26.702
12968;175942;34.28;231;03.16.26.702
12960;175947;34.28;232;03.16.26.702
12908;175944;34.28;233;03.16.26.702
12932;175944;34.28;234;03.16.26.702
12924;175945;34.28;235;03.16.26.712
12928;175940;34.28;236;03.16.26.712
12932;175932;34.28;237;03.16.26.712
12964;175936;34.28;238;03.16.26.712
12932;175932;34.28;239;03.16.26.712
12924;175932;34.28;240;03.16.26.712
12928;175929;34.28;241;03.16.26.712
12908;175927;34.28;242;03.16.26.712
12928;175915;34.28;243;03.16.26.712
12920;175921;34.28;244;03.16.26.712
12928;175923;34.28;245;03.16.26.712
12932;175924;34.28;246;03.16.26.712
12956;175917;34.28;247;03.16.26.712
12944;175916;34.28;248;03.16.26.723
12944;175919;34.28;249;03.16.26.723
12924;175923;34.28;250;03.16.26.833
12932;175925;34.28;251;03.16.26.833
12960;175916;34.28;252;03.16.26.833
12948;175924;34.28;253;03.16.26.833
12940;175933;34.28;254;03.16.26.833
12944;175931;34.28;255;03.16.26.833
12944;175937;34.28;256;03.16.26.844
12928;175930;34.28;257;03.16.26.844
12924;175935;34.28;258;03.16.26.844
12936;175932;34.28;259;03.16.26.844
12936;175931;34.28;260;03.16.26.844
12932;175931;34.28;261;03.16.26.844
12916;175932;34.28;262;03.16.26.844
12960;175935;34.28;263;03.16.26.844
12936;175932;34.28;264;03.16.26.844
12928;175932;34.28;265;03.16.26.844
12908;175938;34.28;266;03.16.26.844
12952;175942;34.28;267;03.16.26.855
12924;175933;34.28;268;03.16.26.855
12960;175936;34.28;269;03.16.26.855
12916;175934;34.28;270;03.16.26.855
12932;175930;34.28;271;03.16.26.855
12940;175931;34.28;272;03.16.26.855
12908;175920;34.28;273;03.16.26.855
12932;175921;34.28;274;03.16.26.866
12944;175934;34.32;275;03.16.26.965
12936;175924;34.32;276;03.16.26.965
12940;175937;34.32;277;03.16.26.965
12928;175932;34.32;278;03.16.26.965
12940;175934;34.32;279;03.16.26.976
12936;175929;34.32;280;03.16.26.976
12944;175939;34.32;281;03.16.26.976
12952;175935;34.32;282;03.16.26.976
12924;175929;34.32;283;03.16.26.976
12960;175932;34.32;284;03.16.26.976
12932;175939;34.32;285;03.16.26.976
12908;175936;34.32;286;03.16.26.976
12928;175945;34.32;287;03.16.26.976
12952;175935;34.32;288;03.16.26.976
12928;175936;34.32;289;03.16.26.976
12960;175935;34.32;290;03.16.26.976
12940;175943;34.32;291;03.16.26.987
12892;175950;34.32;292;03.16.26.987
12932;175951;34.32;293;03.16.26.987
12932;175951;34.32;294;03.16.26.987
12960;175961;34.32;295;03.16.26.998
12952;175962;34.32;296;03.16.26.998
12944;175961;34.32;297;03.16.26.998
12960;175972;34.32;298;03.16.26.998
12960;175967;34.32;299;03.16.26.998
12920;175983;34.32;300;03.16.27.075
12908;175969;34.32;301;03.16.27.075
12960;175977;34.32;302;03.16.27.075
12908;175970;34.32;303;03.16.27.075
12912;175970;34.32;304;03.16.27.075
12932;175974;34.32;305;03.16.27.075
12944;175983;34.32;306;03.16.27.075
12952;175981;34.32;307;03.16.27.075
12932;175975;34.32;308;03.16.27.085
12932;175978;34.32;309;03.16.27.085
12932;175983;34.32;310;03.16.27.085
12936;175988;34.32;311;03.16.27.085
12920;175985;34.32;312;03.16.27.085
12960;175984;34.32;313;03.16.27.085
12956;175990;34.32;314;03.16.27.085
12960;175990;34.32;315;03.16.27.085
12960;176004;34.32;316;03.16.27.085
12940;175989;34.32;317;03.16.27.118
12948;175999;34.32;318;03.16.27.118
12960;176002;34.32;319;03.16.27.118
12908;176001;34.32;320;03.16.27.118
12940;175998;34.32;321;03.16.27.118
12924;175993;34.32;322;03.16.27.118
12940;176007;34.32;323;03.16.27.118
12944;176001;34.32;324;03.16.27.118
12916;175994;34.32;325;03.16.27.195
12924;176015;34.32;326;03.16.27.195
12936;175998;34.32;327;03.16.27.195
12960;176007;34.32;328;03.16.27.195
12940;176017;34.32;329;03.16.27.195
12924;176000;34.32;330;03.16.27.195
12920;176015;34.32;331;03.16.27.195
12952;176005;34.32;332;03.16.27.195
12932;176012;34.32;333;03.16.27.195
12912;176017;34.32;334;03.16.27.206
12976;176016;34.32;335;03.16.27.206
12936;176011;34.32;336;03.16.27.206
12924;176015;34.32;337;03.16.27.206
12932;176018;34.32;338;03.16.27.206
12928;176015;34.32;339;03.16.27.206
12916;176013;34.32;340;03.16.27.206
12924;176019;34.32;341;03.16.27.206
12932;176015;34.32;342;03.16.27.206
12936;176011;34.32;343;03.16.27.206
12892;176008;34.32;344;03.16.27.206
12944;176009;34.32;345;03.16.27.206
12944;176004;34.32;346;03.16.27.206
12924;176010;34.32;347;03.16.27.217
12960;176009;34.32;348;03.16.27.217
12936;176002;34.32;349;03.16.27.217
12940;176015;34.32;350;03.16.27.327
12952;176007;34.32;351;03.16.27.327
12932;176010;34.32;352;03.16.27.327
12944;176011;34.32;353;03.16.27.327
12956;176005;34.32;354;03.16.27.338
12924;176008;34.32;355;03.16.27.338
12932;176001;34.32;356;03.16.27.338
12952;176002;34.32;357;03.16.27.338
12932;175997;34.32;358;03.16.27.338
12924;176000;34.32;359;03.16.27.338
12952;175998;34.32;360;03.16.27.338
12932;175996;34.32;361;03.16.27.338
12944;175999;34.32;362;03.16.27.338
12952;175991;34.32;363;03.16.27.338
12932;175989;34.32;364;03.16.27.338
12924;175978;34.32;365;03.16.27.338
12932;175983;34.32;366;03.16.27.338
12908;175973;34.32;367;03.16.27.371
12944;175977;34.32;368;03.16.27.371
12940;175981;34.32;369;03.16.27.371
12932;175978;34.32;370;03.16.27.371
12944;175960;34.32;371;03.16.27.382
12952;175968;34.32;372;03.16.27.382
12936;175966;34.32;373;03.16.27.382
12932;175960;34.32;374;03.16.27.382
12936;175960;34.28;375;03.16.27.458
12932;175968;34.28;376;03.16.27.469
12904;175951;34.28;377;03.16.27.469
12928;175948;34.28;378;03.16.27.469
12940;175959;34.28;379;03.16.27.469
12912;175949;34.28;380;03.16.27.469
12944;175947;34.28;381;03.16.27.469
12952;175944;34.28;382;03.16.27.469
12944;175939;34.28;383;03.16.27.469
12936;175942;34.28;384;03.16.27.469
12928;175943;34.28;385;03.16.27.469
12960;175939;34.28;386;03.16.27.469
12940;175938;34.28;387;03.16.27.469
12928;175942;34.28;388;03.16.27.469
12920;175939;34.28;389;03.16.27.480
12924;175957;34.28;390;03.16.27.480
12944;175958;34.28;391;03.16.27.480
12932;175960;34.28;392;03.16.27.480
12928;175958;34.28;393;03.16.27.480
12928;175971;34.28;394;03.16.27.480
12944;175969;34.28;395;03.16.27.480
12964;175969;34.28;396;03.16.27.480
12940;175976;34.28;397;03.16.27.480
12932;175978;34.28;398;03.16.27.480
12924;175983;34.28;399;03.16.27.480
12936;175990;34.28;400;03.16.27.578
12908;175988;34.28;401;03.16.27.578
12928;175982;34.28;402;03.16.27.578
12920;175982;34.28;403;03.16.27.578
12940;175987;34.28;404;03.16.27.578
12928;175978;34.28;405;03.16.27.578
12924;175980;34.28;406;03.16.27.578
12928;175979;34.28;407;03.16.27.578
12928;175986;34.28;408;03.16.27.600
12960;175987;34.28;409;03.16.27.600
12924;175982;34.28;410;03.16.27.600
12956;175984;34.28;411;03.16.27.600
12964;175971;34.28;412;03.16.27.600
12952;175983;34.28;413;03.16.27.600
12920;175984;34.28;414;03.16.27.600
12924;175984;34.28;415;03.16.27.600
12952;175983;34.28;416;03.16.27.600
12924;175986;34.28;417;03.16.27.611
12924;175989;34.28;418;03.16.27.611
12924;175988;34.28;419;03.16.27.611
12908;175992;34.28;420;03.16.27.611
12944;175997;34.28;421;03.16.27.611
12920;175991;34.28;422;03.16.27.611
12920;175999;34.28;423;03.16.27.611
12968;175988;34.28;424;03.16.27.611
12900;175996;34.32;425;03.16.27.699
12928;176000;34.32;426;03.16.27.699
12924;176000;34.32;427;03.16.27.699
12924;176011;34.32;428;03.16.27.699
12924;176018;34.32;429;03.16.27.699
12952;176007;34.32;430;03.16.27.699
12952;176013;34.32;431;03.16.27.709
12964;176006;34.32;432;03.16.27.709
12944;176015;34.32;433;03.16.27.709
12944;176005;34.32;434;03.16.27.709
12928;176015;34.32;435;03.16.27.709
12920;176010;34.32;436;03.16.27.709
12940;176007;34.32;437;03.16.27.709
12960;176013;34.32;438;03.16.27.709
12952;176010;34.32;439;03.16.27.720
12940;176019;34.32;440;03.16.27.720
12932;176012;34.32;441;03.16.27.720
12920;176013;34.32;442;03.16.27.731
12948;176024;34.32;443;03.16.27.731
12936;176019;34.32;444;03.16.27.731
12924;176021;34.32;445;03.16.27.731
12924;176020;34.32;446;03.16.27.731
12936;176020;34.32;447;03.16.27.742
12940;176015;34.32;448;03.16.27.742
12960;176009;34.32;449;03.16.27.742
12932;176016;34.32;450;03.16.27.819
12952;176006;34.32;451;03.16.27.830
12948;176008;34.32;452;03.16.27.830
12932;176007;34.32;453;03.16.27.830
12940;175998;34.32;454;03.16.27.830
12952;176000;34.32;455;03.16.27.830
12904;175995;34.32;456;03.16.27.830
12964;175988;34.32;457;03.16.27.830
12952;175978;34.32;458;03.16.27.830
12924;175971;34.32;459;03.16.27.830
12932;175971;34.32;460;03.16.27.830
12944;175963;34.32;461;03.16.27.830
12948;175956;34.32;462;03.16.27.830
12960;175955;34.32;463;03.16.27.830
12936;175944;34.32;464;03.16.27.841
12940;175934;34.32;465;03.16.27.841
12944;175934;34.32;466;03.16.27.841
12928;175937;34.32;467;03.16.27.841
12952;175936;34.32;468;03.16.27.841
12928;175935;34.32;469;03.16.27.852
12944;175931;34.32;470;03.16.27.852
12932;175935;34.32;471;03.16.27.852
12960;175931;34.32;472;03.16.27.852
12936;175933;34.32;473;03.16.27.852
12944;175937;34.32;474;03.16.27.852
12932;175938;34.32;475;03.16.27.962
12892;175932;34.32;476;03.16.27.962
12932;175940;34.32;477;03.16.27.962
12936;175939;34.32;478;03.16.27.962
12944;175927;34.32;479;03.16.27.962
12936;175929;34.32;480;03.16.27.962
12908;175928;34.32;481;03.16.27.962
12964;175928;34.32;482;03.16.27.962
12928;175935;34.32;483;03.16.27.962
12968;175927;34.32;484;03.16.27.962
12928;175923;34.32;485;03.16.27.973
12920;175927;34.32;486;03.16.27.973
12928;175933;34.32;487;03.16.27.973
12932;175940;34.32;488;03.16.27.973
12940;175926;34.32;489;03.16.27.973
12936;175922;34.32;490;03.16.27.973
12932;175924;34.32;491;03.16.27.973
12936;175935;34.32;492;03.16.27.973
12936;175927;34.32;493;03.16.27.973
12932;175924;34.32;494;03.16.27.973
12940;175930;34.32;495;03.16.27.973
12924;175929;34.32;496;03.16.27.973
12920;175924;34.32;497;03.16.27.973
12952;175930;34.32;498;03.16.27.973
12944;175926;34.32;499;03.16.27.984
12948;175923;34.32;500;03.16.28.093
12936;175932;34.32;501;03.16.28.093
12928;175925;34.32;502;03.16.28.093
12916;175916;34.32;503;03.16.28.093
12968;175920;34.32;504;03.16.28.093
12948;175917;34.32;505;03.16.28.093
12948;175912;34.32;506;03.16.28.104
12936;175917;34.32;507;03.16.28.104
12944;175914;34.32;508;03.16.28.104
12944;175927;34.32;509;03.16.28.104
12952;175918;34.32;510;03.16.28.104
12924;175914;34.32;511;03.16.28.104
12940;175914;34.32;512;03.16.28.104
12936;175908;34.32;513;03.16.28.104
12924;175913;34.32;514;03.16.28.104
12964;175909;34.32;515;03.16.28.104
12956;175908;34.32;516;03.16.28.104
12928;175896;34.32;517;03.16.28.104
12952;175896;34.32;518;03.16.28.115
12944;175900;34.32;519;03.16.28.115
12924;175902;34.32;520;03.16.28.115
12936;175897;34.32;521;03.16.28.115
12932;175904;34.32;522;03.16.28.115
12920;175899;34.32;523;03.16.28.115
12924;175898;34.32;524;03.16.28.115
12908;175905;34.32;525;03.16.28.202
12928;175895;34.32;526;03.16.28.202
12920;175903;34.32;527;03.16.28.213
12944;175909;34.32;528;03.16.28.213
12928;175919;34.32;529;03.16.28.213
12960;175918;34.32;530;03.16.28.213
12944;175915;34.32;531;03.16.28.213
12940;175927;34.32;532;03.16.28.213
12928;175928;34.32;533;03.16.28.224
12944;175929;34.32;534;03.16.28.224
12940;175937;34.32;535;03.16.28.234
12944;175937;34.32;536;03.16.28.234
12932;175939;34.32;537;03.16.28.234
12908;175947;34.32;538;03.16.28.234
12928;175944;34.32;539;03.16.28.234
12936;175939;34.32;540;03.16.28.234
12952;175949;34.32;541;03.16.28.234
12928;175952;34.32;542;03.16.28.234
12940;175954;34.32;543;03.16.28.234
12920;175949;34.32;544;03.16.28.234
12924;175948;34.32;545;03.16.28.234
12952;175966;34.32;546;03.16.28.234
12928;175958;34.32;547;03.16.28.234
12936;175955;34.32;548;03.16.28.245
12928;175974;34.32;549;03.16.28.245
12932;175967;34.32;550;03.16.28.322
12932;175970;34.32;551;03.16.28.322
12936;175976;34.32;552;03.16.28.322
12936;175981;34.32;553;03.16.28.322
12908;175987;34.32;554;03.16.28.322
12924;175979;34.32;555;03.16.28.322
12964;175987;34.32;556;03.16.28.322
12928;175991;34.32;557;03.16.28.322
12936;175991;34.32;558;03.16.28.344
12944;175999;34.32;559;03.16.28.344
12920;175995;34.32;560;03.16.28.344
12944;175993;34.32;561;03.16.28.344
12944;175991;34.32;562;03.16.28.344
12936;175993;34.32;563;03.16.28.344
12928;175982;34.32;564;03.16.28.344
12928;175993;34.32;565;03.16.28.344
12944;175983;34.32;566;03.16.28.344
12940;175984;34.32;567;03.16.28.366
12952;175976;34.32;568;03.16.28.366
12940;175979;34.32;569;03.16.28.366
12952;175972;34.32;570;03.16.28.366
12948;175963;34.32;571;03.16.28.366
12960;175972;34.32;572;03.16.28.366
12960;175965;34.32;573;03.16.28.366
12936;175964;34.32;574;03.16.28.366
12912;175962;34.32;575;03.16.28.454
12944;175954;34.32;576;03.16.28.454
12944;175959;34.32;577;03.16.28.454
12916;175960;34.32;578;03.16.28.454
12924;175959;34.32;579;03.16.28.454
12924;175963;34.32;580;03.16.28.454
12932;175975;34.32;581;03.16.28.454
12932;175969;34.32;582;03.16.28.454
12944;175974;34.32;583;03.16.28.465
12952;175968;34.32;584;03.16.28.465
12932;175975;34.32;585;03.16.28.465
12940;175975;34.32;586;03.16.28.465
12916;175988;34.32;587;03.16.28.465
12948;175992;34.32;588;03.16.28.465
12932;175989;34.32;589;03.16.28.465
12924;175993;34.32;590;03.16.28.465
12940;175991;34.32;591;03.16.28.465
12900;175996;34.32;592;03.16.28.465
12944;176007;34.32;593;03.16.28.465
12960;176002;34.32;594;03.16.28.465
12960;176006;34.32;595;03.16.28.476
12928;176003;34.32;596;03.16.28.476
12928;176003;34.32;597;03.16.28.476
12920;176009;34.32;598;03.16.28.476
12924;176009;34.32;599;03.16.28.476
12916;176002;34.32;600;03.16.28.586
12932;176001;34.32;601;03.16.28.586
12936;176002;34.32;602;03.16.28.586
12948;175997;34.32;603;03.16.28.597
12928;176003;34.32;604;03.16.28.597
12960;175997;34.32;605;03.16.28.597
12940;176004;34.32;606;03.16.28.597
12936;175998;34.32;607;03.16.28.597
12932;176003;34.32;608;03.16.28.597
12908;176002;34.32;609;03.16.28.597
12952;176007;34.32;610;03.16.28.597
12920;176005;34.32;611;03.16.28.597
12956;176013;34.32;612;03.16.28.597
12920;176018;34.32;613;03.16.28.597
12960;176008;34.32;614;03.16.28.597
12932;176020;34.32;615;03.16.28.597
12952;176009;34.32;616;03.16.28.607
12944;176023;34.32;617;03.16.28.607
12924;176039;34.32;618;03.16.28.607
12960;176033;34.32;619;03.16.28.607
12960;176046;34.32;620;03.16.28.607
12920;176050;34.32;621;03.16.28.607
12920;176060;34.32;622;03.16.28.607
12908;176063;34.32;623;03.16.28.607
12960;176062;34.32;624;03.16.28.607
12920;176076;34.32;625;03.16.28.704
12928;176077;34.32;626;03.16.28.704
12920;176085;34.32;627;03.16.28.704
12952;176085;34.32;628;03.16.28.704
12952;176091;34.32;629;03.16.28.704
12908;176101;34.32;630;03.16.28.704
12932;176096;34.32;631;03.16.28.704
12920;176093;34.32;632;03.16.28.704
12948;176103;34.32;633;03.16.28.726
12908;176109;34.32;634;03.16.28.726
12944;176113;34.32;635;03.16.28.726
12904;176124;34.32;636;03.16.28.726
12948;176123;34.32;637;03.16.28.726
12952;176129;34.32;638;03.16.28.726
12960;176138;34.32;639;03.16.28.726
12952;176138;34.32;640;03.16.28.726
12892;176140;34.32;641;03.16.28.726
12936;176149;34.32;642;03.16.28.726
12956;176155;34.32;643;03.16.28.737
12924;176157;34.32;644;03.16.28.737
12952;176172;34.32;645;03.16.28.737
12948;176187;34.32;646;03.16.28.737
12916;176207;34.32;647;03.16.28.737
12932;176209;34.32;648;03.16.28.737
12940;176227;34.32;649;03.16.28.737
12916;176234;34.32;650;03.16.28.825
12936;176251;34.32;651;03.16.28.825
12924;176263;34.32;652;03.16.28.825
12960;176271;34.32;653;03.16.28.825
12892;176292;34.32;654;03.16.28.825
12928;176308;34.32;655;03.16.28.825
12936;176317;34.32;656;03.16.28.825
12960;176343;34.32;657;03.16.28.836
12916;176351;34.32;658;03.16.28.836
12960;176346;34.32;659;03.16.28.836
12960;176356;34.32;660;03.16.28.836
12940;176381;34.32;661;03.16.28.836
12920;176389;34.32;662;03.16.28.836
12908;176410;34.32;663;03.16.28.836
12936;176421;34.32;664;03.16.28.836
12936;176439;34.32;665;03.16.28.836
12900;176460;34.32;666;03.16.28.836
12916;176475;34.32;667;03.16.28.836
12944;176497;34.32;668;03.16.28.836
12928;176519;34.32;669;03.16.28.836
12960;176529;34.32;670;03.16.28.847
12916;176548;34.32;671;03.16.28.847
12924;176557;34.32;672;03.16.28.847
12960;176580;34.32;673;03.16.28.847
12960;176576;34.32;674;03.16.28.847
12928;176598;34.32;675;03.16.28.946
12936;176602;34.32;676;03.16.28.946
12960;176610;34.32;677;03.16.28.946
12912;176615;34.32;678;03.16.28.957
12928;176618;34.32;679;03.16.28.957
12924;176624;34.32;680;03.16.28.957
12960;176623;34.32;681;03.16.28.957
12928;176629;34.32;682;03.16.28.957
12916;176631;34.32;683;03.16.28.957
12948;176632;34.32;684;03.16.28.957
12932;176633;34.32;685;03.16.28.957
12932;176629;34.32;686;03.16.28.957
12916;176628;34.32;687;03.16.28.957
12928;176621;34.32;688;03.16.28.957
12916;176626;34.32;689;03.16.28.957
12916;176624;34.32;690;03.16.28.957
12952;176617;34.32;691;03.16.28.968
12964;176613;34.32;692;03.16.28.968
12920;176611;34.32;693;03.16.28.968
12908;176611;34.32;694;03.16.28.968
12912;176608;34.32;695;03.16.28.968
12924;176612;34.32;696;03.16.28.978
12876;176617;34.32;697;03.16.28.978
12924;176620;34.32;698;03.16.28.978
12932;176616;34.32;699;03.16.28.978
12920;176623;34.32;700;03.16.29.088
12960;176634;34.32;701;03.16.29.088
12936;176639;34.32;702;03.16.29.088
12948;176644;34.32;703;03.16.29.088
12960;176640;34.32;704;03.16.29.088
12932;176654;34.32;705;03.16.29.088
12920;176662;34.32;706;03.16.29.088
12924;176670;34.32;707;03.16.29.088
12948;176677;34.32;708;03.16.29.088
12936;176679;34.32;709;03.16.29.088
12940;176675;34.32;710;03.16.29.088
12940;176682;34.32;711;03.16.29.088
12948;176682;34.32;712;03.16.29.099
12920;176691;34.32;713;03.16.29.099
12944;176700;34.32;714;03.16.29.099
12956;176693;34.32;715;03.16.29.099
12944;176689;34.32;716;03.16.29.099
12964;176701;34.32;717;03.16.29.099
12892;176707;34.32;718;03.16.29.099
12924;176695;34.32;719;03.16.29.099
12924;176700;34.32;720;03.16.29.099
12912;176693;34.32;721;03.16.29.099
12940;176695;34.32;722;03.16.29.099
12924;176707;34.32;723;03.16.29.099
12956;176691;34.32;724;03.16.29.099
12924;176705;34.32;725;03.16.29.198
12968;176697;34.32;726;03.16.29.198
12924;176689;34.32;727;03.16.29.198
12948;176687;34.32;728;03.16.29.198
12904;176684;34.32;729;03.16.29.198
12928;176690;34.32;730;03.16.29.198
12948;176687;34.32;731;03.16.29.198
12940;176683;34.32;732;03.16.29.198
12948;176680;34.32;733;03.16.29.209
12944;176671;34.32;734;03.16.29.209
12928;176678;34.32;735;03.16.29.209
12960;176676;34.32;736;03.16.29.209
12928;176674;34.32;737;03.16.29.209
12936;176683;34.32;738;03.16.29.209
12952;176673;34.32;739;03.16.29.209
12920;176672;34.32;740;03.16.29.209
12924;176670;34.32;741;03.16.29.209
12936;176666;34.32;742;03.16.29.220
12936;176678;34.32;743;03.16.29.220
12976;176671;34.32;744;03.16.29.220
12944;176669;34.32;745;03.16.29.220
12968;176662;34.32;746;03.16.29.220
12928;176669;34.32;747;03.16.29.220
12928;176664;34.32;748;03.16.29.220
12948;176670;34.32;749;03.16.29.220
12920;176667;34.32;750;03.16.29.319
12912;176664;34.32;751;03.16.29.319
12936;176668;34.32;752;03.16.29.319
12960;176661;34.32;753;03.16.29.319
12924;176663;34.32;754;03.16.29.319
12944;176670;34.32;755;03.16.29.319
12924;176670;34.32;756;03.16.29.330
12936;176685;34.32;757;03.16.29.330
12928;176680;34.32;758;03.16.29.330
12944;176683;34.32;759;03.16.29.330
12932;176686;34.32;760;03.16.29.330
12960;176689;34.32;761;03.16.29.330
12936;176700;34.32;762;03.16.29.330
12924;176701;34.32;763;03.16.29.330
12932;176709;34.32;764;03.16.29.331
12924;176709;34.32;765;03.16.29.342
12948;176702;34.32;766;03.16.29.342
12928;176717;34.32;767;03.16.29.352
12944;176715;34.32;768;03.16.29.352
12904;176716;34.32;769;03.16.29.352
12908;176719;34.32;770;03.16.29.352
12928;176721;34.32;771;03.16.29.352
12928;176712;34.32;772;03.16.29.352
12912;176721;34.32;773;03.16.29.352
12952;176713;34.32;774;03.16.29.363
12944;176716;34.32;775;03.16.29.451
12940;176715;34.32;776;03.16.29.451
12920;176717;34.32;777;03.16.29.451
12924;176732;34.32;778;03.16.29.462
12940;176729;34.32;779;03.16.29.462
12924;176723;34.32;780;03.16.29.462
12924;176732;34.32;781;03.16.29.462
12944;176724;34.32;782;03.16.29.462
12952;176730;34.32;783;03.16.29.462
12944;176716;34.32;784;03.16.29.462
12960;176716;34.32;785;03.16.29.462
12924;176718;34.32;786;03.16.29.462
12948;176724;34.32;787;03.16.29.473
12952;176720;34.32;788;03.16.29.473
12932;176725;34.32;789;03.16.29.473
12936;176724;34.32;790;03.16.29.473
12960;176721;34.32;791;03.16.29.473
12932;176723;34.32;792;03.16.29.473
12920;176724;34.32;793;03.16.29.473
12940;176720;34.32;794;03.16.29.473
12940;176721;34.32;795;03.16.29.473
12948;176730;34.32;796;03.16.29.473
12924;176714;34.32;797;03.16.29.473
12952;176712;34.32;798;03.16.29.473
12932;176723;34.32;799;03.16.29.473
12932;176712;34.32;800;03.16.29.583
12940;176706;34.32;801;03.16.29.583
12928;176704;34.32;802;03.16.29.583
12928;176689;34.32;803;03.16.29.583
12916;176687;34.32;804;03.16.29.583
12948;176674;34.32;805;03.16.29.583
12960;176668;34.32;806;03.16.29.583
12948;176663;34.32;807;03.16.29.583
12952;176655;34.32;808;03.16.29.583
12948;176650;34.32;809;03.16.29.583
12932;176635;34.32;810;03.16.29.583
12956;176640;34.32;811;03.16.29.594
12924;176627;34.32;812;03.16.29.594
12936;176617;34.32;813;03.16.29.594
12964;176627;34.32;814;03.16.29.594
12960;176623;34.32;815;03.16.29.594
12924;176609;34.32;816;03.16.29.594
12904;176612;34.32;817;03.16.29.594
12952;176610;34.32;818;03.16.29.594
12920;176606;34.32;819;03.16.29.594
12956;176602;34.32;820;03.16.29.594
12940;176607;34.32;821;03.16.29.594
12944;176592;34.32;822;03.16.29.594
12932;176598;34.32;823;03.16.29.594
12920;176599;34.32;824;03.16.29.594
12936;176592;34.32;825;03.16.29.714
12936;176585;34.32;826;03.16.29.714
12936;176593;34.32;827;03.16.29.714
12948;176589;34.32;828;03.16.29.714
12960;176586;34.32;829;03.16.29.714
12948;176587;34.32;830;03.16.29.714
12948;176589;34.32;831;03.16.29.714
12960;176597;34.32;832;03.16.29.714
12920;176575;34.32;833;03.16.29.725
12948;176578;34.32;834;03.16.29.725
12940;176576;34.32;835;03.16.29.725
12924;176582;34.32;836;03.16.29.725
12944;176574;34.32;837;03.16.29.725
12924;176566;34.32;838;03.16.29.725
12932;176559;34.32;839;03.16.29.725
12936;176563;34.32;840;03.16.29.725
12948;176551;34.32;841;03.16.29.736
12952;176536;34.32;842;03.16.29.758
12932;176531;34.32;843;03.16.29.758
12920;176524;34.32;844;03.16.29.758
12920;176522;34.32;845;03.16.29.758
12904;176510;34.32;846;03.16.29.758
12948;176505;34.32;847;03.16.29.758
12952;176491;34.32;848;03.16.29.758
12936;176487;34.32;849;03.16.29.769
12908;176478;34.32;850;03.16.29.846
12940;176468;34.32;851;03.16.29.846
12948;176455;34.32;852;03.16.29.846
12932;176450;34.32;853;03.16.29.856
12920;176447;34.32;854;03.16.29.856
12972;176438;34.32;855;03.16.29.856
12936;176428;34.32;856;03.16.29.856
12936;176428;34.32;857;03.16.29.856
12924;176429;34.32;858;03.16.29.856
12924;176430;34.32;859;03.16.29.856
12964;176422;34.32;860;03.16.29.856
12948;176426;34.32;861;03.16.29.856
12952;176427;34.32;862;03.16.29.856
12928;176429;34.32;863;03.16.29.856
12952;176419;34.32;864;03.16.29.856
12940;176414;34.32;865;03.16.29.857
12960;176416;34.32;866;03.16.29.868
12936;176409;34.32;867;03.16.29.868
12932;176404;34.32;868;03.16.29.868
12976;176410;34.32;869;03.16.29.868
12928;176420;34.32;870;03.16.29.868
12948;176414;34.32;871;03.16.29.868
12940;176414;34.32;872;03.16.29.868
12940;176415;34.32;873;03.16.29.868
12904;176413;34.32;874;03.16.29.868
12948;176409;34.32;875;03.16.29.955
12936;176408;34.32;876;03.16.29.955
12932;176411;34.32;877;03.16.29.955
12936;176414;34.32;878;03.16.29.955
12952;176413;34.32;879;03.16.29.955
12960;176405;34.32;880;03.16.29.955
12936;176400;34.32;881;03.16.29.955
12944;176408;34.32;882;03.16.29.955
12932;176405;34.32;883;03.16.29.955
12952;176405;34.32;884;03.16.29.966
12960;176400;34.32;885;03.16.29.966
12960;176396;34.32;886;03.16.29.966
12960;176399;34.32;887;03.16.29.966
12944;176399;34.32;888;03.16.29.966
12992;176389;34.32;889;03.16.29.966
12916;176387;34.32;890;03.16.29.966
12936;176395;34.32;891;03.16.29.966
12948;176395;34.32;892;03.16.29.999
12936;176394;34.32;893;03.16.29.999
12932;176395;34.32;894;03.16.29.999
12960;176396;34.32;895;03.16.29.999
12948;176401;34.32;896;03.16.29.999
12936;176403;34.32;897;03.16.29.999
12948;176399;34.32;898;03.16.29.999
12956;176406;34.32;899;03.16.29.999
12936;176410;34.32;900;03.16.30.076
12952;176415;34.32;901;03.16.30.076
12956;176405;34.32;902;03.16.30.076
12952;176416;34.32;903;03.16.30.076
12952;176414;34.32;904;03.16.30.076
12928;176414;34.32;905;03.16.30.076
12928;176414;34.32;906;03.16.30.076
12928;176412;34.32;907;03.16.30.076
12908;176413;34.32;908;03.16.30.087
12940;176417;34.32;909;03.16.30.087
12968;176411;34.32;910;03.16.30.087
12952;176414;34.32;911;03.16.30.087
12948;176413;34.32;912;03.16.30.087
12948;176405;34.32;913;03.16.30.087
12940;176397;34.32;914;03.16.30.087
12944;176403;34.32;915;03.16.30.087
12920;176404;34.32;916;03.16.30.087
12928;176399;34.32;917;03.16.30.087
12940;176394;34.32;918;03.16.30.098
12908;176395;34.32;919;03.16.30.098
12964;176405;34.32;920;03.16.30.098
12928;176405;34.32;921;03.16.30.098
12932;176407;34.32;922;03.16.30.098
12952;176405;34.32;923;03.16.30.098
12948;176410;34.32;924;03.16.30.098
12924;176408;34.32;925;03.16.30.208
12924;176399;34.32;926;03.16.30.208
12924;176391;34.32;927;03.16.30.208
12932;176396;34.32;928;03.16.30.208
12944;176392;34.32;929;03.16.30.208
12952;176399;34.32;930;03.16.30.208
12932;176393;34.32;931;03.16.30.219
12936;176385;34.32;932;03.16.30.219
12924;176387;34.32;933;03.16.30.219
12936;176378;34.32;934;03.16.30.219
12960;176383;34.32;935;03.16.30.219
12920;176382;34.32;936;03.16.30.219
12944;176377;34.32;937;03.16.30.219
12932;176368;34.32;938;03.16.30.219
12952;176377;34.32;939;03.16.30.230
12940;176371;34.32;940;03.16.30.230
12932;176369;34.32;941;03.16.30.230
12924;176365;34.32;942;03.16.30.230
12932;176361;34.32;943;03.16.30.230
12948;176354;34.32;944;03.16.30.230
12908;176349;34.32;945;03.16.30.230
12940;176349;34.32;946;03.16.30.230
12960;176343;34.32;947;03.16.30.230
12936;176328;34.32;948;03.16.30.230
12936;176320;34.32;949;03.16.30.241
12936;176328;34.32;950;03.16.30.317
12948;176326;34.32;951;03.16.30.317
12944;176329;34.32;952;03.16.30.317
12924;176322;34.32;953;03.16.30.328
12940;176322;34.32;954;03.16.30.328
12928;176322;34.32;955;03.16.30.328
12940;176319;34.32;956;03.16.30.328
12952;176332;34.32;957;03.16.30.328
12920;176328;34.32;958;03.16.30.328
12944;176333;34.32;959;03.16.30.328
12940;176336;34.32;960;03.16.30.339
12924;176335;34.32;961;03.16.30.339
12960;176337;34.32;962;03.16.30.339
12944;176338;34.32;963;03.16.30.339
12964;176351;34.32;964;03.16.30.339
12912;176347;34.32;965;03.16.30.339
12936;176350;34.32;966;03.16.30.339
12924;176354;34.32;967;03.16.30.339
12944;176353;34.32;968;03.16.30.339
12912;176354;34.32;969;03.16.30.339
12944;176348;34.32;970;03.16.30.350
12948;176346;34.32;971;03.16.30.350
12936;176352;34.32;972;03.16.30.350
12916;176351;34.32;973;03.16.30.350
12932;176353;34.32;974;03.16.30.350
12944;176355;34.32;975;03.16.30.449
12916;176353;34.32;976;03.16.30.449
12928;176361;34.32;977;03.16.30.449
12936;176349;34.32;978;03.16.30.449
12944;176365;34.32;979;03.16.30.449
12944;176356;34.32;980;03.16.30.449
12932;176352;34.32;981;03.16.30.449
12940;176357;34.32;982;03.16.30.449
12960;176354;34.32;983;03.16.30.460
12952;176354;34.32;984;03.16.30.460
12916;176353;34.32;985;03.16.30.460
12952;176358;34.32;986;03.16.30.460
12968;176353;34.32;987;03.16.30.460
12960;176346;34.32;988;03.16.30.460
12964;176349;34.32;989;03.16.30.460
12928;176358;34.32;990;03.16.30.460
12924;176349;34.32;991;03.16.30.460
12908;176349;34.32;992;03.16.30.482
12924;176339;34.32;993;03.16.30.482
12952;176348;34.32;994;03.16.30.482
12920;176339;34.32;995;03.16.30.482
12892;176345;34.32;996;03.16.30.482
12920;176333;34.32;997;03.16.30.482
12936;176336;34.32;998;03.16.30.482
12952;176339;34.32;999;03.16.30.482
12936;176338;34.32;000;03.16.30.570
12936;176334;34.32;001;03.16.30.570
12944;176339;34.32;002;03.16.30.570
12952;176330;34.32;003;03.16.30.570
12932;176330;34.32;004;03.16.30.570
12908;176336;34.32;005;03.16.30.570
12932;176333;34.32;006;03.16.30.570
12944;176329;34.32;007;03.16.30.570
12932;176315;34.32;008;03.16.30.581
12940;176318;34.32;009;03.16.30.581
12936;176317;34.32;010;03.16.30.581
12932;176310;34.32;011;03.16.30.581
12960;176301;34.32;012;03.16.30.581
12944;176298;34.32;013;03.16.30.581
12912;176299;34.32;014;03.16.30.581
12924;176292;34.32;015;03.16.30.581
12952;176298;34.32;016;03.16.30.581
12916;176290;34.32;017;03.16.30.581
12932;176294;34.32;018;03.16.30.581
12916;176291;34.32;019;03.16.30.581
12944;176291;34.32;020;03.16.30.581
12932;176294;34.32;021;03.16.30.592
12932;176290;34.32;022;03.16.30.592
12960;176294;34.32;023;03.16.30.592
12940;176296;34.32;024;03.16.30.592
12908;176300;34.32;025;03.16.30.712
12944;176285;34.32;026;03.16.30.712
12936;176295;34.32;027;03.16.30.712
12916;176297;34.32;028;03.16.30.712
12924;176299;34.32;029;03.16.30.723
12920;176306;34.32;030;03.16.30.723
12936;176297;34.32;031;03.16.30.723
12940;176309;34.32;032;03.16.30.723
12932;176296;34.32;033;03.16.30.723
12928;176300;34.32;034;03.16.30.723
12936;176297;34.32;035;03.16.30.723
12956;176300;34.32;036;03.16.30.723
12920;176297;34.32;037;03.16.30.723
12912;176300;34.32;038;03.16.30.723
12944;176292;34.32;039;03.16.30.723
12924;176295;34.32;040;03.16.30.723
12908;176296;34.32;041;03.16.30.723
12944;176297;34.32;042;03.16.30.734
12928;176307;34.32;043;03.16.30.734
12936;176304;34.32;044;03.16.30.734
12924;176305;34.32;045;03.16.30.734
12964;176305;34.32;046;03.16.30.734
12928;176310;34.32;047;03.16.30.734
12944;176306;34.32;048;03.16.30.734
12960;176313;34.32;049;03.16.30.734
12944;176316;34.32;050;03.16.30.899
12944;176313;34.32;051;03.16.30.899
12960;176310;34.32;052;03.16.30.899
12924;176310;34.32;053;03.16.30.899
12960;176308;34.32;054;03.16.30.899
12928;176305;34.32;055;03.16.30.899
12912;176304;34.32;056;03.16.30.899
12952;176307;34.32;057;03.16.30.899
12960;176301;34.32;058;03.16.30.899
12920;176298;34.32;059;03.16.30.899
12920;176303;34.32;060;03.16.30.899
12948;176292;34.32;061;03.16.30.910
12924;176298;34.32;062;03.16.30.910
12964;176296;34.32;063;03.16.30.910
12952;176289;34.32;064;03.16.30.910
12944;176285;34.32;065;03.16.30.910
12936;176280;34.32;066;03.16.30.910
12920;176282;34.32;067;03.16.30.910
12972;176283;34.32;068;03.16.30.910
12964;176280;34.32;069;03.16.30.910
12960;176271;34.32;070;03.16.30.910
12924;176275;34.32;071;03.16.30.910
12956;176268;34.32;072;03.16.30.910
12916;176268;34.32;073;03.16.30.910
12964;176269;34.32;074;03.16.30.920
12908;176265;34.36;075;03.16.30.953
12944;176254;34.36;076;03.16.30.953
12928;176259;34.36;077;03.16.30.953
12916;176272;34.36;078;03.16.30.953
12936;176276;34.36;079;03.16.30.953
12928;176276;34.36;080;03.16.30.953
12952;176273;34.36;081;03.16.30.953
12964;176262;34.36;082;03.16.30.953
12944;176260;34.36;083;03.16.30.987
12960;176273;34.36;084;03.16.30.987
12964;176276;34.36;085;03.16.30.987
12952;176270;34.36;086;03.16.30.987
12924;176278;34.36;087;03.16.30.987
12936;176271;34.36;088;03.16.30.987
12960;176269;34.36;089;03.16.30.987
12948;176268;34.36;090;03.16.30.987
12948;176272;34.36;091;03.16.30.987
12952;176275;34.36;092;03.16.30.987
12928;176277;34.36;093;03.16.30.987
12936;176276;34.36;094;03.16.30.998
12936;176277;34.36;095;03.16.30.998
12928;176275;34.36;096;03.16.30.998
12944;176277;34.36;097;03.16.30.998
12940;176277;34.36;098;03.16.30.998
12944;176286;34.36;099;03.16.30.998
12920;176282;34.36;100;03.16.31.075
12928;176275;34.36;101;03.16.31.075
12920;176278;34.36;102;03.16.31.075
12932;176273;34.36;103;03.16.31.075
12924;176282;34.36;104;03.16.31.075
12908;176278;34.36;105;03.16.31.075
12952;176281;34.36;106;03.16.31.075
12936;176273;34.36;107;03.16.31.086
12948;176277;34.36;108;03.16.31.086
12940;176277;34.36;109;03.16.31.086
12940;176278;34.36;110;03.16.31.086
12956;176275;34.36;111;03.16.31.086
12944;176275;34.36;112;03.16.31.086
12936;176274;34.36;113;03.16.31.086
12936;176274;34.36;114;03.16.31.086
12940;176278;34.36;115;03.16.31.086
12952;176281;34.36;116;03.16.31.097
12924;176282;34.36;117;03.16.31.097
12968;176287;34.36;118;03.16.31.097
12956;176287;34.36;119;03.16.31.097
12936;176289;34.36;120;03.16.31.097
12904;176282;34.36;121;03.16.31.097
12924;176289;34.36;122;03.16.31.097
12948;176288;34.36;123;03.16.31.097
12960;176293;34.36;124;03.16.31.097
12932;176286;34.32;125;03.16.31.207
12924;176284;34.32;126;03.16.31.207
12924;176280;34.32;127;03.16.31.207
12924;176274;34.32;128;03.16.31.207
12936;176291;34.32;129;03.16.31.218
12924;176282;34.32;130;03.16.31.218
12928;176277;34.32;131;03.16.31.218
12908;176278;34.32;132;03.16.31.218
12940;176287;34.32;133;03.16.31.218
12952;176283;34.32;134;03.16.31.218
12944;176276;34.32;135;03.16.31.218
12940;176277;34.32;136;03.16.31.218
12940;176276;34.32;137;03.16.31.218
12956;176271;34.32;138;03.16.31.218
12948;176283;34.32;139;03.16.31.218
12948;176281;34.32;140;03.16.31.218
12904;176285;34.32;141;03.16.31.218
12936;176285;34.32;142;03.16.31.251
12920;176288;34.32;143;03.16.31.251
12952;176292;34.32;144;03.16.31.251
12932;176293;34.32;145;03.16.31.251
12932;176296;34.32;146;03.16.31.262
12940;176297;34.32;147;03.16.31.262
12936;176306;34.32;148;03.16.31.262
12964;176307;34.32;149;03.16.31.262
12952;176304;34.32;150;03.16.31.350
12960;176308;34.32;151;03.16.31.350
12920;176313;34.32;152;03.16.31.350
12932;176309;34.32;153;03.16.31.350
12940;176321;34.32;154;03.16.31.350
12944;176314;34.32;155;03.16.31.350
12944;176325;34.32;156;03.16.31.350
12932;176316;34.32;157;03.16.31.350
12956;176316;34.32;158;03.16.31.350
12956;176307;34.32;159;03.16.31.350
12952;176326;34.32;160;03.16.31.350
12940;176322;34.32;161;03.16.31.350
12928;176319;34.32;162;03.16.31.350
12940;176322;34.32;163;03.16.31.361
12936;176315;34.32;164;03.16.31.361
12908;176321;34.32;165;03.16.31.361
12924;176320;34.32;166;03.16.31.361
12948;176317;34.32;167;03.16.31.372
12956;176317;34.32;168;03.16.31.372
12936;176311;34.32;169;03.16.31.372
12944;176309;34.32;170;03.16.31.372
12924;176308;34.32;171;03.16.31.372
12956;176302;34.32;172;03.16.31.372
12960;176308;34.32;173;03.16.31.372
12956;176301;34.32;174;03.16.31.372
12948;176308;34.32;175;03.16.31.449
12928;176296;34.32;176;03.16.31.449
12928;176288;34.32;177;03.16.31.449
12908;176291;34.32;178;03.16.31.449
12944;176302;34.32;179;03.16.31.449
12944;176300;34.32;180;03.16.31.449
12936;176292;34.32;181;03.16.31.449
12932;176291;34.32;182;03.16.31.449
12940;176292;34.32;183;03.16.31.460
12924;176290;34.32;184;03.16.31.460
12928;176288;34.32;185;03.16.31.460
12968;176288;34.32;186;03.16.31.460
12948;176285;34.32;187;03.16.31.460
12964;176289;34.32;188;03.16.31.460
12944;176288;34.32;189;03.16.31.460
12936;176284;34.32;190;03.16.31.460
12936;176284;34.32;191;03.16.31.460
12916;176283;34.32;192;03.16.31.482
12908;176280;34.32;193;03.16.31.482
12936;176282;34.32;194;03.16.31.482
12944;176291;34.32;195;03.16.31.482
12924;176283;34.32;196;03.16.31.482
12940;176281;34.32;197;03.16.31.482
12968;176271;34.32;198;03.16.31.482
12940;176275;34.32;199;03.16.31.482
12900;176276;34.32;200;03.16.31.569
12952;176264;34.32;201;03.16.31.569
12916;176279;34.32;202;03.16.31.569
12932;176278;34.32;203;03.16.31.569
12904;176278;34.32;204;03.16.31.569
12932;176280;34.32;205;03.16.31.569
12908;176274;34.32;206;03.16.31.580
12928;176275;34.32;207;03.16.31.580
12956;176285;34.32;208;03.16.31.580
12944;176292;34.32;209;03.16.31.580
12944;176291;34.32;210;03.16.31.580
12924;176296;34.32;211;03.16.31.580
12916;176293;34.32;212;03.16.31.580
12948;176297;34.32;213;03.16.31.580
12904;176309;34.32;214;03.16.31.580
12928;176302;34.32;215;03.16.31.580
12924;176299;34.32;216;03.16.31.580
12960;176305;34.32;217;03.16.31.580
12936;176303;34.32;218;03.16.31.580
12960;176314;34.32;219;03.16.31.591
12948;176304;34.32;220;03.16.31.591
12908;176312;34.32;221;03.16.31.591
12944;176317;34.32;222;03.16.31.591
12928;176313;34.32;223;03.16.31.591
12964;176306;34.32;224;03.16.31.591
12924;176312;34.36;225;03.16.31.701
12960;176311;34.36;226;03.16.31.701
12952;176317;34.36;227;03.16.31.712
12944;176301;34.36;228;03.16.31.712
12948;176306;34.36;229;03.16.31.712
12928;176305;34.36;230;03.16.31.712
12928;176298;34.36;231;03.16.31.712
12932;176304;34.36;232;03.16.31.712
12940;176296;34.36;233;03.16.31.712
12964;176289;34.36;234;03.16.31.712
12924;176290;34.36;235;03.16.31.712
12916;176283;34.36;236;03.16.31.712
12948;176288;34.36;237;03.16.31.712
12944;176278;34.36;238;03.16.31.712
12960;176287;34.36;239;03.16.31.712
12968;176275;34.36;240;03.16.31.723
12932;176276;34.36;241;03.16.31.723
12956;176271;34.36;242;03.16.31.723
12932;176269;34.36;243;03.16.31.723
12940;176263;34.36;244;03.16.31.723
12920;176257;34.36;245;03.16.31.723
12920;176260;34.36;246;03.16.31.723
12940;176256;34.36;247;03.16.31.723
12960;176246;34.36;248;03.16.31.723
12936;176250;34.36;249;03.16.31.723
12944;176248;34.36;250;03.16.31.843
12952;176244;34.36;251;03.16.31.843
12968;176238;34.36;252;03.16.31.843
12920;176245;34.36;253;03.16.31.843
12920;176248;34.36;254;03.16.31.843
12940;176238;34.36;255;03.16.31.843
12916;176242;34.36;256;03.16.31.843
12944;176248;34.36;257;03.16.31.843
12920;176252;34.36;258;03.16.31.843
12956;176250;34.36;259;03.16.31.843
12964;176243;34.36;260;03.16.31.854
12960;176242;34.36;261;03.16.31.854
12928;176254;34.36;262;03.16.31.854
12948;176252;34.36;263;03.16.31.854
12936;176256;34.36;264;03.16.31.854
12936;176255;34.36;265;03.16.31.854
12960;176267;34.36;266;03.16.31.854
12920;176279;34.36;267;03.16.31.865
12924;176275;34.36;268;03.16.31.865
12928;176283;34.36;269;03.16.31.865
12928;176285;34.36;270;03.16.31.865
12928;176289;34.36;271;03.16.31.865
12940;176288;34.36;272;03.16.31.865
12944;176293;34.36;273;03.16.31.865
12956;176290;34.36;274;03.16.31.865
12944;176293;34.36;275;03.16.31.985
12936;176283;34.36;276;03.16.31.985
12932;176288;34.36;277;03.16.31.985
12932;176287;34.36;278;03.16.31.985
12940;176288;34.36;279;03.16.31.985
12976;176288;34.36;280;03.16.31.985
12944;176290;34.36;281;03.16.31.985
12936;176293;34.36;282;03.16.31.996
12932;176281;34.36;283;03.16.31.996
12936;176281;34.36;284;03.16.31.996
12936;176281;34.36;285;03.16.31.996
12924;176273;34.36;286;03.16.31.996
12940;176277;34.36;287;03.16.31.996
12964;176278;34.36;288;03.16.31.996
12944;176276;34.36;289;03.16.31.996
12908;176269;34.36;290;03.16.31.996
12944;176281;34.36;291;03.16.31.996
12960;176278;34.36;292;03.16.31.996
12952;176269;34.36;293;03.16.31.996
12908;176274;34.36;294;03.16.31.996
12928;176268;34.36;295;03.16.32.007
12940;176260;34.36;296;03.16.32.007
12936;176249;34.36;297;03.16.32.007
12932;176243;34.36;298;03.16.32.007
12932;176241;34.36;299;03.16.32.007
12916;176243;34.36;300;03.16.32.073
12924;176234;34.36;301;03.16.32.073
12924;176221;34.36;302;03.16.32.073
12932;176210;34.36;303;03.16.32.084
12932;176202;34.36;304;03.16.32.084
12924;176203;34.36;305;03.16.32.084
12952;176198;34.36;306;03.16.32.084
12976;176191;34.36;307;03.16.32.084
12944;176191;34.36;308;03.16.32.084
12944;176191;34.36;309;03.16.32.084
12928;176193;34.36;310;03.16.32.084
12936;176184;34.36;311;03.16.32.084
12924;176191;34.36;312;03.16.32.095
12924;176194;34.36;313;03.16.32.095
12932;176189;34.36;314;03.16.32.095
12928;176184;34.36;315;03.16.32.095
12960;176187;34.36;316;03.16.32.095
12924;176204;34.36;317;03.16.32.106
12948;176196;34.36;318;03.16.32.106
12952;176206;34.36;319;03.16.32.106
12944;176205;34.36;320;03.16.32.106
12936;176199;34.36;321;03.16.32.117
12936;176204;34.36;322;03.16.32.117
12940;176213;34.36;323;03.16.32.117
12924;176206;34.36;324;03.16.32.117
12952;176218;34.36;325;03.16.32.205
12944;176214;34.36;326;03.16.32.205
12948;176213;34.36;327;03.16.32.205
12936;176214;34.36;328;03.16.32.205
12924;176209;34.36;329;03.16.32.205
12960;176207;34.36;330;03.16.32.205
12940;176214;34.36;331;03.16.32.205
12936;176214;34.36;332;03.16.32.205
12936;176207;34.36;333;03.16.32.205
12944;176214;34.36;334;03.16.32.205
12928;176212;34.36;335;03.16.32.205
12912;176210;34.36;336;03.16.32.205
12936;176202;34.36;337;03.16.32.216
12944;176199;34.36;338;03.16.32.216
12920;176203;34.36;339;03.16.32.216
12908;176192;34.36;340;03.16.32.216
12932;176189;34.36;341;03.16.32.216
12960;176185;34.36;342;03.16.32.216
12936;176187;34.36;343;03.16.32.216
12940;176182;34.36;344;03.16.32.216
12924;176184;34.36;345;03.16.32.216
12948;176174;34.36;346;03.16.32.216
12920;176177;34.36;347;03.16.32.216
12920;176180;34.36;348;03.16.32.216
12936;176172;34.36;349;03.16.32.216
12924;176167;34.36;350;03.16.32.330
12936;176169;34.36;351;03.16.32.330
12948;176173;34.36;352;03.16.32.341
12928;176168;34.36;353;03.16.32.341
12948;176168;34.36;354;03.16.32.341
12920;176159;34.36;355;03.16.32.341
12908;176166;34.36;356;03.16.32.341
12960;176170;34.36;357;03.16.32.341
12916;176171;34.36;358;03.16.32.341
12928;176168;34.36;359;03.16.32.341
12944;176158;34.36;360;03.16.32.341
12960;176157;34.36;361;03.16.32.341
12928;176168;34.36;362;03.16.32.341
12968;176160;34.36;363;03.16.32.341
12940;176161;34.36;364;03.16.32.341
12948;176159;34.36;365;03.16.32.352
12916;176156;34.36;366;03.16.32.352
12936;176148;34.36;367;03.16.32.385
12944;176154;34.36;368;03.16.32.385
12944;176155;34.36;369;03.16.32.385
12940;176155;34.36;370;03.16.32.385
12952;176157;34.36;371;03.16.32.385
12952;176155;34.36;372;03.16.32.385
12932;176151;34.36;373;03.16.32.385
12952;176148;34.36;374;03.16.32.385
12944;176147;34.32;375;03.16.32.451
12944;176142;34.32;376;03.16.32.451
12920;176148;34.32;377;03.16.32.451
12936;176151;34.32;378;03.16.32.451
12932;176150;34.32;379;03.16.32.451
12936;176144;34.32;380;03.16.32.451
12932;176144;34.32;381;03.16.32.451
12928;176141;34.32;382;03.16.32.451
12916;176140;34.32;383;03.16.32.462
12952;176147;34.32;384;03.16.32.462
12936;176142;34.32;385;03.16.32.462
12952;176145;34.32;386;03.16.32.462
12928;176135;34.32;387;03.16.32.462
12924;176144;34.32;388;03.16.32.462
12944;176141;34.32;389;03.16.32.462
12940;176140;34.32;390;03.16.32.462
12920;176133;34.32;391;03.16.32.462
12924;176143;34.32;392;03.16.32.473
12936;176140;34.32;393;03.16.32.473
12960;176139;34.32;394;03.16.32.473
12920;176132;34.32;395;03.16.32.473
12936;176147;34.32;396;03.16.32.473
12916;176140;34.32;397;03.16.32.473
12952;176141;34.32;398;03.16.32.473
12964;176140;34.32;399;03.16.32.473
12924;176142;34.32;400;03.16.32.570
12924;176142;34.32;401;03.16.32.570
12960;176146;34.32;402;03.16.32.570
12944;176144;34.32;403;03.16.32.570
12892;176140;34.32;404;03.16.32.570
12904;176138;34.32;405;03.16.32.570
12920;176143;34.32;406;03.16.32.581
12960;176152;34.32;407;03.16.32.581
12944;176157;34.32;408;03.16.32.581
12932;176154;34.32;409;03.16.32.581
12900;176154;34.32;410;03.16.32.581
12932;176161;34.32;411;03.16.32.581
12940;176161;34.32;412;03.16.32.581
12924;176172;34.32;413;03.16.32.581
12968;176181;34.32;414;03.16.32.581
12960;176186;34.32;415;03.16.32.581
12908;176187;34.32;416;03.16.32.581
12932;176188;34.32;417;03.16.32.581
12944;176186;34.32;418;03.16.32.581
12960;176201;34.32;419;03.16.32.592
12944;176199;34.32;420;03.16.32.592
12908;176203;34.32;421;03.16.32.592
12928;176196;34.32;422;03.16.32.592
12948;176202;34.32;423;03.16.32.592
12940;176190;34.32;424;03.16.32.592
12924;176202;34.36;425;03.16.32.691
12944;176207;34.36;426;03.16.32.691
12948;176210;34.36;427;03.16.32.702
12944;176210;34.36;428;03.16.32.702
12928;176209;34.36;429;03.16.32.702
12932;176212;34.36;430;03.16.32.702
12916;176216;34.36;431;03.16.32.702
12940;176214;34.36;432;03.16.32.702
12948;176224;34.36;433;03.16.32.702
12952;176224;34.36;434;03.16.32.702
12932;176221;34.36;435;03.16.32.702
12924;176221;34.36;436;03.16.32.702
12900;176222;34.36;437;03.16.32.702
12928;176223;34.36;438;03.16.32.702
12924;176211;34.36;439;03.16.32.702
12940;176215;34.36;440;03.16.32.713
12932;176212;34.36;441;03.16.32.713
12960;176200;34.36;442;03.16.32.713
12936;176190;34.36;443;03.16.32.713
12928;176192;34.36;444;03.16.32.713
12924;176189;34.36;445;03.16.32.713
12932;176188;34.36;446;03.16.32.713
12960;176184;34.36;447;03.16.32.713
12924;176182;34.36;448;03.16.32.713
12940;176183;34.36;449;03.16.32.713
12936;176178;34.36;450;03.16.32.834
12944;176183;34.36;451;03.16.32.834
12924;176176;34.36;452;03.16.32.834
12936;176181;34.36;453;03.16.32.834
12944;176182;34.36;454;03.16.32.834
12932;176182;34.36;455;03.16.32.834
12948;176185;34.36;456;03.16.32.834
12936;176190;34.36;457;03.16.32.834
12936;176187;34.36;458;03.16.32.834
12924;176187;34.36;459;03.16.32.834
12936;176191;34.36;460;03.16.32.834
12924;176196;34.36;461;03.16.32.834
12948;176204;34.36;462;03.16.32.845
12928;176200;34.36;463;03.16.32.845
12948;176208;34.36;464;03.16.32.845
12936;176222;34.36;465;03.16.32.845
12944;176220;34.36;466;03.16.32.845
12944;176221;34.36;467;03.16.32.845
12944;176224;34.36;468;03.16.32.845
12936;176221;34.36;469;03.16.32.845
12940;176217;34.36;470;03.16.32.845
12924;176227;34.36;471;03.16.32.845
12944;176217;34.36;472;03.16.32.845
12956;176223;34.36;473;03.16.32.845
12940;176218;34.36;474;03.16.32.856
12932;176222;34.36;475;03.16.32.976
12944;176217;34.36;476;03.16.32.976
12928;176224;34.36;477;03.16.32.976
12948;176214;34.36;478;03.16.32.976
12968;176210;34.36;479;03.16.32.976
12912;176210;34.36;480;03.16.32.976
12940;176200;34.36;481;03.16.32.976
12920;176199;34.36;482;03.16.32.977
12972;176199;34.36;483;03.16.32.988
12928;176193;34.36;484;03.16.32.988
12944;176180;34.36;485;03.16.32.988
12928;176192;34.36;486;03.16.32.988
12968;176186;34.36;487;03.16.32.988
12960;176183;34.36;488;03.16.32.988
12960;176190;34.36;489;03.16.32.988
12936;176197;34.36;490;03.16.32.988
12928;176198;34.36;491;03.16.32.988
12928;176198;34.36;492;03.16.32.988
12932;176209;34.36;493;03.16.32.988
12932;176196;34.36;494;03.16.32.988
12944;176190;34.36;495;03.16.32.988
12960;176194;34.36;496;03.16.32.999
12912;176190;34.36;497;03.16.32.999
12932;176196;34.36;498;03.16.32.999
12952;176196;34.36;499;03.16.32.999
12932;176188;34.36;500;03.16.33.076
12912;176187;34.36;501;03.16.33.076
12932;176186;34.36;502;03.16.33.076
12928;176186;34.36;503;03.16.33.076
12936;176165;34.36;504;03.16.33.076
12936;176178;34.36;505;03.16.33.087
12924;176168;34.36;506;03.16.33.087
12940;176170;34.36;507;03.16.33.087
12920;176169;34.36;508;03.16.33.098
12924;176170;34.36;509;03.16.33.098
12928;176168;34.36;510;03.16.33.098
12936;176177;34.36;511;03.16.33.098
12908;176178;34.36;512;03.16.33.098
12948;176178;34.36;513;03.16.33.109
12936;176180;34.36;514;03.16.33.109
12964;176184;34.36;515;03.16.33.109
12924;176189;34.36;516;03.16.33.109
12932;176189;34.36;517;03.16.33.109
12948;176193;34.36;518;03.16.33.109
12932;176187;34.36;519;03.16.33.109
12944;176193;34.36;520;03.16.33.109
12936;176180;34.36;521;03.16.33.109
12924;176184;34.36;522;03.16.33.109
12936;176190;34.36;523;03.16.33.109
12968;176185;34.36;524;03.16.33.109
12924;176182;34.36;525;03.16.33.208
12952;176189;34.36;526;03.16.33.219
12932;176187;34.36;527;03.16.33.219
12920;176184;34.36;528;03.16.33.219
12920;176187;34.36;529;03.16.33.219
12936;176184;34.36;530;03.16.33.219
12924;176189;34.36;531;03.16.33.219
12912;176188;34.36;532;03.16.33.219
12908;176186;34.36;533;03.16.33.230
12944;176190;34.36;534;03.16.33.230
12928;176178;34.36;535;03.16.33.241
12940;176185;34.36;536;03.16.33.241
12904;176182;34.36;537;03.16.33.241
12940;176175;34.36;538;03.16.33.241
12956;176173;34.36;539;03.16.33.241
12952;176169;34.36;540;03.16.33.241
12956;176170;34.36;541;03.16.33.241
12952;176162;34.36;542;03.16.33.241
12932;176159;34.36;543;03.16.33.241
12936;176156;34.36;544;03.16.33.241
12956;176157;34.36;545;03.16.33.241
12916;176151;34.36;546;03.16.33.241
12936;176143;34.36;547;03.16.33.241
12960;176138;34.36;548;03.16.33.251
12928;176146;34.36;549;03.16.33.251
12936;176129;34.36;550;03.16.33.328
12952;176128;34.36;551;03.16.33.328
12960;176121;34.36;552;03.16.33.328
12916;176131;34.36;553;03.16.33.328
12960;176118;34.36;554;03.16.33.328
12948;176116;34.36;555;03.16.33.328
12928;176110;34.36;556;03.16.33.328
12960;176108;34.36;557;03.16.33.328
12944;176098;34.36;558;03.16.33.328
12932;176100;34.36;559;03.16.33.328
12952;176094;34.36;560;03.16.33.328
12924;176101;34.36;561;03.16.33.339
12952;176105;34.36;562;03.16.33.339
12960;176097;34.36;563;03.16.33.339
12892;176097;34.36;564;03.16.33.339
12924;176093;34.36;565;03.16.33.339
12916;176101;34.36;566;03.16.33.339
12940;176098;34.36;567;03.16.33.372
12940;176104;34.36;568;03.16.33.372
12936;176101;34.36;569;03.16.33.372
12924;176109;34.36;570;03.16.33.372
12948;176096;34.36;571;03.16.33.372
12932;176106;34.36;572;03.16.33.372
12928;176093;34.36;573;03.16.33.372
12944;176103;34.36;574;03.16.33.372
12908;176097;34.36;575;03.16.33.460
12944;176106;34.36;576;03.16.33.460
12912;176095;34.36;577;03.16.33.460
12908;176101;34.36;578;03.16.33.460
12956;176086;34.36;579;03.16.33.460
12908;176100;34.36;580;03.16.33.460
12932;176102;34.36;581;03.16.33.460
12928;176094;34.36;582;03.16.33.471
12940;176092;34.36;583;03.16.33.471
12932;176081;34.36;584;03.16.33.471
12944;176074;34.36;585;03.16.33.471
12952;176070;34.36;586;03.16.33.471
12948;176070;34.36;587;03.16.33.471
12940;176063;34.36;588;03.16.33.471
12920;176060;34.36;589;03.16.33.471
12908;176057;34.36;590;03.16.33.471
12944;176053;34.36;591;03.16.33.471
12960;176034;34.36;592;03.16.33.471
12944;176039;34.36;593;03.16.33.471
12964;176034;34.36;594;03.16.33.482
12936;176027;34.36;595;03.16.33.482
12956;176021;34.36;596;03.16.33.482
12944;176005;34.36;597;03.16.33.482
12964;176001;34.36;598;03.16.33.482
