gsr; bvp; skt; skt2; Cont; time
12924;001699;34.80;550;03.47.32.954
12880;057552;34.80;551;03.47.32.954
12928;073952;34.80;552;03.47.32.954
12904;090337;34.80;553;03.47.32.954
12912;106692;34.80;554;03.47.32.954
12904;123102;34.80;555;03.47.32.954
12912;139462;34.80;556;03.47.32.954
12896;155876;34.80;557;03.47.32.954
12892;171141;34.80;558;03.47.32.976
12932;170865;34.80;559;03.47.32.976
12916;170856;34.80;560;03.47.32.976
12916;170844;34.80;561;03.47.32.976
12888;170849;34.80;562;03.47.32.976
12912;170840;34.80;563;03.47.32.976
12892;170841;34.80;564;03.47.32.976
12892;170838;34.80;565;03.47.32.976
12904;170827;34.80;566;03.47.32.976
12912;170835;34.80;567;03.47.32.986
12912;170833;34.80;568;03.47.32.986
12916;170830;34.80;569;03.47.32.986
12912;170825;34.80;570;03.47.32.986
12904;170833;34.80;571;03.47.32.986
12912;170826;34.80;572;03.47.32.986
12896;170832;34.80;573;03.47.32.986
12888;170830;34.80;574;03.47.32.986
12908;170830;34.80;575;03.47.33.074
12892;170824;34.80;576;03.47.33.074
12884;170825;34.80;577;03.47.33.074
12912;170828;34.80;578;03.47.33.085
12876;170826;34.80;579;03.47.33.085
12920;170830;34.80;580;03.47.33.085
12900;170826;34.80;581;03.47.33.085
12936;170832;34.80;582;03.47.33.085
12912;170826;34.80;583;03.47.33.085
12896;170827;34.80;584;03.47.33.085
12952;170826;34.80;585;03.47.33.085
12900;170830;34.80;586;03.47.33.085
12896;170819;34.80;587;03.47.33.085
12868;170816;34.80;588;03.47.33.085
12896;170817;34.80;589;03.47.33.085
12912;170816;34.80;590;03.47.33.085
12908;170810;34.80;591;03.47.33.096
12944;170805;34.80;592;03.47.33.096
12920;170811;34.80;593;03.47.33.096
12920;170806;34.80;594;03.47.33.096
12896;170794;34.80;595;03.47.33.096
12904;170796;34.80;596;03.47.33.096
12900;170789;34.80;597;03.47.33.096
12916;170781;34.80;598;03.47.33.096
12916;170772;34.80;599;03.47.33.096
12884;170776;34.80;600;03.47.33.205
12928;170765;34.80;601;03.47.33.205
12904;170763;34.80;602;03.47.33.205
12904;170759;34.80;603;03.47.33.205
12880;170753;34.80;604;03.47.33.205
12884;170735;34.80;605;03.47.33.205
12896;170726;34.80;606;03.47.33.205
12900;170729;34.80;607;03.47.33.205
12896;170730;34.80;608;03.47.33.205
12884;170713;34.80;609;03.47.33.205
12904;170708;34.80;610;03.47.33.205
12880;170700;34.80;611;03.47.33.205
12892;170693;34.80;612;03.47.33.216
12912;170699;34.80;613;03.47.33.216
12896;170698;34.80;614;03.47.33.216
12896;170686;34.80;615;03.47.33.216
12876;170683;34.80;616;03.47.33.216
12928;170686;34.80;617;03.47.33.216
12892;170679;34.80;618;03.47.33.216
12940;170679;34.80;619;03.47.33.216
12884;170676;34.80;620;03.47.33.216
12892;170667;34.80;621;03.47.33.216
12900;170670;34.80;622;03.47.33.216
12872;170680;34.80;623;03.47.33.216
12912;170673;34.80;624;03.47.33.216
12904;170676;34.80;625;03.47.33.336
12944;170673;34.80;626;03.47.33.336
12888;170663;34.80;627;03.47.33.336
12888;170663;34.80;628;03.47.33.336
12908;170668;34.80;629;03.47.33.336
12888;170660;34.80;630;03.47.33.336
12896;170660;34.80;631;03.47.33.336
12884;170656;34.80;632;03.47.33.336
12904;170653;34.80;633;03.47.33.347
12888;170649;34.80;634;03.47.33.347
12884;170651;34.80;635;03.47.33.347
12884;170644;34.80;636;03.47.33.347
12912;170645;34.80;637;03.47.33.347
12916;170638;34.80;638;03.47.33.347
12900;170642;34.80;639;03.47.33.347
12928;170634;34.80;640;03.47.33.347
12888;170640;34.80;641;03.47.33.347
12892;170637;34.80;642;03.47.33.358
12876;170644;34.80;643;03.47.33.358
12912;170640;34.80;644;03.47.33.358
12876;170651;34.80;645;03.47.33.358
12888;170639;34.80;646;03.47.33.358
12900;170639;34.80;647;03.47.33.358
12892;170655;34.80;648;03.47.33.358
12904;170646;34.80;649;03.47.33.358
12860;170646;34.80;650;03.47.33.446
12900;170642;34.80;651;03.47.33.446
12904;170642;34.80;652;03.47.33.446
12928;170645;34.80;653;03.47.33.446
12944;170636;34.80;654;03.47.33.446
12896;170640;34.80;655;03.47.33.457
12908;170645;34.80;656;03.47.33.457
12888;170646;34.80;657;03.47.33.457
12904;170635;34.80;658;03.47.33.457
12912;170637;34.80;659;03.47.33.457
12916;170640;34.80;660;03.47.33.457
12920;170635;34.80;661;03.47.33.457
12916;170634;34.80;662;03.47.33.457
12908;170635;34.80;663;03.47.33.457
12892;170634;34.80;664;03.47.33.468
12896;170629;34.80;665;03.47.33.468
12916;170629;34.80;666;03.47.33.468
12896;170636;34.80;667;03.47.33.468
12920;170635;34.80;668;03.47.33.468
12904;170648;34.80;669;03.47.33.468
12892;170643;34.80;670;03.47.33.468
12900;170647;34.80;671;03.47.33.468
12904;170641;34.80;672;03.47.33.479
12936;170643;34.80;673;03.47.33.479
12912;170629;34.80;674;03.47.33.479
12888;170635;34.80;675;03.47.33.567
12924;170639;34.80;676;03.47.33.578
12888;170642;34.80;677;03.47.33.578
12884;170639;34.80;678;03.47.33.578
12876;170630;34.80;679;03.47.33.578
12900;170637;34.80;680;03.47.33.578
12908;170631;34.80;681;03.47.33.578
12892;170632;34.80;682;03.47.33.578
12904;170634;34.80;683;03.47.33.578
12884;170626;34.80;684;03.47.33.578
12920;170632;34.80;685;03.47.33.578
12912;170634;34.80;686;03.47.33.578
12920;170632;34.80;687;03.47.33.578
12888;170630;34.80;688;03.47.33.578
12884;170631;34.80;689;03.47.33.589
12908;170623;34.80;690;03.47.33.589
12904;170622;34.80;691;03.47.33.589
12916;170635;34.80;692;03.47.33.589
12920;170631;34.80;693;03.47.33.589
12900;170636;34.80;694;03.47.33.589
12884;170631;34.80;695;03.47.33.589
12904;170633;34.80;696;03.47.33.589
12904;170634;34.80;697;03.47.33.589
12928;170632;34.80;698;03.47.33.589
12916;170634;34.80;699;03.47.33.589
12888;170638;34.84;700;03.47.33.692
12888;170633;34.84;701;03.47.33.692
12920;170629;34.84;702;03.47.33.693
12904;170631;34.84;703;03.47.33.693
12884;170641;34.84;704;03.47.33.704
12884;170637;34.84;705;03.47.33.704
12884;170629;34.84;706;03.47.33.704
12928;170637;34.84;707;03.47.33.704
12892;170640;34.84;708;03.47.33.704
12908;170632;34.84;709;03.47.33.704
12908;170633;34.84;710;03.47.33.704
12928;170631;34.84;711;03.47.33.704
12888;170629;34.84;712;03.47.33.704
12916;170629;34.84;713;03.47.33.704
12900;170627;34.84;714;03.47.33.704
12880;170637;34.84;715;03.47.33.704
12916;170629;34.84;716;03.47.33.704
12908;170627;34.84;717;03.47.33.704
12884;170614;34.84;718;03.47.33.715
12868;170615;34.84;719;03.47.33.715
12900;170623;34.84;720;03.47.33.715
12904;170631;34.84;721;03.47.33.715
12888;170620;34.84;722;03.47.33.715
12872;170623;34.84;723;03.47.33.715
12912;170630;34.84;724;03.47.33.715
12892;170625;34.84;725;03.47.33.836
12928;170620;34.84;726;03.47.33.836
12892;170626;34.84;727;03.47.33.836
12884;170621;34.84;728;03.47.33.836
12884;170626;34.84;729;03.47.33.836
12900;170623;34.84;730;03.47.33.836
12912;170624;34.84;731;03.47.33.836
12888;170628;34.84;732;03.47.33.836
12880;170624;34.84;733;03.47.33.836
12912;170629;34.84;734;03.47.33.836
12900;170619;34.84;735;03.47.33.836
12916;170624;34.84;736;03.47.33.836
12912;170625;34.84;737;03.47.33.836
12928;170622;34.84;738;03.47.33.846
12908;170625;34.84;739;03.47.33.846
12904;170621;34.84;740;03.47.33.846
12884;170631;34.84;741;03.47.33.846
12900;170628;34.84;742;03.47.33.846
12884;170626;34.84;743;03.47.33.846
12888;170621;34.84;744;03.47.33.846
12904;170629;34.84;745;03.47.33.846
12900;170623;34.84;746;03.47.33.846
12896;170629;34.84;747;03.47.33.846
12920;170632;34.84;748;03.47.33.846
12928;170622;34.84;749;03.47.33.846
12904;170629;34.80;750;03.47.33.967
12912;170623;34.80;751;03.47.33.967
12908;170624;34.80;752;03.47.33.967
12888;170629;34.80;753;03.47.33.967
12888;170625;34.80;754;03.47.33.967
12896;170622;34.80;755;03.47.33.967
12904;170621;34.80;756;03.47.33.967
12884;170618;34.80;757;03.47.33.967
12928;170623;34.80;758;03.47.33.978
12896;170618;34.80;759;03.47.33.978
12884;170622;34.80;760;03.47.33.978
12912;170625;34.80;761;03.47.33.978
12904;170626;34.80;762;03.47.33.978
12900;170623;34.80;763;03.47.33.978
12896;170614;34.80;764;03.47.33.978
12908;170618;34.80;765;03.47.33.978
12880;170617;34.80;766;03.47.33.978
12896;170613;34.80;767;03.47.33.978
12884;170608;34.80;768;03.47.33.978
12896;170603;34.80;769;03.47.33.978
12912;170600;34.80;770;03.47.33.978
12908;170598;34.80;771;03.47.33.989
12912;170593;34.80;772;03.47.33.989
12912;170598;34.80;773;03.47.33.989
12912;170595;34.80;774;03.47.33.989
12896;170585;34.80;775;03.47.34.076
12908;170585;34.80;776;03.47.34.076
12896;170577;34.80;777;03.47.34.076
12912;170570;34.80;778;03.47.34.076
12912;170563;34.80;779;03.47.34.076
12888;170570;34.80;780;03.47.34.087
12912;170558;34.80;781;03.47.34.087
12884;170562;34.80;782;03.47.34.087
12912;170562;34.80;783;03.47.34.087
12892;170551;34.80;784;03.47.34.087
12880;170550;34.80;785;03.47.34.087
12932;170550;34.80;786;03.47.34.087
12884;170549;34.80;787;03.47.34.098
12912;170543;34.80;788;03.47.34.098
12900;170541;34.80;789;03.47.34.098
12904;170537;34.80;790;03.47.34.098
12900;170535;34.80;791;03.47.34.098
12884;170533;34.80;792;03.47.34.098
12876;170530;34.80;793;03.47.34.098
12888;170531;34.80;794;03.47.34.098
12884;170529;34.80;795;03.47.34.098
12888;170524;34.80;796;03.47.34.098
12920;170528;34.80;797;03.47.34.098
12892;170525;34.80;798;03.47.34.098
12908;170523;34.80;799;03.47.34.098
12896;170521;34.80;800;03.47.34.197
12908;170515;34.80;801;03.47.34.208
12920;170516;34.80;802;03.47.34.208
12888;170511;34.80;803;03.47.34.208
12928;170512;34.80;804;03.47.34.208
12916;170516;34.80;805;03.47.34.208
12892;170512;34.80;806;03.47.34.208
12896;170503;34.80;807;03.47.34.208
12880;170501;34.80;808;03.47.34.208
12912;170496;34.80;809;03.47.34.208
12928;170502;34.80;810;03.47.34.208
12892;170497;34.80;811;03.47.34.208
12928;170489;34.80;812;03.47.34.208
12904;170487;34.80;813;03.47.34.208
12920;170487;34.80;814;03.47.34.219
12928;170478;34.80;815;03.47.34.219
12888;170482;34.80;816;03.47.34.219
12888;170480;34.80;817;03.47.34.219
12904;170481;34.80;818;03.47.34.219
12888;170481;34.80;819;03.47.34.219
12908;170475;34.80;820;03.47.34.219
12900;170471;34.80;821;03.47.34.219
12916;170473;34.80;822;03.47.34.219
12928;170471;34.80;823;03.47.34.219
12912;170468;34.80;824;03.47.34.219
12884;170466;34.80;825;03.47.34.328
12928;170463;34.80;826;03.47.34.328
12896;170473;34.80;827;03.47.34.328
12888;170470;34.80;828;03.47.34.328
12888;170467;34.80;829;03.47.34.328
12912;170477;34.80;830;03.47.34.328
12900;170473;34.80;831;03.47.34.328
12868;170477;34.80;832;03.47.34.328
12920;170482;34.80;833;03.47.34.339
12928;170484;34.80;834;03.47.34.339
12900;170490;34.80;835;03.47.34.339
12888;170490;34.80;836;03.47.34.339
12884;170496;34.80;837;03.47.34.339
12884;170495;34.80;838;03.47.34.339
12900;170489;34.80;839;03.47.34.339
12908;170495;34.80;840;03.47.34.339
12904;170484;34.80;841;03.47.34.339
12884;170489;34.80;842;03.47.34.339
12896;170493;34.80;843;03.47.34.339
12908;170498;34.80;844;03.47.34.339
12920;170500;34.80;845;03.47.34.339
12912;170504;34.80;846;03.47.34.339
12908;170506;34.80;847;03.47.34.339
12904;170504;34.80;848;03.47.34.350
12928;170500;34.80;849;03.47.34.350
12904;170502;34.80;850;03.47.34.459
12908;170503;34.80;851;03.47.34.459
12888;170500;34.80;852;03.47.34.459
12908;170499;34.80;853;03.47.34.459
12920;170506;34.80;854;03.47.34.459
12904;170502;34.80;855;03.47.34.459
12920;170511;34.80;856;03.47.34.470
12900;170513;34.80;857;03.47.34.470
12900;170515;34.80;858;03.47.34.470
12904;170512;34.80;859;03.47.34.470
12912;170523;34.80;860;03.47.34.470
12892;170518;34.80;861;03.47.34.470
12912;170511;34.80;862;03.47.34.470
12892;170514;34.80;863;03.47.34.470
12904;170517;34.80;864;03.47.34.470
12912;170514;34.80;865;03.47.34.470
12928;170517;34.80;866;03.47.34.470
12912;170514;34.80;867;03.47.34.470
12900;170531;34.80;868;03.47.34.470
12884;170532;34.80;869;03.47.34.481
12896;170528;34.80;870;03.47.34.481
12928;170543;34.80;871;03.47.34.481
12928;170528;34.80;872;03.47.34.481
12928;170534;34.80;873;03.47.34.481
12928;170538;34.80;874;03.47.34.481
12876;170538;34.80;875;03.47.34.569
12924;170528;34.80;876;03.47.34.569
12928;170537;34.80;877;03.47.34.569
12912;170533;34.80;878;03.47.34.580
12896;170538;34.80;879;03.47.34.580
12928;170536;34.80;880;03.47.34.580
12892;170528;34.80;881;03.47.34.580
12892;170530;34.80;882;03.47.34.580
12868;170534;34.80;883;03.47.34.591
12892;170533;34.80;884;03.47.34.591
12912;170535;34.80;885;03.47.34.591
12908;170537;34.80;886;03.47.34.602
12912;170550;34.80;887;03.47.34.602
12896;170546;34.80;888;03.47.34.602
12888;170544;34.80;889;03.47.34.602
12892;170543;34.80;890;03.47.34.602
12896;170545;34.80;891;03.47.34.602
12916;170552;34.80;892;03.47.34.602
12860;170557;34.80;893;03.47.34.602
12908;170561;34.80;894;03.47.34.602
12892;170560;34.80;895;03.47.34.602
12912;170562;34.80;896;03.47.34.602
12908;170567;34.80;897;03.47.34.602
12920;170569;34.80;898;03.47.34.602
12912;170565;34.80;899;03.47.34.613
12860;170563;34.80;900;03.47.34.701
12900;170568;34.80;901;03.47.34.701
12884;170573;34.80;902;03.47.34.701
12908;170575;34.80;903;03.47.34.701
12876;170578;34.80;904;03.47.34.701
12908;170576;34.80;905;03.47.34.701
12900;170579;34.80;906;03.47.34.701
12892;170576;34.80;907;03.47.34.701
12876;170582;34.80;908;03.47.34.701
12916;170577;34.80;909;03.47.34.701
12884;170577;34.80;910;03.47.34.701
12888;170573;34.80;911;03.47.34.701
12912;170586;34.80;912;03.47.34.712
12884;170577;34.80;913;03.47.34.712
12928;170583;34.80;914;03.47.34.712
12880;170585;34.80;915;03.47.34.712
12912;170585;34.80;916;03.47.34.712
12900;170593;34.80;917;03.47.34.734
12888;170585;34.80;918;03.47.34.734
12908;170578;34.80;919;03.47.34.734
12928;170582;34.80;920;03.47.34.734
12936;170586;34.80;921;03.47.34.734
12900;170588;34.80;922;03.47.34.734
12904;170580;34.80;923;03.47.34.734
12928;170581;34.80;924;03.47.34.734
12912;170587;34.80;925;03.47.34.821
12892;170580;34.80;926;03.47.34.821
12892;170583;34.80;927;03.47.34.821
12884;170580;34.80;928;03.47.34.821
12900;170580;34.80;929;03.47.34.821
12904;170585;34.80;930;03.47.34.821
12908;170576;34.80;931;03.47.34.821
12904;170567;34.80;932;03.47.34.821
12916;170573;34.80;933;03.47.34.832
12896;170568;34.80;934;03.47.34.832
12932;170559;34.80;935;03.47.34.832
12892;170552;34.80;936;03.47.34.832
12908;170548;34.80;937;03.47.34.832
12924;170536;34.80;938;03.47.34.832
12892;170527;34.80;939;03.47.34.832
12908;170508;34.80;940;03.47.34.832
12884;170489;34.80;941;03.47.34.832
12912;170474;34.80;942;03.47.34.832
12928;170463;34.80;943;03.47.34.832
12904;170444;34.80;944;03.47.34.832
12892;170427;34.80;945;03.47.34.832
12884;170411;34.80;946;03.47.34.843
12928;170395;34.80;947;03.47.34.843
12892;170381;34.80;948;03.47.34.843
12936;170366;34.80;949;03.47.34.843
12896;170364;34.80;950;03.47.34.964
12908;170351;34.80;951;03.47.34.964
12892;170346;34.80;952;03.47.34.964
12924;170351;34.80;953;03.47.34.964
12928;170336;34.80;954;03.47.34.975
12892;170330;34.80;955;03.47.34.975
12908;170320;34.80;956;03.47.34.975
12876;170318;34.80;957;03.47.34.975
12876;170321;34.80;958;03.47.34.975
12880;170311;34.80;959;03.47.34.975
12896;170309;34.80;960;03.47.34.975
12872;170300;34.80;961;03.47.34.975
12904;170307;34.80;962;03.47.34.975
12892;170295;34.80;963;03.47.34.975
12920;170302;34.80;964;03.47.34.975
12896;170297;34.80;965;03.47.34.975
12888;170288;34.80;966;03.47.34.986
12860;170289;34.80;967;03.47.34.986
12892;170289;34.80;968;03.47.34.986
12916;170290;34.80;969;03.47.34.986
12912;170278;34.80;970;03.47.34.986
12900;170279;34.80;971;03.47.34.986
12928;170280;34.80;972;03.47.34.986
12896;170272;34.80;973;03.47.34.986
12928;170278;34.80;974;03.47.34.986
12892;170274;34.80;975;03.47.35.096
12888;170282;34.80;976;03.47.35.096
12892;170272;34.80;977;03.47.35.096
12892;170275;34.80;978;03.47.35.096
12904;170280;34.80;979;03.47.35.096
12928;170280;34.80;980;03.47.35.096
12928;170282;34.80;981;03.47.35.096
12892;170288;34.80;982;03.47.35.096
12904;170291;34.80;983;03.47.35.096
12896;170294;34.80;984;03.47.35.107
12904;170299;34.80;985;03.47.35.107
12916;170301;34.80;986;03.47.35.107
12912;170316;34.80;987;03.47.35.107
12888;170315;34.80;988;03.47.35.107
12896;170310;34.80;989;03.47.35.107
12880;170318;34.80;990;03.47.35.107
12892;170319;34.80;991;03.47.35.107
12912;170332;34.80;992;03.47.35.107
12892;170322;34.80;993;03.47.35.107
12896;170320;34.80;994;03.47.35.107
12928;170327;34.80;995;03.47.35.107
12924;170322;34.80;996;03.47.35.107
12908;170331;34.80;997;03.47.35.118
12928;170330;34.80;998;03.47.35.118
12892;170337;34.80;999;03.47.35.118
12892;170339;34.76;000;03.47.35.205
12920;170343;34.76;001;03.47.35.205
12928;170341;34.76;002;03.47.35.205
12904;170330;34.76;003;03.47.35.205
12888;170329;34.76;004;03.47.35.205
12904;170328;34.76;005;03.47.35.205
12892;170326;34.76;006;03.47.35.205
12884;170316;34.76;007;03.47.35.205
12904;170325;34.76;008;03.47.35.227
12912;170314;34.76;009;03.47.35.227
12892;170315;34.76;010;03.47.35.227
12920;170307;34.76;011;03.47.35.227
12900;170324;34.76;012;03.47.35.227
12896;170325;34.76;013;03.47.35.227
12896;170314;34.76;014;03.47.35.227
12876;170325;34.76;015;03.47.35.227
12896;170339;34.76;016;03.47.35.227
12892;170332;34.76;017;03.47.35.227
12920;170337;34.76;018;03.47.35.227
12928;170341;34.76;019;03.47.35.238
12896;170349;34.76;020;03.47.35.238
12892;170349;34.76;021;03.47.35.238
12888;170350;34.76;022;03.47.35.238
12904;170355;34.76;023;03.47.35.238
12928;170347;34.76;024;03.47.35.238
12896;170349;34.76;025;03.47.35.326
12888;170346;34.76;026;03.47.35.326
12892;170352;34.76;027;03.47.35.326
12892;170344;34.76;028;03.47.35.326
12908;170338;34.76;029;03.47.35.326
12916;170344;34.76;030;03.47.35.326
12908;170338;34.76;031;03.47.35.326
12908;170346;34.76;032;03.47.35.338
12908;170338;34.76;033;03.47.35.338
12912;170339;34.76;034;03.47.35.338
12896;170332;34.76;035;03.47.35.338
12904;170331;34.76;036;03.47.35.338
12928;170331;34.76;037;03.47.35.338
12888;170331;34.76;038;03.47.35.338
12892;170330;34.76;039;03.47.35.338
12908;170337;34.76;040;03.47.35.338
12896;170335;34.76;041;03.47.35.338
12892;170336;34.76;042;03.47.35.338
12888;170344;34.76;043;03.47.35.338
12880;170347;34.76;044;03.47.35.338
12896;170346;34.76;045;03.47.35.349
12912;170365;34.76;046;03.47.35.349
12896;170372;34.76;047;03.47.35.349
12924;170371;34.76;048;03.47.35.349
12912;170376;34.76;049;03.47.35.349
12896;170379;34.76;050;03.47.35.470
12892;170381;34.76;051;03.47.35.470
12888;170390;34.76;052;03.47.35.470
12892;170405;34.76;053;03.47.35.481
12876;170394;34.76;054;03.47.35.481
12900;170406;34.76;055;03.47.35.481
12888;170398;34.76;056;03.47.35.481
12868;170403;34.76;057;03.47.35.481
12928;170393;34.76;058;03.47.35.502
12888;170408;34.76;059;03.47.35.502
12912;170401;34.76;060;03.47.35.502
12892;170406;34.76;061;03.47.35.513
12876;170405;34.76;062;03.47.35.513
12876;170407;34.76;063;03.47.35.513
12908;170409;34.76;064;03.47.35.513
12900;170402;34.76;065;03.47.35.513
12900;170409;34.76;066;03.47.35.513
12896;170409;34.76;067;03.47.35.513
12888;170413;34.76;068;03.47.35.513
12872;170407;34.76;069;03.47.35.513
12900;170399;34.76;070;03.47.35.513
12912;170415;34.76;071;03.47.35.513
12920;170413;34.76;072;03.47.35.513
12892;170411;34.76;073;03.47.35.513
12936;170406;34.76;074;03.47.35.524
12888;170408;34.76;075;03.47.35.579
12892;170416;34.76;076;03.47.35.579
12904;170422;34.76;077;03.47.35.579
12924;170420;34.76;078;03.47.35.579
12908;170421;34.76;079;03.47.35.579
12896;170422;34.76;080;03.47.35.579
12900;170421;34.76;081;03.47.35.579
12896;170426;34.76;082;03.47.35.579
12896;170432;34.76;083;03.47.35.601
12892;170423;34.76;084;03.47.35.601
12920;170418;34.76;085;03.47.35.601
12912;170418;34.76;086;03.47.35.601
12912;170414;34.76;087;03.47.35.601
12932;170398;34.76;088;03.47.35.601
12912;170404;34.76;089;03.47.35.601
12900;170395;34.76;090;03.47.35.601
12888;170392;34.76;091;03.47.35.601
12904;170394;34.76;092;03.47.35.612
12912;170381;34.76;093;03.47.35.612
12892;170388;34.76;094;03.47.35.612
12896;170388;34.76;095;03.47.35.612
12900;170381;34.76;096;03.47.35.612
12876;170387;34.76;097;03.47.35.612
12912;170380;34.76;098;03.47.35.612
12892;170377;34.76;099;03.47.35.612
12912;170375;34.80;100;03.47.35.699
12860;170386;34.80;101;03.47.35.699
12872;170374;34.80;102;03.47.35.699
12876;170369;34.80;103;03.47.35.699
12876;170379;34.80;104;03.47.35.699
12896;170375;34.80;105;03.47.35.699
12928;170368;34.80;106;03.47.35.699
12896;170366;34.80;107;03.47.35.699
12888;170372;34.80;108;03.47.35.710
12892;170377;34.80;109;03.47.35.710
12888;170366;34.80;110;03.47.35.710
12868;170375;34.80;111;03.47.35.710
12912;170361;34.80;112;03.47.35.710
12900;170365;34.80;113;03.47.35.710
12920;170368;34.80;114;03.47.35.710
12876;170373;34.80;115;03.47.35.710
12908;170351;34.80;116;03.47.35.710
12872;170360;34.80;117;03.47.35.732
12900;170356;34.80;118;03.47.35.732
12892;170362;34.80;119;03.47.35.732
12912;170358;34.80;120;03.47.35.732
12892;170361;34.80;121;03.47.35.732
12916;170350;34.80;122;03.47.35.732
12888;170364;34.80;123;03.47.35.732
12916;170357;34.80;124;03.47.35.732
12860;170357;34.80;125;03.47.35.820
12892;170357;34.80;126;03.47.35.820
12892;170358;34.80;127;03.47.35.820
12888;170362;34.80;128;03.47.35.820
12908;170355;34.80;129;03.47.35.820
12884;170352;34.80;130;03.47.35.831
12928;170358;34.80;131;03.47.35.831
12896;170365;34.80;132;03.47.35.831
12868;170356;34.80;133;03.47.35.831
12884;170359;34.80;134;03.47.35.831
12876;170357;34.80;135;03.47.35.831
12880;170354;34.80;136;03.47.35.831
12892;170344;34.80;137;03.47.35.831
12916;170349;34.80;138;03.47.35.831
12920;170344;34.80;139;03.47.35.831
12908;170349;34.80;140;03.47.35.831
12924;170347;34.80;141;03.47.35.831
12896;170341;34.80;142;03.47.35.842
12920;170350;34.80;143;03.47.35.842
12912;170352;34.80;144;03.47.35.842
12884;170356;34.80;145;03.47.35.842
12888;170355;34.80;146;03.47.35.842
12892;170355;34.80;147;03.47.35.842
12876;170364;34.80;148;03.47.35.842
12924;170361;34.80;149;03.47.35.842
12876;170356;34.80;150;03.47.35.962
12884;170345;34.80;151;03.47.35.973
12884;170359;34.80;152;03.47.35.973
12916;170360;34.80;153;03.47.35.973
12924;170351;34.80;154;03.47.35.973
12884;170344;34.80;155;03.47.35.973
12888;170348;34.80;156;03.47.35.973
12928;170346;34.80;157;03.47.35.973
12924;170349;34.80;158;03.47.35.973
12884;170354;34.80;159;03.47.35.973
12900;170341;34.80;160;03.47.35.973
12900;170339;34.80;161;03.47.35.973
12904;170343;34.80;162;03.47.35.973
12904;170337;34.80;163;03.47.35.973
12888;170341;34.80;164;03.47.35.974
12904;170346;34.80;165;03.47.35.985
12872;170342;34.80;166;03.47.35.985
12920;170330;34.80;167;03.47.35.985
12888;170337;34.80;168;03.47.35.985
12900;170332;34.80;169;03.47.35.985
12892;170325;34.80;170;03.47.35.985
12900;170340;34.80;171;03.47.35.985
12884;170329;34.80;172;03.47.35.985
12936;170329;34.80;173;03.47.35.985
12936;170334;34.80;174;03.47.35.985
12892;170327;34.80;175;03.47.36.093
12888;170325;34.80;176;03.47.36.093
12888;170328;34.80;177;03.47.36.093
12896;170330;34.80;178;03.47.36.093
12892;170328;34.80;179;03.47.36.093
12892;170326;34.80;180;03.47.36.093
12896;170328;34.80;181;03.47.36.093
12924;170331;34.80;182;03.47.36.093
12924;170342;34.80;183;03.47.36.093
12884;170343;34.80;184;03.47.36.104
12868;170353;34.80;185;03.47.36.104
12928;170345;34.80;186;03.47.36.104
12932;170353;34.80;187;03.47.36.104
12880;170355;34.80;188;03.47.36.104
12908;170359;34.80;189;03.47.36.104
12908;170368;34.80;190;03.47.36.104
12908;170369;34.80;191;03.47.36.104
12900;170377;34.80;192;03.47.36.104
12888;170388;34.80;193;03.47.36.104
12892;170391;34.80;194;03.47.36.104
12896;170392;34.80;195;03.47.36.104
12904;170392;34.80;196;03.47.36.104
12896;170397;34.80;197;03.47.36.115
12892;170393;34.80;198;03.47.36.115
12920;170395;34.80;199;03.47.36.115
12928;170397;34.80;200;03.47.36.203
12912;170402;34.80;201;03.47.36.203
12896;170400;34.80;202;03.47.36.203
12912;170408;34.80;203;03.47.36.203
12900;170407;34.80;204;03.47.36.203
12888;170413;34.80;205;03.47.36.203
12928;170410;34.80;206;03.47.36.214
12896;170421;34.80;207;03.47.36.214
12884;170420;34.80;208;03.47.36.214
12896;170427;34.80;209;03.47.36.214
12892;170422;34.80;210;03.47.36.214
12904;170422;34.80;211;03.47.36.214
12908;170438;34.80;212;03.47.36.214
12928;170434;34.80;213;03.47.36.214
12908;170433;34.80;214;03.47.36.225
12900;170426;34.80;215;03.47.36.225
12896;170442;34.80;216;03.47.36.225
12916;170438;34.80;217;03.47.36.225
12908;170437;34.80;218;03.47.36.225
12896;170440;34.80;219;03.47.36.225
12924;170427;34.80;220;03.47.36.225
12888;170444;34.80;221;03.47.36.225
12916;170446;34.80;222;03.47.36.236
12896;170455;34.80;223;03.47.36.236
12928;170446;34.80;224;03.47.36.236
12928;170456;34.80;225;03.47.36.324
12912;170454;34.80;226;03.47.36.324
12908;170459;34.80;227;03.47.36.335
12916;170456;34.80;228;03.47.36.335
12884;170469;34.80;229;03.47.36.335
12904;170462;34.80;230;03.47.36.335
12904;170470;34.80;231;03.47.36.335
12896;170462;34.80;232;03.47.36.335
12892;170466;34.80;233;03.47.36.335
12912;170470;34.80;234;03.47.36.335
12916;170468;34.80;235;03.47.36.335
12876;170472;34.80;236;03.47.36.345
12900;170477;34.80;237;03.47.36.345
12892;170477;34.80;238;03.47.36.345
12892;170479;34.80;239;03.47.36.345
12916;170489;34.80;240;03.47.36.345
12916;170498;34.80;241;03.47.36.345
12892;170504;34.80;242;03.47.36.356
12908;170498;34.80;243;03.47.36.367
12900;170510;34.80;244;03.47.36.367
12896;170515;34.80;245;03.47.36.367
12880;170510;34.80;246;03.47.36.367
12896;170520;34.80;247;03.47.36.367
12880;170515;34.80;248;03.47.36.367
12924;170523;34.80;249;03.47.36.367
12928;170528;34.80;250;03.47.36.455
12884;170526;34.80;251;03.47.36.455
12900;170523;34.80;252;03.47.36.455
12912;170521;34.80;253;03.47.36.455
12928;170529;34.80;254;03.47.36.455
12908;170517;34.80;255;03.47.36.455
12880;170522;34.80;256;03.47.36.455
12904;170523;34.80;257;03.47.36.455
12888;170526;34.80;258;03.47.36.455
12932;170523;34.80;259;03.47.36.455
12892;170525;34.80;260;03.47.36.467
12900;170531;34.80;261;03.47.36.467
12928;170520;34.80;262;03.47.36.467
12896;170531;34.80;263;03.47.36.467
12912;170519;34.80;264;03.47.36.467
12892;170516;34.80;265;03.47.36.467
12904;170516;34.80;266;03.47.36.467
12900;170511;34.80;267;03.47.36.467
12928;170517;34.80;268;03.47.36.467
12920;170515;34.80;269;03.47.36.467
12880;170507;34.80;270;03.47.36.467
12904;170515;34.80;271;03.47.36.467
12904;170512;34.80;272;03.47.36.467
12912;170509;34.80;273;03.47.36.467
12928;170517;34.80;274;03.47.36.467
12908;170513;34.80;275;03.47.36.588
12896;170515;34.80;276;03.47.36.588
12908;170506;34.80;277;03.47.36.588
12904;170515;34.80;278;03.47.36.588
12892;170521;34.80;279;03.47.36.588
12900;170525;34.80;280;03.47.36.588
12888;170516;34.80;281;03.47.36.588
12912;170521;34.80;282;03.47.36.588
12904;170529;34.80;283;03.47.36.599
12892;170527;34.80;284;03.47.36.599
12904;170535;34.80;285;03.47.36.599
12920;170537;34.80;286;03.47.36.599
12904;170545;34.80;287;03.47.36.599
12912;170549;34.80;288;03.47.36.599
12928;170549;34.80;289;03.47.36.599
12916;170565;34.80;290;03.47.36.599
12872;170557;34.80;291;03.47.36.599
12888;170566;34.80;292;03.47.36.599
12892;170563;34.80;293;03.47.36.599
12884;170569;34.80;294;03.47.36.599
12916;170571;34.80;295;03.47.36.599
12900;170570;34.80;296;03.47.36.610
12944;170567;34.80;297;03.47.36.610
12884;170574;34.80;298;03.47.36.610
12924;170574;34.80;299;03.47.36.610
12900;170570;34.80;300;03.47.36.698
12896;170568;34.80;301;03.47.36.698
12896;170575;34.80;302;03.47.36.698
12900;170580;34.80;303;03.47.36.698
12892;170574;34.80;304;03.47.36.698
12904;170581;34.80;305;03.47.36.698
12916;170573;34.80;306;03.47.36.709
12892;170569;34.80;307;03.47.36.709
12920;170583;34.80;308;03.47.36.719
12908;170587;34.80;309;03.47.36.719
12912;170578;34.80;310;03.47.36.719
12900;170581;34.80;311;03.47.36.719
12912;170593;34.80;312;03.47.36.719
12928;170588;34.80;313;03.47.36.730
12892;170582;34.80;314;03.47.36.730
12876;170583;34.80;315;03.47.36.730
12900;170587;34.80;316;03.47.36.730
12916;170577;34.80;317;03.47.36.730
12920;170581;34.80;318;03.47.36.730
12892;170572;34.80;319;03.47.36.730
12920;170573;34.80;320;03.47.36.730
12904;170570;34.80;321;03.47.36.730
12912;170572;34.80;322;03.47.36.730
12884;170577;34.80;323;03.47.36.730
12908;170578;34.80;324;03.47.36.730
12900;170571;34.80;325;03.47.36.818
12900;170571;34.80;326;03.47.36.829
12928;170580;34.80;327;03.47.36.829
12904;170574;34.80;328;03.47.36.829
12892;170580;34.80;329;03.47.36.829
12904;170577;34.80;330;03.47.36.829
12904;170577;34.80;331;03.47.36.829
12888;170571;34.80;332;03.47.36.829
12904;170578;34.80;333;03.47.36.829
12920;170571;34.80;334;03.47.36.829
12916;170576;34.80;335;03.47.36.840
12872;170571;34.80;336;03.47.36.840
12892;170570;34.80;337;03.47.36.840
12912;170574;34.80;338;03.47.36.840
12888;170574;34.80;339;03.47.36.840
12892;170566;34.80;340;03.47.36.840
12920;170578;34.80;341;03.47.36.840
12900;170581;34.80;342;03.47.36.851
12900;170575;34.80;343;03.47.36.862
12920;170570;34.80;344;03.47.36.862
12880;170569;34.80;345;03.47.36.862
12912;170582;34.80;346;03.47.36.862
12900;170585;34.80;347;03.47.36.862
12888;170581;34.80;348;03.47.36.862
12908;170580;34.80;349;03.47.36.862
12892;170580;34.76;350;03.47.36.950
12932;170585;34.76;351;03.47.36.950
12892;170587;34.76;352;03.47.36.950
12908;170581;34.76;353;03.47.36.950
12908;170588;34.76;354;03.47.36.950
12900;170579;34.76;355;03.47.36.950
12912;170584;34.76;356;03.47.36.950
12912;170582;34.76;357;03.47.36.950
12908;170580;34.76;358;03.47.36.950
12876;170583;34.76;359;03.47.36.950
12888;170587;34.76;360;03.47.36.950
12924;170589;34.76;361;03.47.36.961
12896;170592;34.76;362;03.47.36.961
12920;170593;34.76;363;03.47.36.961
12896;170599;34.76;364;03.47.36.961
12900;170603;34.76;365;03.47.36.961
12912;170610;34.76;366;03.47.36.961
12924;170609;34.76;367;03.47.36.961
12888;170621;34.76;368;03.47.36.961
12908;170619;34.76;369;03.47.36.961
12912;170624;34.76;370;03.47.36.961
12896;170626;34.76;371;03.47.36.961
12896;170628;34.76;372;03.47.36.961
12892;170625;34.76;373;03.47.36.972
12892;170626;34.76;374;03.47.36.972
12888;170619;34.76;375;03.47.37.082
12904;170625;34.76;376;03.47.37.082
12912;170627;34.76;377;03.47.37.082
12896;170624;34.76;378;03.47.37.082
12924;170633;34.76;379;03.47.37.082
12904;170632;34.76;380;03.47.37.082
12868;170634;34.76;381;03.47.37.082
12932;170628;34.76;382;03.47.37.092
12900;170634;34.76;383;03.47.37.092
12900;170629;34.76;384;03.47.37.092
12912;170635;34.76;385;03.47.37.092
12908;170629;34.76;386;03.47.37.092
12892;170639;34.76;387;03.47.37.092
12912;170637;34.76;388;03.47.37.092
12880;170642;34.76;389;03.47.37.092
12892;170643;34.76;390;03.47.37.092
12912;170641;34.76;391;03.47.37.092
12944;170646;34.76;392;03.47.37.092
12928;170653;34.76;393;03.47.37.092
12884;170643;34.76;394;03.47.37.092
12884;170640;34.76;395;03.47.37.103
12908;170655;34.76;396;03.47.37.103
12924;170651;34.76;397;03.47.37.103
12932;170645;34.76;398;03.47.37.103
12920;170650;34.76;399;03.47.37.103
12860;170639;34.76;400;03.47.37.212
12928;170646;34.76;401;03.47.37.212
12916;170639;34.76;402;03.47.37.223
12908;170632;34.76;403;03.47.37.223
12876;170633;34.76;404;03.47.37.223
12916;170632;34.76;405;03.47.37.223
12920;170617;34.76;406;03.47.37.223
12912;170615;34.76;407;03.47.37.223
12888;170614;34.76;408;03.47.37.223
12884;170614;34.76;409;03.47.37.223
12884;170621;34.76;410;03.47.37.223
12876;170608;34.76;411;03.47.37.223
12908;170608;34.76;412;03.47.37.223
12904;170597;34.76;413;03.47.37.223
12928;170591;34.76;414;03.47.37.223
12888;170591;34.76;415;03.47.37.234
12908;170597;34.76;416;03.47.37.234
12904;170583;34.76;417;03.47.37.234
12888;170583;34.76;418;03.47.37.234
12920;170574;34.76;419;03.47.37.234
12900;170576;34.76;420;03.47.37.234
12896;170572;34.76;421;03.47.37.234
12900;170572;34.76;422;03.47.37.234
12904;170564;34.76;423;03.47.37.234
12912;170565;34.76;424;03.47.37.234
12928;170567;34.76;425;03.47.37.332
12916;170559;34.76;426;03.47.37.332
12888;170553;34.76;427;03.47.37.332
12888;170554;34.76;428;03.47.37.332
12908;170546;34.76;429;03.47.37.332
12904;170553;34.76;430;03.47.37.332
12892;170544;34.76;431;03.47.37.332
12896;170548;34.76;432;03.47.37.332
12916;170533;34.76;433;03.47.37.354
12928;170543;34.76;434;03.47.37.354
12920;170549;34.76;435;03.47.37.354
12904;170544;34.76;436;03.47.37.354
12884;170549;34.76;437;03.47.37.354
12892;170539;34.76;438;03.47.37.354
12904;170537;34.76;439;03.47.37.354
12912;170538;34.76;440;03.47.37.354
12900;170546;34.76;441;03.47.37.354
12908;170545;34.76;442;03.47.37.354
12880;170538;34.76;443;03.47.37.354
12932;170535;34.76;444;03.47.37.365
12908;170534;34.76;445;03.47.37.365
12904;170539;34.76;446;03.47.37.365
12872;170534;34.76;447;03.47.37.365
12896;170535;34.76;448;03.47.37.365
12928;170531;34.76;449;03.47.37.365
12904;170539;34.80;450;03.47.37.453
12908;170536;34.80;451;03.47.37.453
12928;170536;34.80;452;03.47.37.453
12904;170545;34.80;453;03.47.37.453
12892;170547;34.80;454;03.47.37.453
12888;170538;34.80;455;03.47.37.453
12928;170547;34.80;456;03.47.37.453
12900;170550;34.80;457;03.47.37.453
12892;170546;34.80;458;03.47.37.487
12912;170554;34.80;459;03.47.37.487
12896;170538;34.80;460;03.47.37.487
12884;170547;34.80;461;03.47.37.487
12928;170539;34.80;462;03.47.37.487
12912;170533;34.80;463;03.47.37.487
12904;170526;34.80;464;03.47.37.487
12904;170526;34.80;465;03.47.37.487
12920;170519;34.80;466;03.47.37.487
12912;170529;34.80;467;03.47.37.498
12920;170520;34.80;468;03.47.37.498
12884;170508;34.80;469;03.47.37.498
12908;170510;34.80;470;03.47.37.498
12904;170507;34.80;471;03.47.37.498
12916;170506;34.80;472;03.47.37.498
12908;170509;34.80;473;03.47.37.498
12944;170506;34.80;474;03.47.37.498
12900;170511;34.80;475;03.47.37.574
12900;170512;34.80;476;03.47.37.574
12932;170509;34.80;477;03.47.37.574
12916;170517;34.80;478;03.47.37.574
12912;170524;34.80;479;03.47.37.585
12924;170527;34.80;480;03.47.37.585
12904;170540;34.80;481;03.47.37.585
12924;170532;34.80;482;03.47.37.585
12900;170543;34.80;483;03.47.37.585
12928;170545;34.80;484;03.47.37.585
12912;170547;34.80;485;03.47.37.585
12904;170562;34.80;486;03.47.37.585
12896;170552;34.80;487;03.47.37.585
12908;170551;34.80;488;03.47.37.585
12908;170556;34.80;489;03.47.37.585
12936;170557;34.80;490;03.47.37.585
12884;170563;34.80;491;03.47.37.585
12928;170566;34.80;492;03.47.37.596
12920;170568;34.80;493;03.47.37.596
12892;170565;34.80;494;03.47.37.596
12908;170565;34.80;495;03.47.37.596
12876;170572;34.80;496;03.47.37.596
12900;170572;34.80;497;03.47.37.596
12928;170575;34.80;498;03.47.37.596
12912;170574;34.80;499;03.47.37.596
12884;170571;34.80;500;03.47.37.717
12908;170571;34.80;501;03.47.37.717
12900;170581;34.80;502;03.47.37.717
12892;170578;34.80;503;03.47.37.717
12908;170582;34.80;504;03.47.37.717
12900;170584;34.80;505;03.47.37.717
12928;170586;34.80;506;03.47.37.717
12912;170598;34.80;507;03.47.37.717
12892;170587;34.80;508;03.47.37.717
12916;170597;34.80;509;03.47.37.717
12908;170600;34.80;510;03.47.37.717
12924;170597;34.80;511;03.47.37.717
12916;170605;34.80;512;03.47.37.717
12888;170612;34.80;513;03.47.37.728
12900;170608;34.80;514;03.47.37.728
12888;170613;34.80;515;03.47.37.728
12892;170615;34.80;516;03.47.37.728
12916;170620;34.80;517;03.47.37.728
12900;170621;34.80;518;03.47.37.728
12916;170610;34.80;519;03.47.37.728
12868;170623;34.80;520;03.47.37.728
12908;170621;34.80;521;03.47.37.728
12904;170627;34.80;522;03.47.37.728
12904;170627;34.80;523;03.47.37.728
12936;170618;34.80;524;03.47.37.728
12892;170625;34.80;525;03.47.37.848
12892;170625;34.80;526;03.47.37.848
12916;170627;34.80;527;03.47.37.848
12932;170623;34.80;528;03.47.37.848
12912;170630;34.80;529;03.47.37.848
12888;170637;34.80;530;03.47.37.848
12900;170630;34.80;531;03.47.37.848
12904;170645;34.80;532;03.47.37.848
12916;170650;34.80;533;03.47.37.848
12924;170658;34.80;534;03.47.37.859
12936;170655;34.80;535;03.47.37.859
12900;170665;34.80;536;03.47.37.859
12904;170667;34.80;537;03.47.37.859
12900;170684;34.80;538;03.47.37.859
12908;170684;34.80;539;03.47.37.859
12912;170682;34.80;540;03.47.37.859
12908;170692;34.80;541;03.47.37.859
12900;170695;34.80;542;03.47.37.859
12912;170697;34.80;543;03.47.37.859
12908;170699;34.80;544;03.47.37.859
12928;170693;34.80;545;03.47.37.859
12928;170690;34.80;546;03.47.37.859
12908;170692;34.80;547;03.47.37.869
12884;170689;34.80;548;03.47.37.869
12916;170695;34.80;549;03.47.37.869
12900;170677;34.80;550;03.47.37.979
12912;170675;34.80;551;03.47.37.979
12892;170675;34.80;552;03.47.37.979
12896;170666;34.80;553;03.47.37.979
12924;170674;34.80;554;03.47.37.979
12904;170667;34.80;555;03.47.37.990
12856;170672;34.80;556;03.47.37.990
12904;170662;34.80;557;03.47.37.990
12896;170655;34.80;558;03.47.37.990
12928;170653;34.80;559;03.47.37.990
12896;170655;34.80;560;03.47.37.990
12908;170642;34.80;561;03.47.37.990
12900;170656;34.80;562;03.47.37.990
12892;170644;34.80;563;03.47.37.990
12932;170637;34.80;564;03.47.37.990
12892;170634;34.80;565;03.47.37.990
12928;170619;34.80;566;03.47.37.990
12928;170619;34.80;567;03.47.37.990
12904;170613;34.80;568;03.47.38.001
12884;170613;34.80;569;03.47.38.001
12908;170610;34.80;570;03.47.38.001
12900;170608;34.80;571;03.47.38.001
12884;170612;34.80;572;03.47.38.001
12892;170603;34.80;573;03.47.38.001
12960;170596;34.80;574;03.47.38.001
12892;170594;34.80;575;03.47.38.078
12892;170595;34.80;576;03.47.38.089
12912;170601;34.80;577;03.47.38.089
12904;170591;34.80;578;03.47.38.089
12904;170594;34.80;579;03.47.38.089
12908;170594;34.80;580;03.47.38.089
12908;170590;34.80;581;03.47.38.089
12912;170597;34.80;582;03.47.38.089
12912;170602;34.80;583;03.47.38.089
12908;170609;34.80;584;03.47.38.089
12884;170604;34.80;585;03.47.38.089
12912;170597;34.80;586;03.47.38.089
12900;170604;34.80;587;03.47.38.089
12888;170611;34.80;588;03.47.38.089
12904;170603;34.80;589;03.47.38.100
12928;170606;34.80;590;03.47.38.100
12892;170604;34.80;591;03.47.38.100
12908;170602;34.80;592;03.47.38.111
12944;170603;34.80;593;03.47.38.122
12928;170602;34.80;594;03.47.38.122
12896;170604;34.80;595;03.47.38.122
12908;170600;34.80;596;03.47.38.122
12904;170602;34.80;597;03.47.38.122
12892;170611;34.80;598;03.47.38.122
12916;170615;34.80;599;03.47.38.122
12908;170612;34.76;600;03.47.38.210
12904;170613;34.76;601;03.47.38.210
12928;170611;34.76;602;03.47.38.210
12892;170616;34.76;603;03.47.38.210
12904;170612;34.76;604;03.47.38.210
12888;170613;34.76;605;03.47.38.210
12916;170611;34.76;606;03.47.38.210
12904;170616;34.76;607;03.47.38.210
12916;170607;34.76;608;03.47.38.210
12900;170616;34.76;609;03.47.38.210
12928;170611;34.76;610;03.47.38.210
12908;170604;34.76;611;03.47.38.221
12888;170603;34.76;612;03.47.38.221
12924;170612;34.76;613;03.47.38.221
12904;170605;34.76;614;03.47.38.221
12912;170613;34.76;615;03.47.38.221
12900;170604;34.76;616;03.47.38.221
12916;170610;34.76;617;03.47.38.221
12904;170610;34.76;618;03.47.38.221
12888;170619;34.76;619;03.47.38.221
12880;170611;34.76;620;03.47.38.221
12892;170612;34.76;621;03.47.38.221
12936;170614;34.76;622;03.47.38.221
12912;170628;34.76;623;03.47.38.232
12912;170621;34.76;624;03.47.38.232
12904;170626;34.76;625;03.47.38.340
12936;170626;34.76;626;03.47.38.340
12928;170624;34.76;627;03.47.38.340
12928;170622;34.76;628;03.47.38.340
12936;170618;34.76;629;03.47.38.340
12916;170621;34.76;630;03.47.38.340
12908;170623;34.76;631;03.47.38.351
12936;170626;34.76;632;03.47.38.351
12904;170633;34.76;633;03.47.38.351
12920;170625;34.76;634;03.47.38.351
12872;170635;34.76;635;03.47.38.351
12900;170635;34.76;636;03.47.38.351
12900;170642;34.76;637;03.47.38.351
12904;170631;34.76;638;03.47.38.351
12912;170637;34.76;639;03.47.38.351
12896;170647;34.76;640;03.47.38.351
12924;170645;34.76;641;03.47.38.351
12908;170646;34.76;642;03.47.38.351
12904;170638;34.76;643;03.47.38.351
12912;170644;34.76;644;03.47.38.362
12912;170653;34.76;645;03.47.38.362
12928;170648;34.76;646;03.47.38.362
12904;170636;34.76;647;03.47.38.362
12900;170632;34.76;648;03.47.38.362
12936;170633;34.76;649;03.47.38.362
12928;170627;34.80;650;03.47.38.459
12944;170632;34.80;651;03.47.38.459
12900;170630;34.80;652;03.47.38.459
12928;170621;34.80;653;03.47.38.459
12900;170618;34.80;654;03.47.38.459
12916;170610;34.80;655;03.47.38.459
12892;170606;34.80;656;03.47.38.459
12928;170606;34.80;657;03.47.38.459
12928;170597;34.80;658;03.47.38.459
12912;170593;34.80;659;03.47.38.470
12912;170594;34.80;660;03.47.38.470
12900;170579;34.80;661;03.47.38.470
12912;170589;34.80;662;03.47.38.470
12876;170588;34.80;663;03.47.38.470
12924;170589;34.80;664;03.47.38.470
12908;170597;34.80;665;03.47.38.470
12912;170598;34.80;666;03.47.38.470
12912;170602;34.80;667;03.47.38.492
12904;170607;34.80;668;03.47.38.492
12900;170611;34.80;669;03.47.38.492
12928;170621;34.80;670;03.47.38.492
12892;170620;34.80;671;03.47.38.492
12928;170620;34.80;672;03.47.38.492
12928;170633;34.80;673;03.47.38.492
12920;170643;34.80;674;03.47.38.492
12896;170641;34.80;675;03.47.38.580
12928;170640;34.80;676;03.47.38.580
12904;170651;34.80;677;03.47.38.580
12932;170651;34.80;678;03.47.38.580
12892;170653;34.80;679;03.47.38.580
12892;170645;34.80;680;03.47.38.580
12896;170651;34.80;681;03.47.38.580
12928;170650;34.80;682;03.47.38.580
12884;170656;34.80;683;03.47.38.580
12912;170645;34.80;684;03.47.38.591
12920;170647;34.80;685;03.47.38.591
12892;170648;34.80;686;03.47.38.591
12932;170642;34.80;687;03.47.38.591
12924;170630;34.80;688;03.47.38.591
12912;170626;34.80;689;03.47.38.591
12908;170627;34.80;690;03.47.38.591
12892;170612;34.80;691;03.47.38.591
12860;170608;34.80;692;03.47.38.591
12904;170598;34.80;693;03.47.38.591
12884;170595;34.80;694;03.47.38.591
12912;170586;34.80;695;03.47.38.591
12896;170593;34.80;696;03.47.38.591
12904;170593;34.80;697;03.47.38.602
12908;170576;34.80;698;03.47.38.602
12936;170588;34.80;699;03.47.38.602
12892;170587;34.76;700;03.47.38.700
12896;170586;34.76;701;03.47.38.700
12928;170594;34.76;702;03.47.38.700
12912;170586;34.76;703;03.47.38.700
12916;170592;34.76;704;03.47.38.700
12904;170591;34.76;705;03.47.38.711
12904;170589;34.76;706;03.47.38.711
12932;170598;34.76;707;03.47.38.711
12928;170603;34.76;708;03.47.38.711
12892;170590;34.76;709;03.47.38.711
12892;170588;34.76;710;03.47.38.711
12920;170598;34.76;711;03.47.38.711
12892;170590;34.76;712;03.47.38.711
12936;170598;34.76;713;03.47.38.711
12920;170601;34.76;714;03.47.38.711
12944;170604;34.76;715;03.47.38.711
12908;170608;34.76;716;03.47.38.711
12924;170613;34.76;717;03.47.38.711
12892;170616;34.76;718;03.47.38.711
12920;170619;34.76;719;03.47.38.722
12908;170621;34.76;720;03.47.38.722
12916;170627;34.76;721;03.47.38.722
12912;170626;34.76;722;03.47.38.722
12904;170628;34.76;723;03.47.38.722
12928;170632;34.76;724;03.47.38.722
12904;170638;34.76;725;03.47.38.832
12896;170643;34.76;726;03.47.38.843
12908;170649;34.76;727;03.47.38.843
12944;170654;34.76;728;03.47.38.843
12928;170659;34.76;729;03.47.38.843
12912;170660;34.76;730;03.47.38.843
12892;170662;34.76;731;03.47.38.843
12908;170664;34.76;732;03.47.38.843
12896;170675;34.76;733;03.47.38.843
12944;170673;34.76;734;03.47.38.843
12904;170672;34.76;735;03.47.38.843
12912;170679;34.76;736;03.47.38.843
12908;170690;34.76;737;03.47.38.843
12928;170684;34.76;738;03.47.38.843
12892;170693;34.76;739;03.47.38.853
12928;170696;34.76;740;03.47.38.853
12888;170691;34.76;741;03.47.38.853
12896;170704;34.76;742;03.47.38.853
12908;170705;34.76;743;03.47.38.853
12896;170707;34.76;744;03.47.38.853
12936;170707;34.76;745;03.47.38.853
12928;170699;34.76;746;03.47.38.853
12908;170703;34.76;747;03.47.38.853
12892;170697;34.76;748;03.47.38.853
12928;170704;34.76;749;03.47.38.853
12916;170702;34.80;750;03.47.38.952
12920;170705;34.80;751;03.47.38.952
12892;170712;34.80;752;03.47.38.952
12900;170712;34.80;753;03.47.38.952
12924;170717;34.80;754;03.47.38.952
12904;170725;34.80;755;03.47.38.952
12920;170717;34.80;756;03.47.38.952
12928;170724;34.80;757;03.47.38.952
12916;170732;34.80;758;03.47.38.963
12920;170728;34.80;759;03.47.38.963
12920;170731;34.80;760;03.47.38.963
12892;170730;34.80;761;03.47.38.963
12912;170730;34.80;762;03.47.38.963
12912;170738;34.80;763;03.47.38.963
12900;170745;34.80;764;03.47.38.963
12928;170741;34.80;765;03.47.38.963
12920;170743;34.80;766;03.47.38.963
12900;170742;34.80;767;03.47.38.963
12928;170748;34.80;768;03.47.38.974
12928;170740;34.80;769;03.47.38.974
12900;170746;34.80;770;03.47.38.974
12920;170746;34.80;771;03.47.38.974
12928;170749;34.80;772;03.47.38.974
12888;170743;34.80;773;03.47.38.974
12912;170758;34.80;774;03.47.38.974
12904;170760;34.80;775;03.47.39.073
12920;170760;34.80;776;03.47.39.073
12904;170764;34.80;777;03.47.39.073
12904;170772;34.80;778;03.47.39.073
12904;170771;34.80;779;03.47.39.073
12876;170780;34.80;780;03.47.39.073
12912;170783;34.80;781;03.47.39.073
12908;170781;34.80;782;03.47.39.084
12916;170774;34.80;783;03.47.39.084
12900;170783;34.80;784;03.47.39.084
12936;170784;34.80;785;03.47.39.084
12928;170792;34.80;786;03.47.39.084
12892;170791;34.80;787;03.47.39.084
12900;170801;34.80;788;03.47.39.084
12928;170796;34.80;789;03.47.39.084
12944;170797;34.80;790;03.47.39.084
12920;170808;34.80;791;03.47.39.084
12884;170808;34.80;792;03.47.39.084
12928;170814;34.80;793;03.47.39.084
12892;170805;34.80;794;03.47.39.084
12912;170820;34.80;795;03.47.39.095
12908;170819;34.80;796;03.47.39.095
12912;170825;34.80;797;03.47.39.095
12912;170836;34.80;798;03.47.39.095
12920;170833;34.80;799;03.47.39.095
12908;170832;34.80;800;03.47.39.194
12916;170836;34.80;801;03.47.39.194
12912;170836;34.80;802;03.47.39.194
12892;170828;34.80;803;03.47.39.205
12892;170836;34.80;804;03.47.39.205
12896;170848;34.80;805;03.47.39.205
12888;170849;34.80;806;03.47.39.205
12944;170850;34.80;807;03.47.39.205
12904;170853;34.80;808;03.47.39.205
12928;170845;34.80;809;03.47.39.205
12860;170853;34.80;810;03.47.39.205
12884;170861;34.80;811;03.47.39.205
12928;170849;34.80;812;03.47.39.205
12896;170870;34.80;813;03.47.39.205
12904;170862;34.80;814;03.47.39.205
12892;170859;34.80;815;03.47.39.205
12916;170862;34.80;816;03.47.39.216
12928;170859;34.80;817;03.47.39.216
12920;170862;34.80;818;03.47.39.216
12932;170873;34.80;819;03.47.39.216
12916;170864;34.80;820;03.47.39.216
12876;170875;34.80;821;03.47.39.216
12916;170871;34.80;822;03.47.39.216
12928;170873;34.80;823;03.47.39.216
12904;170874;34.80;824;03.47.39.216
12940;170881;34.80;825;03.47.39.347
12896;170883;34.80;826;03.47.39.347
12908;170889;34.80;827;03.47.39.347
12908;170888;34.80;828;03.47.39.347
12912;170893;34.80;829;03.47.39.347
12892;170895;34.80;830;03.47.39.347
12912;170893;34.80;831;03.47.39.347
12908;170901;34.80;832;03.47.39.347
12904;170890;34.80;833;03.47.39.347
12904;170897;34.80;834;03.47.39.347
12892;170892;34.80;835;03.47.39.347
12896;170888;34.80;836;03.47.39.347
12908;170884;34.80;837;03.47.39.358
12924;170896;34.80;838;03.47.39.358
12896;170887;34.80;839;03.47.39.358
12912;170889;34.80;840;03.47.39.358
12912;170895;34.80;841;03.47.39.358
12944;170881;34.80;842;03.47.39.358
12896;170879;34.80;843;03.47.39.358
12912;170875;34.80;844;03.47.39.358
12896;170885;34.80;845;03.47.39.358
12904;170870;34.80;846;03.47.39.358
12896;170869;34.80;847;03.47.39.358
12900;170863;34.80;848;03.47.39.358
12944;170867;34.80;849;03.47.39.358
12896;170864;34.80;850;03.47.39.468
12912;170855;34.80;851;03.47.39.468
12920;170856;34.80;852;03.47.39.468
12912;170851;34.80;853;03.47.39.468
12908;170849;34.80;854;03.47.39.468
12936;170847;34.80;855;03.47.39.468
12900;170843;34.80;856;03.47.39.468
12928;170845;34.80;857;03.47.39.468
12912;170837;34.80;858;03.47.39.479
12904;170836;34.80;859;03.47.39.479
12896;170834;34.80;860;03.47.39.479
12904;170830;34.80;861;03.47.39.479
12912;170831;34.80;862;03.47.39.479
12896;170828;34.80;863;03.47.39.479
12896;170831;34.80;864;03.47.39.479
12892;170834;34.80;865;03.47.39.479
12912;170832;34.80;866;03.47.39.479
12908;170830;34.80;867;03.47.39.490
12880;170829;34.80;868;03.47.39.490
12908;170817;34.80;869;03.47.39.490
12904;170821;34.80;870;03.47.39.490
12888;170826;34.80;871;03.47.39.490
12912;170822;34.80;872;03.47.39.490
12904;170826;34.80;873;03.47.39.490
12892;170821;34.80;874;03.47.39.490
12892;170815;34.80;875;03.47.39.578
12908;170823;34.80;876;03.47.39.578
12868;170815;34.80;877;03.47.39.578
12888;170810;34.80;878;03.47.39.578
12892;170809;34.80;879;03.47.39.578
12928;170812;34.80;880;03.47.39.578
12904;170812;34.80;881;03.47.39.579
12884;170809;34.80;882;03.47.39.590
12916;170799;34.80;883;03.47.39.600
12888;170812;34.80;884;03.47.39.600
12928;170817;34.80;885;03.47.39.600
12884;170821;34.80;886;03.47.39.600
12892;170812;34.80;887;03.47.39.600
12920;170814;34.80;888;03.47.39.600
12892;170814;34.80;889;03.47.39.611
12900;170815;34.80;890;03.47.39.611
12908;170811;34.80;891;03.47.39.611
12896;170809;34.80;892;03.47.39.611
12908;170806;34.80;893;03.47.39.611
12904;170808;34.80;894;03.47.39.611
12900;170815;34.80;895;03.47.39.611
12932;170813;34.80;896;03.47.39.611
12892;170819;34.80;897;03.47.39.611
12904;170815;34.80;898;03.47.39.611
12932;170817;34.80;899;03.47.39.611
12892;170816;34.80;900;03.47.39.699
12928;170818;34.80;901;03.47.39.699
12896;170812;34.80;902;03.47.39.710
12904;170822;34.80;903;03.47.39.710
12892;170822;34.80;904;03.47.39.710
12944;170833;34.80;905;03.47.39.710
12928;170821;34.80;906;03.47.39.710
12888;170819;34.80;907;03.47.39.710
12908;170817;34.80;908;03.47.39.710
12892;170823;34.80;909;03.47.39.710
12924;170823;34.80;910;03.47.39.710
12944;170814;34.80;911;03.47.39.710
12900;170819;34.80;912;03.47.39.710
12892;170822;34.80;913;03.47.39.710
12924;170821;34.80;914;03.47.39.710
12904;170819;34.80;915;03.47.39.710
12912;170816;34.80;916;03.47.39.721
12940;170812;34.80;917;03.47.39.721
12924;170814;34.80;918;03.47.39.721
12892;170811;34.80;919;03.47.39.721
12904;170817;34.80;920;03.47.39.721
12928;170821;34.80;921;03.47.39.721
12928;170809;34.80;922;03.47.39.721
12916;170818;34.80;923;03.47.39.721
12896;170819;34.80;924;03.47.39.721
12880;170820;34.80;925;03.47.39.831
12904;170821;34.80;926;03.47.39.831
12908;170816;34.80;927;03.47.39.831
12908;170819;34.80;928;03.47.39.831
12888;170823;34.80;929;03.47.39.831
12928;170823;34.80;930;03.47.39.831
12908;170824;34.80;931;03.47.39.831
12928;170820;34.80;932;03.47.39.831
12932;170827;34.80;933;03.47.39.831
12912;170825;34.80;934;03.47.39.831
12912;170826;34.80;935;03.47.39.831
12908;170830;34.80;936;03.47.39.842
12928;170833;34.80;937;03.47.39.842
12912;170829;34.80;938;03.47.39.842
12928;170831;34.80;939;03.47.39.842
12916;170831;34.80;940;03.47.39.842
12904;170843;34.80;941;03.47.39.842
12908;170837;34.80;942;03.47.39.842
12900;170836;34.80;943;03.47.39.842
12904;170837;34.80;944;03.47.39.842
12928;170833;34.80;945;03.47.39.842
12908;170827;34.80;946;03.47.39.842
12908;170842;34.80;947;03.47.39.842
12928;170841;34.80;948;03.47.39.842
12928;170842;34.80;949;03.47.39.853
12920;170846;34.76;950;03.47.39.963
12892;170846;34.76;951;03.47.39.963
12884;170853;34.76;952;03.47.39.963
12920;170850;34.76;953;03.47.39.963
12916;170851;34.76;954;03.47.39.963
12904;170849;34.76;955;03.47.39.963
12920;170844;34.76;956;03.47.39.963
12920;170848;34.76;957;03.47.39.963
12888;170853;34.76;958;03.47.39.973
12904;170850;34.76;959;03.47.39.973
12932;170860;34.76;960;03.47.39.973
12920;170863;34.76;961;03.47.39.973
12908;170859;34.76;962;03.47.39.973
12944;170860;34.76;963;03.47.39.973
12892;170861;34.76;964;03.47.39.973
12900;170868;34.76;965;03.47.39.973
12892;170868;34.76;966;03.47.39.973
12896;170868;34.76;967;03.47.39.984
12888;170862;34.76;968;03.47.39.984
12884;170859;34.76;969;03.47.39.984
12912;170868;34.76;970;03.47.39.984
12908;170856;34.76;971;03.47.39.984
12892;170861;34.76;972;03.47.39.984
12892;170866;34.76;973;03.47.39.984
12904;170863;34.76;974;03.47.39.984
12896;170869;34.76;975;03.47.40.072
12908;170861;34.76;976;03.47.40.072
12908;170859;34.76;977;03.47.40.072
12928;170864;34.76;978;03.47.40.072
12912;170859;34.76;979;03.47.40.083
12936;170865;34.76;980;03.47.40.083
12928;170864;34.76;981;03.47.40.083
12928;170873;34.76;982;03.47.40.083
12888;170861;34.76;983;03.47.40.083
12932;170866;34.76;984;03.47.40.083
12892;170870;34.76;985;03.47.40.083
12896;170858;34.76;986;03.47.40.083
12904;170855;34.76;987;03.47.40.094
12896;170858;34.76;988;03.47.40.094
12892;170850;34.76;989;03.47.40.094
12904;170837;34.76;990;03.47.40.094
12900;170834;34.76;991;03.47.40.094
12920;170840;34.76;992;03.47.40.094
12892;170830;34.76;993;03.47.40.094
12904;170820;34.76;994;03.47.40.094
12908;170821;34.76;995;03.47.40.094
12928;170830;34.76;996;03.47.40.094
12904;170829;34.76;997;03.47.40.094
12900;170816;34.76;998;03.47.40.094
12912;170811;34.76;999;03.47.40.094
12904;170811;34.80;000;03.47.40.193
12892;170798;34.80;001;03.47.40.204
12932;170796;34.80;002;03.47.40.204
12892;170810;34.80;003;03.47.40.204
12928;170804;34.80;004;03.47.40.204
12936;170800;34.80;005;03.47.40.204
12944;170803;34.80;006;03.47.40.204
12916;170800;34.80;007;03.47.40.204
12872;170790;34.80;008;03.47.40.204
12856;170786;34.80;009;03.47.40.204
12904;170792;34.80;010;03.47.40.204
12892;170791;34.80;011;03.47.40.204
12896;170795;34.80;012;03.47.40.204
12908;170789;34.80;013;03.47.40.204
12912;170780;34.80;014;03.47.40.215
12908;170792;34.80;015;03.47.40.215
12904;170790;34.80;016;03.47.40.215
12908;170784;34.80;017;03.47.40.226
12896;170793;34.80;018;03.47.40.237
12908;170784;34.80;019;03.47.40.237
12900;170792;34.80;020;03.47.40.237
12904;170787;34.80;021;03.47.40.237
12920;170787;34.80;022;03.47.40.237
12904;170781;34.80;023;03.47.40.237
12908;170793;34.80;024;03.47.40.237
12928;170786;34.80;025;03.47.40.336
12880;170785;34.80;026;03.47.40.336
12912;170782;34.80;027;03.47.40.336
12904;170795;34.80;028;03.47.40.336
12920;170777;34.80;029;03.47.40.336
12892;170786;34.80;030;03.47.40.336
12892;170789;34.80;031;03.47.40.336
12896;170782;34.80;032;03.47.40.336
12892;170781;34.80;033;03.47.40.336
12892;170783;34.80;034;03.47.40.336
12928;170791;34.80;035;03.47.40.336
12944;170774;34.80;036;03.47.40.346
12908;170783;34.80;037;03.47.40.346
12932;170782;34.80;038;03.47.40.346
12904;170784;34.80;039;03.47.40.346
12960;170784;34.80;040;03.47.40.346
12928;170789;34.80;041;03.47.40.346
12928;170779;34.80;042;03.47.40.346
12908;170791;34.80;043;03.47.40.346
12892;170793;34.80;044;03.47.40.346
12912;170792;34.80;045;03.47.40.346
12904;170786;34.80;046;03.47.40.346
12892;170786;34.80;047;03.47.40.357
12908;170789;34.80;048;03.47.40.357
12904;170790;34.80;049;03.47.40.357
gsr; bvp; skt; skt2; Cont; time
12896;001308;33.76;600;03.57.05.666
12884;057537;33.76;601;03.57.05.666
12900;073937;33.76;602;03.57.05.666
12896;090356;33.76;603;03.57.05.677
12888;106696;33.76;604;03.57.05.677
12884;123083;33.76;605;03.57.05.677
12880;139470;33.76;606;03.57.05.677
12884;155885;33.76;607;03.57.05.677
12892;169438;33.76;608;03.57.05.677
12892;169159;33.76;609;03.57.05.677
12884;169156;33.76;610;03.57.05.677
12892;169145;33.76;611;03.57.05.688
12880;169138;33.76;612;03.57.05.688
12900;169135;33.76;613;03.57.05.688
12904;169139;33.76;614;03.57.05.688
12888;169136;33.76;615;03.57.05.688
12860;169130;33.76;616;03.57.05.688
12904;169130;33.76;617;03.57.05.688
12888;169129;33.76;618;03.57.05.688
12888;169125;33.76;619;03.57.05.688
12864;169122;33.76;620;03.57.05.688
12920;169125;33.76;621;03.57.05.699
12896;169118;33.76;622;03.57.05.699
12892;169122;33.76;623;03.57.05.699
12928;169125;33.76;624;03.57.05.699
12860;169122;33.76;625;03.57.05.796
12892;169113;33.76;626;03.57.05.796
12884;169118;33.76;627;03.57.05.796
12904;169108;33.76;628;03.57.05.796
12876;169113;33.76;629;03.57.05.796
12880;169105;33.76;630;03.57.05.796
12912;169114;33.76;631;03.57.05.796
12900;169106;33.76;632;03.57.05.796
12896;169108;33.76;633;03.57.05.796
12888;169106;33.76;634;03.57.05.796
12912;169106;33.76;635;03.57.05.796
12920;169107;33.76;636;03.57.05.807
12872;169111;33.76;637;03.57.05.807
12908;169106;33.76;638;03.57.05.807
12892;169114;33.76;639;03.57.05.807
12864;169102;33.76;640;03.57.05.807
12884;169104;33.76;641;03.57.05.807
12880;169106;33.76;642;03.57.05.807
12860;169099;33.76;643;03.57.05.807
12888;169100;33.76;644;03.57.05.807
12876;169102;33.76;645;03.57.05.807
12896;169092;33.76;646;03.57.05.807
12880;169100;33.76;647;03.57.05.807
12856;169088;33.76;648;03.57.05.807
12900;169083;33.76;649;03.57.05.818
12876;169087;33.76;650;03.57.05.916
12860;169083;33.76;651;03.57.05.916
12888;169087;33.76;652;03.57.05.916
12884;169069;33.76;653;03.57.05.916
12892;169078;33.76;654;03.57.05.916
12880;169075;33.76;655;03.57.05.916
12884;169058;33.76;656;03.57.05.927
12892;169042;33.76;657;03.57.05.927
12892;169033;33.76;658;03.57.05.927
12876;169030;33.76;659;03.57.05.927
12892;169041;33.76;660;03.57.05.927
12896;169036;33.76;661;03.57.05.927
12864;169036;33.76;662;03.57.05.927
12884;169036;33.76;663;03.57.05.927
12864;169032;33.76;664;03.57.05.927
12872;169041;33.76;665;03.57.05.927
12896;169046;33.76;666;03.57.05.927
12896;169036;33.76;667;03.57.05.927
12860;169043;33.76;668;03.57.05.927
12928;169032;33.76;669;03.57.05.938
12912;169021;33.76;670;03.57.05.938
12892;169013;33.76;671;03.57.05.938
12888;169007;33.76;672;03.57.05.938
12868;169008;33.76;673;03.57.05.938
12896;168991;33.76;674;03.57.05.938
12844;168990;33.76;675;03.57.06.046
12884;168988;33.76;676;03.57.06.057
12892;168978;33.76;677;03.57.06.057
12876;168967;33.76;678;03.57.06.057
12908;168967;33.76;679;03.57.06.057
12876;168959;33.76;680;03.57.06.057
12892;168956;33.76;681;03.57.06.057
12892;168952;33.76;682;03.57.06.057
12860;168950;33.76;683;03.57.06.057
12920;168942;33.76;684;03.57.06.057
12904;168936;33.76;685;03.57.06.057
12892;168949;33.76;686;03.57.06.057
12884;168945;33.76;687;03.57.06.057
12864;168944;33.76;688;03.57.06.057
12880;168954;33.76;689;03.57.06.069
12928;168948;33.76;690;03.57.06.069
12912;168960;33.76;691;03.57.06.069
12868;168947;33.76;692;03.57.06.069
12904;168948;33.76;693;03.57.06.069
12888;168956;33.76;694;03.57.06.069
12904;168956;33.76;695;03.57.06.069
12876;168955;33.76;696;03.57.06.069
12904;168958;33.76;697;03.57.06.069
12876;168952;33.76;698;03.57.06.069
12928;168955;33.76;699;03.57.06.069
12896;168962;33.76;700;03.57.06.168
12892;168968;33.76;701;03.57.06.168
12904;168993;33.76;702;03.57.06.168
12896;169014;33.76;703;03.57.06.168
12888;169048;33.76;704;03.57.06.168
12892;169079;33.76;705;03.57.06.168
12884;169132;33.76;706;03.57.06.168
12916;169182;33.76;707;03.57.06.168
12888;169239;33.76;708;03.57.06.178
12880;169307;33.76;709;03.57.06.178
12896;169364;33.76;710;03.57.06.178
12896;169420;33.76;711;03.57.06.178
12872;169482;33.76;712;03.57.06.178
12896;169540;33.76;713;03.57.06.178
12912;169577;33.76;714;03.57.06.178
12900;169625;33.76;715;03.57.06.178
12884;169659;33.76;716;03.57.06.178
12896;169686;33.76;717;03.57.06.178
12896;169720;33.76;718;03.57.06.189
12912;169746;33.76;719;03.57.06.189
12872;169752;33.76;720;03.57.06.189
12880;169772;33.76;721;03.57.06.189
12912;169785;33.76;722;03.57.06.189
12896;169800;33.76;723;03.57.06.189
12908;169812;33.76;724;03.57.06.189
12876;169821;33.76;725;03.57.06.286
12880;169828;33.76;726;03.57.06.286
12872;169835;33.76;727;03.57.06.286
12868;169832;33.76;728;03.57.06.286
12872;169836;33.76;729;03.57.06.286
12892;169835;33.76;730;03.57.06.297
12892;169821;33.76;731;03.57.06.297
12884;169827;33.76;732;03.57.06.297
12928;169824;33.76;733;03.57.06.297
12888;169825;33.76;734;03.57.06.297
12896;169821;33.76;735;03.57.06.297
12880;169811;33.76;736;03.57.06.297
12892;169803;33.76;737;03.57.06.297
12896;169798;33.76;738;03.57.06.297
12884;169786;33.76;739;03.57.06.297
12904;169768;33.76;740;03.57.06.297
12884;169755;33.76;741;03.57.06.297
12912;169740;33.76;742;03.57.06.319
12868;169725;33.76;743;03.57.06.319
12884;169713;33.76;744;03.57.06.319
12912;169689;33.76;745;03.57.06.319
12900;169675;33.76;746;03.57.06.319
12880;169652;33.76;747;03.57.06.319
12872;169641;33.76;748;03.57.06.330
12876;169622;33.76;749;03.57.06.330
12888;169599;33.76;750;03.57.06.418
12856;169594;33.76;751;03.57.06.418
12896;169571;33.76;752;03.57.06.418
12892;169566;33.76;753;03.57.06.418
12912;169550;33.76;754;03.57.06.418
12916;169545;33.76;755;03.57.06.418
12876;169527;33.76;756;03.57.06.418
12892;169519;33.76;757;03.57.06.418
12904;169507;33.76;758;03.57.06.418
12892;169498;33.76;759;03.57.06.418
12876;169495;33.76;760;03.57.06.418
12876;169487;33.76;761;03.57.06.418
12896;169483;33.76;762;03.57.06.418
12884;169476;33.76;763;03.57.06.418
12872;169463;33.76;764;03.57.06.429
12880;169460;33.76;765;03.57.06.429
12884;169458;33.76;766;03.57.06.429
12872;169453;33.76;767;03.57.06.429
12884;169453;33.76;768;03.57.06.429
12880;169456;33.76;769;03.57.06.429
12868;169461;33.76;770;03.57.06.429
12896;169446;33.76;771;03.57.06.429
12848;169460;33.76;772;03.57.06.429
12896;169467;33.76;773;03.57.06.429
12912;169464;33.76;774;03.57.06.429
12872;169457;33.76;775;03.57.06.560
12888;169459;33.76;776;03.57.06.560
12892;169463;33.76;777;03.57.06.560
12876;169471;33.76;778;03.57.06.560
12884;169482;33.76;779;03.57.06.560
12884;169477;33.76;780;03.57.06.560
12912;169484;33.76;781;03.57.06.560
12912;169493;33.76;782;03.57.06.560
12912;169487;33.76;783;03.57.06.560
12868;169490;33.76;784;03.57.06.560
12880;169481;33.76;785;03.57.06.560
12892;169489;33.76;786;03.57.06.571
12884;169489;33.76;787;03.57.06.571
12892;169495;33.76;788;03.57.06.571
12888;169486;33.76;789;03.57.06.571
12900;169487;33.76;790;03.57.06.571
12892;169490;33.76;791;03.57.06.571
12876;169487;33.76;792;03.57.06.571
12896;169473;33.76;793;03.57.06.571
12880;169462;33.76;794;03.57.06.571
12904;169466;33.76;795;03.57.06.571
12876;169467;33.76;796;03.57.06.571
12904;169469;33.76;797;03.57.06.571
12900;169459;33.76;798;03.57.06.582
12884;169465;33.76;799;03.57.06.582
12904;169461;33.76;800;03.57.06.681
12880;169462;33.76;801;03.57.06.681
12884;169453;33.76;802;03.57.06.681
12884;169464;33.76;803;03.57.06.681
12896;169461;33.76;804;03.57.06.681
12908;169473;33.76;805;03.57.06.681
12896;169472;33.76;806;03.57.06.681
12860;169473;33.76;807;03.57.06.692
12904;169472;33.76;808;03.57.06.692
12884;169481;33.76;809;03.57.06.692
12908;169476;33.76;810;03.57.06.692
12888;169484;33.76;811;03.57.06.692
12872;169485;33.76;812;03.57.06.692
12912;169498;33.76;813;03.57.06.692
12896;169511;33.76;814;03.57.06.692
12876;169518;33.76;815;03.57.06.692
12884;169529;33.76;816;03.57.06.692
12876;169531;33.76;817;03.57.06.692
12860;169549;33.76;818;03.57.06.692
12880;169551;33.76;819;03.57.06.703
12896;169573;33.76;820;03.57.06.703
12896;169590;33.76;821;03.57.06.703
12852;169616;33.76;822;03.57.06.703
12896;169643;33.76;823;03.57.06.703
12920;169669;33.76;824;03.57.06.703
12900;169692;33.76;825;03.57.06.790
12868;169715;33.76;826;03.57.06.790
12888;169743;33.76;827;03.57.06.801
12892;169779;33.76;828;03.57.06.801
12896;169792;33.76;829;03.57.06.801
12904;169804;33.76;830;03.57.06.801
12888;169847;33.76;831;03.57.06.801
12876;169857;33.76;832;03.57.06.801
12880;169882;33.76;833;03.57.06.801
12856;169901;33.76;834;03.57.06.801
12928;169927;33.76;835;03.57.06.801
12876;169952;33.76;836;03.57.06.801
12892;169987;33.76;837;03.57.06.811
12892;170022;33.76;838;03.57.06.811
12888;170057;33.76;839;03.57.06.811
12888;170098;33.76;840;03.57.06.811
12884;170139;33.76;841;03.57.06.811
12896;170169;33.76;842;03.57.06.811
12888;170197;33.76;843;03.57.06.811
12876;170229;33.76;844;03.57.06.823
12896;170254;33.76;845;03.57.06.823
12864;170291;33.76;846;03.57.06.823
12896;170324;33.76;847;03.57.06.823
12884;170345;33.76;848;03.57.06.823
12900;170378;33.76;849;03.57.06.823
12880;170406;33.76;850;03.57.06.921
12872;170433;33.76;851;03.57.06.921
12888;170464;33.76;852;03.57.06.921
12860;170483;33.76;853;03.57.06.921
12904;170507;33.76;854;03.57.06.921
12892;170528;33.76;855;03.57.06.921
12880;170544;33.76;856;03.57.06.921
12888;170561;33.76;857;03.57.06.921
12892;170585;33.76;858;03.57.06.921
12880;170592;33.76;859;03.57.06.921
12904;170626;33.76;860;03.57.06.921
12904;170647;33.76;861;03.57.06.921
12892;170665;33.76;862;03.57.06.932
12876;170696;33.76;863;03.57.06.932
12876;170717;33.76;864;03.57.06.932
12896;170732;33.76;865;03.57.06.932
12888;170753;33.76;866;03.57.06.932
12900;170776;33.76;867;03.57.06.932
12892;170778;33.76;868;03.57.06.932
12912;170799;33.76;869;03.57.06.932
12888;170813;33.76;870;03.57.06.932
12900;170840;33.76;871;03.57.06.932
12856;170852;33.76;872;03.57.06.932
12908;170871;33.76;873;03.57.06.932
12880;170885;33.76;874;03.57.06.944
12876;170894;33.76;875;03.57.07.042
12872;170903;33.76;876;03.57.07.042
12872;170919;33.76;877;03.57.07.042
12912;170925;33.76;878;03.57.07.042
12872;170947;33.76;879;03.57.07.042
12896;170955;33.76;880;03.57.07.042
12912;170976;33.76;881;03.57.07.042
12896;170990;33.76;882;03.57.07.042
12892;171003;33.76;883;03.57.07.053
12888;171011;33.76;884;03.57.07.053
12920;171014;33.76;885;03.57.07.053
12892;171033;33.76;886;03.57.07.053
12888;171035;33.76;887;03.57.07.053
12900;171034;33.76;888;03.57.07.053
12896;171041;33.76;889;03.57.07.053
12928;171033;33.76;890;03.57.07.053
12880;171029;33.76;891;03.57.07.053
12880;171025;33.76;892;03.57.07.053
12860;171021;33.76;893;03.57.07.053
12916;171011;33.76;894;03.57.07.053
12880;171014;33.76;895;03.57.07.053
12880;171007;33.76;896;03.57.07.064
12860;171018;33.76;897;03.57.07.064
12904;171012;33.76;898;03.57.07.064
12916;171013;33.76;899;03.57.07.064
12876;171012;33.76;900;03.57.07.173
12888;171010;33.76;901;03.57.07.173
12908;171005;33.76;902;03.57.07.184
12884;171000;33.76;903;03.57.07.184
12888;170997;33.76;904;03.57.07.184
12892;170993;33.76;905;03.57.07.184
12884;170972;33.76;906;03.57.07.184
12928;170966;33.76;907;03.57.07.184
12864;170953;33.76;908;03.57.07.184
12868;170944;33.76;909;03.57.07.184
12904;170926;33.76;910;03.57.07.184
12924;170907;33.76;911;03.57.07.184
12860;170896;33.76;912;03.57.07.184
12884;170867;33.76;913;03.57.07.184
12892;170834;33.76;914;03.57.07.184
12868;170808;33.76;915;03.57.07.194
12892;170791;33.76;916;03.57.07.194
12912;170759;33.76;917;03.57.07.194
12912;170731;33.76;918;03.57.07.194
12900;170697;33.76;919;03.57.07.194
12916;170683;33.76;920;03.57.07.194
12888;170659;33.76;921;03.57.07.194
12864;170653;33.76;922;03.57.07.194
12876;170659;33.76;923;03.57.07.194
12928;170649;33.76;924;03.57.07.194
12888;170652;33.76;925;03.57.07.292
12880;170644;33.76;926;03.57.07.292
12928;170645;33.76;927;03.57.07.292
12884;170642;33.76;928;03.57.07.292
12916;170642;33.76;929;03.57.07.292
12904;170637;33.76;930;03.57.07.292
12896;170640;33.76;931;03.57.07.292
12908;170638;33.76;932;03.57.07.292
12904;170650;33.76;933;03.57.07.303
12896;170650;33.76;934;03.57.07.303
12884;170651;33.76;935;03.57.07.303
12868;170660;33.76;936;03.57.07.303
12880;170655;33.76;937;03.57.07.303
12912;170664;33.76;938;03.57.07.303
12912;170669;33.76;939;03.57.07.303
12908;170668;33.76;940;03.57.07.303
12904;170672;33.76;941;03.57.07.303
12900;170676;33.76;942;03.57.07.303
12856;170674;33.76;943;03.57.07.314
12892;170678;33.76;944;03.57.07.314
12904;170674;33.76;945;03.57.07.314
12896;170675;33.76;946;03.57.07.314
12880;170674;33.76;947;03.57.07.314
12892;170684;33.76;948;03.57.07.314
12908;170681;33.76;949;03.57.07.314
12896;170682;33.76;950;03.57.07.413
12884;170679;33.76;951;03.57.07.413
12868;170681;33.76;952;03.57.07.413
12916;170686;33.76;953;03.57.07.413
12880;170679;33.76;954;03.57.07.413
12896;170671;33.76;955;03.57.07.413
12872;170671;33.76;956;03.57.07.413
12876;170666;33.76;957;03.57.07.424
12884;170655;33.76;958;03.57.07.424
12884;170651;33.76;959;03.57.07.424
12860;170650;33.76;960;03.57.07.424
12872;170651;33.76;961;03.57.07.424
12892;170656;33.76;962;03.57.07.424
12884;170659;33.76;963;03.57.07.424
12928;170673;33.76;964;03.57.07.424
12884;170682;33.76;965;03.57.07.424
12852;170696;33.76;966;03.57.07.435
12896;170704;33.76;967;03.57.07.446
12868;170727;33.76;968;03.57.07.446
12896;170740;33.76;969;03.57.07.446
12896;170760;33.76;970;03.57.07.446
12852;170781;33.76;971;03.57.07.446
12884;170811;33.76;972;03.57.07.446
12912;170834;33.76;973;03.57.07.446
12900;170858;33.76;974;03.57.07.457
