gsr; bvp; skt; skt2; Cont; time
12908;001270;34.60;150;03.29.04.683
12904;057573;34.60;151;03.29.04.683
12888;073959;34.60;152;03.29.04.683
12904;090332;34.60;153;03.29.04.683
12960;106718;34.60;154;03.29.04.683
12908;123089;34.60;155;03.29.04.683
12920;139500;34.60;156;03.29.04.683
12892;155841;34.60;157;03.29.04.683
12904;172297;34.60;158;03.29.04.705
12896;172739;34.60;159;03.29.04.705
12908;172743;34.60;160;03.29.04.705
12900;172737;34.60;161;03.29.04.705
12924;172730;34.60;162;03.29.04.705
12924;172734;34.60;163;03.29.04.705
12928;172737;34.60;164;03.29.04.705
12904;172732;34.60;165;03.29.04.705
12908;172732;34.60;166;03.29.04.705
12904;172730;34.60;167;03.29.04.705
12892;172736;34.60;168;03.29.04.705
12928;172728;34.60;169;03.29.04.705
12908;172728;34.60;170;03.29.04.716
12932;172726;34.60;171;03.29.04.716
12912;172722;34.60;172;03.29.04.716
12932;172721;34.60;173;03.29.04.716
12936;172731;34.60;174;03.29.04.716
12912;172721;34.60;175;03.29.04.804
12912;172720;34.60;176;03.29.04.804
12912;172719;34.60;177;03.29.04.804
12892;172726;34.60;178;03.29.04.804
12936;172723;34.60;179;03.29.04.804
12904;172721;34.60;180;03.29.04.804
12912;172715;34.60;181;03.29.04.804
12876;172707;34.60;182;03.29.04.804
12924;172711;34.60;183;03.29.04.814
12908;172708;34.60;184;03.29.04.814
12936;172706;34.60;185;03.29.04.814
12892;172706;34.60;186;03.29.04.814
12900;172718;34.60;187;03.29.04.814
12928;172707;34.60;188;03.29.04.814
12912;172719;34.60;189;03.29.04.814
12904;172719;34.60;190;03.29.04.814
12896;172715;34.60;191;03.29.04.814
12928;172712;34.60;192;03.29.04.814
12932;172713;34.60;193;03.29.04.814
12920;172707;34.60;194;03.29.04.825
12924;172706;34.60;195;03.29.04.825
12912;172715;34.60;196;03.29.04.825
12888;172722;34.60;197;03.29.04.825
12884;172714;34.60;198;03.29.04.825
12916;172708;34.60;199;03.29.04.825
12904;172714;34.56;200;03.29.04.923
12884;172713;34.56;201;03.29.04.923
12928;172717;34.56;202;03.29.04.934
12916;172719;34.56;203;03.29.04.934
12928;172721;34.56;204;03.29.04.934
12928;172721;34.56;205;03.29.04.934
12900;172710;34.56;206;03.29.04.934
12908;172713;34.56;207;03.29.04.934
12916;172708;34.56;208;03.29.04.934
12916;172718;34.56;209;03.29.04.934
12924;172725;34.56;210;03.29.04.934
12884;172715;34.56;211;03.29.04.934
12884;172718;34.56;212;03.29.04.934
12892;172715;34.56;213;03.29.04.934
12896;172726;34.56;214;03.29.04.934
12928;172725;34.56;215;03.29.04.945
12904;172729;34.56;216;03.29.04.945
12944;172724;34.56;217;03.29.04.945
12924;172724;34.56;218;03.29.04.945
12940;172724;34.56;219;03.29.04.945
12900;172721;34.56;220;03.29.04.945
12932;172716;34.56;221;03.29.04.945
12928;172711;34.56;222;03.29.04.945
12912;172709;34.56;223;03.29.04.945
12944;172700;34.56;224;03.29.04.945
12904;172702;34.56;225;03.29.05.088
12912;172693;34.56;226;03.29.05.088
12924;172688;34.56;227;03.29.05.088
12912;172690;34.56;228;03.29.05.088
12900;172682;34.56;229;03.29.05.088
12928;172673;34.56;230;03.29.05.088
12944;172669;34.56;231;03.29.05.088
12896;172669;34.56;232;03.29.05.088
12928;172664;34.56;233;03.29.05.099
12920;172663;34.56;234;03.29.05.099
12928;172663;34.56;235;03.29.05.099
12900;172654;34.56;236;03.29.05.099
12928;172654;34.56;237;03.29.05.099
12924;172658;34.56;238;03.29.05.099
12928;172653;34.56;239;03.29.05.099
12892;172647;34.56;240;03.29.05.099
12888;172650;34.56;241;03.29.05.099
12928;172647;34.56;242;03.29.05.099
12900;172644;34.56;243;03.29.05.110
12928;172648;34.56;244;03.29.05.110
12896;172650;34.56;245;03.29.05.110
12904;172641;34.56;246;03.29.05.110
12884;172648;34.56;247;03.29.05.110
12912;172644;34.56;248;03.29.05.110
12920;172634;34.56;249;03.29.05.110
12916;172643;34.60;250;03.29.05.175
12936;172646;34.60;251;03.29.05.175
12928;172637;34.60;252;03.29.05.175
12912;172645;34.60;253;03.29.05.175
12912;172638;34.60;254;03.29.05.175
12904;172645;34.60;255;03.29.05.175
12924;172648;34.60;256;03.29.05.175
12904;172632;34.60;257;03.29.05.186
12928;172647;34.60;258;03.29.05.197
12908;172647;34.60;259;03.29.05.197
12920;172642;34.60;260;03.29.05.197
12904;172635;34.60;261;03.29.05.197
12900;172646;34.60;262;03.29.05.197
12924;172640;34.60;263;03.29.05.197
12924;172647;34.60;264;03.29.05.197
12952;172640;34.60;265;03.29.05.197
12900;172640;34.60;266;03.29.05.208
12944;172654;34.60;267;03.29.05.208
12908;172640;34.60;268;03.29.05.208
12928;172639;34.60;269;03.29.05.208
12892;172649;34.60;270;03.29.05.208
12916;172640;34.60;271;03.29.05.208
12892;172649;34.60;272;03.29.05.208
12904;172640;34.60;273;03.29.05.208
12924;172652;34.60;274;03.29.05.208
12912;172645;34.60;275;03.29.05.296
12908;172640;34.60;276;03.29.05.296
12912;172653;34.60;277;03.29.05.296
12948;172643;34.60;278;03.29.05.297
12924;172646;34.60;279;03.29.05.297
12928;172645;34.60;280;03.29.05.298
12912;172645;34.60;281;03.29.05.308
12884;172636;34.60;282;03.29.05.308
12904;172645;34.60;283;03.29.05.308
12888;172645;34.60;284;03.29.05.308
12924;172646;34.60;285;03.29.05.308
12912;172636;34.60;286;03.29.05.308
12924;172641;34.60;287;03.29.05.308
12892;172633;34.60;288;03.29.05.308
12928;172635;34.60;289;03.29.05.308
12916;172627;34.60;290;03.29.05.308
12904;172626;34.60;291;03.29.05.308
12912;172633;34.60;292;03.29.05.308
12912;172629;34.60;293;03.29.05.319
12916;172627;34.60;294;03.29.05.319
12928;172633;34.60;295;03.29.05.319
12904;172621;34.60;296;03.29.05.319
12908;172625;34.60;297;03.29.05.319
12940;172628;34.60;298;03.29.05.319
12932;172626;34.60;299;03.29.05.319
12908;172622;34.60;300;03.29.05.418
12916;172615;34.60;301;03.29.05.418
12920;172623;34.60;302;03.29.05.429
12932;172617;34.60;303;03.29.05.429
12932;172629;34.60;304;03.29.05.429
12912;172619;34.60;305;03.29.05.429
12960;172616;34.60;306;03.29.05.429
12928;172620;34.60;307;03.29.05.429
12904;172621;34.60;308;03.29.05.429
12900;172620;34.60;309;03.29.05.429
12904;172620;34.60;310;03.29.05.429
12900;172624;34.60;311;03.29.05.429
12920;172620;34.60;312;03.29.05.429
12904;172614;34.60;313;03.29.05.429
12912;172623;34.60;314;03.29.05.440
12928;172619;34.60;315;03.29.05.440
12928;172630;34.60;316;03.29.05.440
12928;172618;34.60;317;03.29.05.440
12888;172625;34.60;318;03.29.05.440
12896;172626;34.60;319;03.29.05.440
12904;172618;34.60;320;03.29.05.440
12912;172624;34.60;321;03.29.05.440
12896;172625;34.60;322;03.29.05.440
12912;172617;34.60;323;03.29.05.440
12932;172621;34.60;324;03.29.05.440
12892;172628;34.60;325;03.29.05.560
12896;172631;34.60;326;03.29.05.560
12924;172615;34.60;327;03.29.05.560
12900;172636;34.60;328;03.29.05.560
12912;172630;34.60;329;03.29.05.560
12892;172630;34.60;330;03.29.05.560
12920;172624;34.60;331;03.29.05.560
12892;172640;34.60;332;03.29.05.560
12928;172635;34.60;333;03.29.05.560
12912;172629;34.60;334;03.29.05.560
12920;172638;34.60;335;03.29.05.571
12908;172642;34.60;336;03.29.05.571
12908;172639;34.60;337;03.29.05.571
12888;172633;34.60;338;03.29.05.571
12936;172642;34.60;339;03.29.05.571
12912;172642;34.60;340;03.29.05.571
12928;172637;34.60;341;03.29.05.571
12944;172636;34.60;342;03.29.05.582
12908;172644;34.60;343;03.29.05.582
12900;172646;34.60;344;03.29.05.582
12904;172647;34.60;345;03.29.05.582
12908;172650;34.60;346;03.29.05.582
12904;172639;34.60;347;03.29.05.582
12928;172647;34.60;348;03.29.05.582
12904;172646;34.60;349;03.29.05.582
12928;172649;34.60;350;03.29.05.692
12888;172647;34.60;351;03.29.05.692
12924;172639;34.60;352;03.29.05.692
12904;172637;34.60;353;03.29.05.692
12920;172659;34.60;354;03.29.05.692
12884;172652;34.60;355;03.29.05.692
12896;172648;34.60;356;03.29.05.692
12924;172648;34.60;357;03.29.05.703
12928;172647;34.60;358;03.29.05.703
12928;172645;34.60;359;03.29.05.703
12916;172647;34.60;360;03.29.05.703
12908;172639;34.60;361;03.29.05.703
12916;172641;34.60;362;03.29.05.703
12876;172643;34.60;363;03.29.05.703
12920;172634;34.60;364;03.29.05.703
12920;172628;34.60;365;03.29.05.703
12932;172625;34.60;366;03.29.05.703
12896;172623;34.60;367;03.29.05.703
12904;172626;34.60;368;03.29.05.703
12900;172612;34.60;369;03.29.05.714
12912;172609;34.60;370;03.29.05.714
12924;172602;34.60;371;03.29.05.714
12920;172605;34.60;372;03.29.05.714
12912;172598;34.60;373;03.29.05.714
12936;172592;34.60;374;03.29.05.714
12900;172592;34.60;375;03.29.05.802
12908;172588;34.60;376;03.29.05.802
12920;172575;34.60;377;03.29.05.802
12916;172573;34.60;378;03.29.05.813
12912;172563;34.60;379;03.29.05.813
12948;172566;34.60;380;03.29.05.813
12928;172559;34.60;381;03.29.05.813
12924;172559;34.60;382;03.29.05.813
12900;172552;34.60;383;03.29.05.824
12900;172555;34.60;384;03.29.05.824
12912;172554;34.60;385;03.29.05.824
12920;172546;34.60;386;03.29.05.835
12928;172548;34.60;387;03.29.05.835
12904;172544;34.60;388;03.29.05.835
12892;172547;34.60;389;03.29.05.835
12924;172541;34.60;390;03.29.05.835
12908;172540;34.60;391;03.29.05.835
12904;172539;34.60;392;03.29.05.835
12900;172541;34.60;393;03.29.05.835
12908;172540;34.60;394;03.29.05.835
12924;172542;34.60;395;03.29.05.835
12916;172538;34.60;396;03.29.05.835
12932;172544;34.60;397;03.29.05.835
12908;172546;34.60;398;03.29.05.835
12920;172539;34.60;399;03.29.05.845
12900;172545;34.56;400;03.29.05.933
12912;172543;34.56;401;03.29.05.933
12900;172539;34.56;402;03.29.05.933
12924;172542;34.56;403;03.29.05.933
12936;172538;34.56;404;03.29.05.933
12944;172538;34.56;405;03.29.05.933
12928;172548;34.56;406;03.29.05.933
12920;172539;34.56;407;03.29.05.933
12892;172548;34.56;408;03.29.05.944
12928;172544;34.56;409;03.29.05.944
12932;172541;34.56;410;03.29.05.944
12912;172540;34.56;411;03.29.05.944
12896;172550;34.56;412;03.29.05.944
12896;172546;34.56;413;03.29.05.944
12860;172548;34.56;414;03.29.05.944
12932;172551;34.56;415;03.29.05.944
12892;172552;34.56;416;03.29.05.944
12920;172549;34.56;417;03.29.05.966
12900;172550;34.56;418;03.29.05.966
12908;172546;34.56;419;03.29.05.966
12908;172552;34.56;420;03.29.05.966
12928;172547;34.56;421;03.29.05.966
12920;172545;34.56;422;03.29.05.966
12912;172545;34.56;423;03.29.05.966
12960;172539;34.56;424;03.29.05.966
12928;172536;34.56;425;03.29.06.054
12924;172542;34.56;426;03.29.06.054
12932;172542;34.56;427;03.29.06.054
12904;172540;34.56;428;03.29.06.054
12928;172541;34.56;429;03.29.06.054
12936;172533;34.56;430;03.29.06.054
12928;172541;34.56;431;03.29.06.054
12900;172535;34.56;432;03.29.06.054
12944;172533;34.56;433;03.29.06.054
12896;172535;34.56;434;03.29.06.065
12908;172539;34.56;435;03.29.06.065
12904;172534;34.56;436;03.29.06.065
12916;172532;34.56;437;03.29.06.065
12912;172538;34.56;438;03.29.06.065
12892;172543;34.56;439;03.29.06.065
12916;172534;34.56;440;03.29.06.065
12908;172530;34.56;441;03.29.06.065
12936;172531;34.56;442;03.29.06.065
12900;172531;34.56;443;03.29.06.065
12908;172531;34.56;444;03.29.06.065
12908;172523;34.56;445;03.29.06.065
12896;172523;34.56;446;03.29.06.065
12908;172529;34.56;447;03.29.06.076
12880;172530;34.56;448;03.29.06.076
12912;172526;34.56;449;03.29.06.076
12928;172531;34.56;450;03.29.06.186
12912;172525;34.56;451;03.29.06.186
12892;172528;34.56;452;03.29.06.186
12944;172526;34.56;453;03.29.06.186
12928;172533;34.56;454;03.29.06.186
12892;172523;34.56;455;03.29.06.197
12892;172524;34.56;456;03.29.06.197
12892;172523;34.56;457;03.29.06.197
12912;172525;34.56;458;03.29.06.197
12944;172527;34.56;459;03.29.06.197
12916;172524;34.56;460;03.29.06.197
12916;172520;34.56;461;03.29.06.197
12944;172522;34.56;462;03.29.06.197
12908;172535;34.56;463;03.29.06.197
12936;172524;34.56;464;03.29.06.197
12924;172528;34.56;465;03.29.06.197
12924;172524;34.56;466;03.29.06.197
12916;172528;34.56;467;03.29.06.208
12908;172525;34.56;468;03.29.06.208
12924;172529;34.56;469;03.29.06.208
12908;172525;34.56;470;03.29.06.208
12888;172537;34.56;471;03.29.06.208
12920;172526;34.56;472;03.29.06.208
12960;172521;34.56;473;03.29.06.208
12892;172530;34.56;474;03.29.06.208
12920;172531;34.56;475;03.29.06.295
12888;172537;34.56;476;03.29.06.306
12896;172533;34.56;477;03.29.06.306
12908;172533;34.56;478;03.29.06.306
12924;172533;34.56;479;03.29.06.306
12892;172535;34.56;480;03.29.06.306
12900;172542;34.56;481;03.29.06.306
12924;172531;34.56;482;03.29.06.306
12928;172546;34.56;483;03.29.06.317
12912;172546;34.56;484;03.29.06.317
12916;172552;34.56;485;03.29.06.317
12892;172553;34.56;486;03.29.06.317
12916;172550;34.56;487;03.29.06.317
12896;172544;34.56;488;03.29.06.317
12960;172553;34.56;489;03.29.06.317
12940;172546;34.56;490;03.29.06.317
12936;172556;34.56;491;03.29.06.317
12908;172559;34.56;492;03.29.06.317
12904;172558;34.56;493;03.29.06.328
12900;172558;34.56;494;03.29.06.328
12928;172556;34.56;495;03.29.06.328
12916;172553;34.56;496;03.29.06.328
12920;172560;34.56;497;03.29.06.328
12892;172560;34.56;498;03.29.06.328
12936;172564;34.56;499;03.29.06.328
12924;172559;34.60;500;03.29.06.437
12908;172561;34.60;501;03.29.06.437
12912;172556;34.60;502;03.29.06.437
12884;172555;34.60;503;03.29.06.437
12908;172549;34.60;504;03.29.06.437
12920;172550;34.60;505;03.29.06.437
12916;172547;34.60;506;03.29.06.437
12892;172541;34.60;507;03.29.06.437
12904;172529;34.60;508;03.29.06.448
12916;172536;34.60;509;03.29.06.448
12904;172534;34.60;510;03.29.06.448
12920;172531;34.60;511;03.29.06.448
12892;172524;34.60;512;03.29.06.448
12904;172516;34.60;513;03.29.06.448
12904;172519;34.60;514;03.29.06.448
12920;172513;34.60;515;03.29.06.448
12928;172509;34.60;516;03.29.06.448
12884;172509;34.60;517;03.29.06.459
12908;172509;34.60;518;03.29.06.459
12892;172510;34.60;519;03.29.06.459
12876;172503;34.60;520;03.29.06.459
12916;172501;34.60;521;03.29.06.459
12912;172499;34.60;522;03.29.06.459
12888;172488;34.60;523;03.29.06.459
12908;172501;34.60;524;03.29.06.459
12908;172486;34.60;525;03.29.06.547
12928;172488;34.60;526;03.29.06.547
12908;172484;34.60;527;03.29.06.547
12904;172488;34.60;528;03.29.06.547
12916;172485;34.60;529;03.29.06.547
12932;172482;34.60;530;03.29.06.547
12908;172489;34.60;531;03.29.06.547
12932;172489;34.60;532;03.29.06.558
12908;172483;34.60;533;03.29.06.558
12912;172477;34.60;534;03.29.06.558
12928;172481;34.60;535;03.29.06.558
12872;172473;34.60;536;03.29.06.558
12920;172473;34.60;537;03.29.06.558
12916;172477;34.60;538;03.29.06.558
12892;172468;34.60;539;03.29.06.558
12912;172468;34.60;540;03.29.06.558
12936;172473;34.60;541;03.29.06.558
12928;172469;34.60;542;03.29.06.569
12908;172477;34.60;543;03.29.06.569
12908;172468;34.60;544;03.29.06.569
12936;172466;34.60;545;03.29.06.569
12900;172459;34.60;546;03.29.06.569
12936;172458;34.60;547;03.29.06.569
12928;172467;34.60;548;03.29.06.569
12920;172459;34.60;549;03.29.06.580
12928;172460;34.60;550;03.29.06.679
12928;172464;34.60;551;03.29.06.679
12920;172473;34.60;552;03.29.06.690
12948;172473;34.60;553;03.29.06.690
12920;172475;34.60;554;03.29.06.690
12944;172466;34.60;555;03.29.06.690
12928;172473;34.60;556;03.29.06.690
12888;172463;34.60;557;03.29.06.690
12932;172456;34.60;558;03.29.06.690
12916;172460;34.60;559;03.29.06.690
12904;172474;34.60;560;03.29.06.690
12916;172462;34.60;561;03.29.06.690
12920;172471;34.60;562;03.29.06.690
12920;172468;34.60;563;03.29.06.690
12912;172464;34.60;564;03.29.06.690
12912;172466;34.60;565;03.29.06.690
12892;172463;34.60;566;03.29.06.701
12892;172461;34.60;567;03.29.06.701
12944;172468;34.60;568;03.29.06.701
12896;172467;34.60;569;03.29.06.701
12932;172466;34.60;570;03.29.06.701
12920;172467;34.60;571;03.29.06.701
12908;172465;34.60;572;03.29.06.701
12924;172472;34.60;573;03.29.06.701
12944;172470;34.60;574;03.29.06.701
12884;172468;34.60;575;03.29.06.820
12908;172466;34.60;576;03.29.06.820
12928;172473;34.60;577;03.29.06.820
12892;172452;34.60;578;03.29.06.820
12892;172473;34.60;579;03.29.06.820
12916;172471;34.60;580;03.29.06.820
12904;172465;34.60;581;03.29.06.820
12932;172472;34.60;582;03.29.06.820
12888;172473;34.60;583;03.29.06.820
12900;172475;34.60;584;03.29.06.820
12944;172474;34.60;585;03.29.06.820
12896;172473;34.60;586;03.29.06.831
12928;172473;34.60;587;03.29.06.831
12908;172465;34.60;588;03.29.06.831
12936;172479;34.60;589;03.29.06.831
12908;172476;34.60;590;03.29.06.831
12908;172473;34.60;591;03.29.06.831
12892;172473;34.60;592;03.29.06.831
12928;172472;34.60;593;03.29.06.831
12892;172468;34.60;594;03.29.06.831
12912;172473;34.60;595;03.29.06.831
12912;172466;34.60;596;03.29.06.831
12892;172471;34.60;597;03.29.06.831
12912;172476;34.60;598;03.29.06.831
12936;172472;34.60;599;03.29.06.842
12908;172480;34.60;600;03.29.06.930
12928;172476;34.60;601;03.29.06.930
12912;172473;34.60;602;03.29.06.930
12928;172479;34.60;603;03.29.06.930
12936;172488;34.60;604;03.29.06.930
12892;172490;34.60;605;03.29.06.930
12928;172489;34.60;606;03.29.06.930
12904;172487;34.60;607;03.29.06.941
12916;172490;34.60;608;03.29.06.941
12920;172492;34.60;609;03.29.06.941
12904;172495;34.60;610;03.29.06.941
12888;172493;34.60;611;03.29.06.941
12908;172488;34.60;612;03.29.06.941
12928;172493;34.60;613;03.29.06.941
12892;172483;34.60;614;03.29.06.941
12936;172499;34.60;615;03.29.06.941
12908;172489;34.60;616;03.29.06.941
12936;172490;34.60;617;03.29.06.952
12896;172488;34.60;618;03.29.06.952
12892;172485;34.60;619;03.29.06.952
12920;172488;34.60;620;03.29.06.952
12896;172493;34.60;621;03.29.06.952
12904;172495;34.60;622;03.29.06.952
12912;172496;34.60;623;03.29.06.952
12952;172494;34.60;624;03.29.06.963
12904;172504;34.60;625;03.29.07.051
12936;172503;34.60;626;03.29.07.051
12892;172493;34.60;627;03.29.07.051
12916;172502;34.60;628;03.29.07.062
12908;172500;34.60;629;03.29.07.062
12920;172508;34.60;630;03.29.07.062
12928;172506;34.60;631;03.29.07.062
12928;172495;34.60;632;03.29.07.062
12936;172511;34.60;633;03.29.07.062
12928;172504;34.60;634;03.29.07.062
12912;172507;34.60;635;03.29.07.062
12904;172508;34.60;636;03.29.07.062
12928;172511;34.60;637;03.29.07.062
12928;172505;34.60;638;03.29.07.062
12892;172515;34.60;639;03.29.07.062
12920;172519;34.60;640;03.29.07.062
12920;172519;34.60;641;03.29.07.073
12928;172515;34.60;642;03.29.07.073
12916;172513;34.60;643;03.29.07.073
12912;172509;34.60;644;03.29.07.073
12904;172508;34.60;645;03.29.07.073
12908;172505;34.60;646;03.29.07.073
12892;172504;34.60;647;03.29.07.073
12912;172494;34.60;648;03.29.07.073
12896;172492;34.60;649;03.29.07.073
12892;172493;34.56;650;03.29.07.182
12908;172475;34.56;651;03.29.07.182
12904;172483;34.56;652;03.29.07.182
12892;172473;34.56;653;03.29.07.182
12892;172472;34.56;654;03.29.07.182
12904;172461;34.56;655;03.29.07.182
12908;172465;34.56;656;03.29.07.182
12900;172463;34.56;657;03.29.07.182
12916;172456;34.56;658;03.29.07.182
12928;172450;34.56;659;03.29.07.182
12928;172453;34.56;660;03.29.07.182
12944;172444;34.56;661;03.29.07.192
12932;172446;34.56;662;03.29.07.192
12896;172444;34.56;663;03.29.07.192
12928;172434;34.56;664;03.29.07.192
12904;172439;34.56;665;03.29.07.192
12908;172422;34.56;666;03.29.07.192
12932;172431;34.56;667;03.29.07.192
12928;172420;34.56;668;03.29.07.192
12944;172416;34.56;669;03.29.07.192
12928;172425;34.56;670;03.29.07.192
12912;172413;34.56;671;03.29.07.192
12908;172421;34.56;672;03.29.07.192
12900;172422;34.56;673;03.29.07.192
12936;172419;34.56;674;03.29.07.192
12912;172414;34.56;675;03.29.07.302
12900;172421;34.56;676;03.29.07.302
12892;172413;34.56;677;03.29.07.302
12936;172420;34.56;678;03.29.07.302
12908;172421;34.56;679;03.29.07.302
12912;172429;34.56;680;03.29.07.302
12932;172418;34.56;681;03.29.07.302
12924;172422;34.56;682;03.29.07.313
12928;172422;34.56;683;03.29.07.313
12908;172429;34.56;684;03.29.07.313
12924;172429;34.56;685;03.29.07.313
12920;172425;34.56;686;03.29.07.313
12916;172428;34.56;687;03.29.07.313
12928;172430;34.56;688;03.29.07.313
12920;172432;34.56;689;03.29.07.313
12884;172434;34.56;690;03.29.07.313
12912;172435;34.56;691;03.29.07.313
12928;172434;34.56;692;03.29.07.324
12912;172430;34.56;693;03.29.07.324
12912;172441;34.56;694;03.29.07.324
12928;172428;34.56;695;03.29.07.324
12900;172444;34.56;696;03.29.07.324
12924;172430;34.56;697;03.29.07.324
12924;172434;34.56;698;03.29.07.324
12924;172437;34.56;699;03.29.07.324
12912;172426;34.60;700;03.29.07.423
12892;172429;34.60;701;03.29.07.423
12908;172434;34.60;702;03.29.07.423
12916;172428;34.60;703;03.29.07.423
12948;172427;34.60;704;03.29.07.423
12936;172427;34.60;705;03.29.07.434
12884;172427;34.60;706;03.29.07.434
12928;172429;34.60;707;03.29.07.434
12912;172421;34.60;708;03.29.07.456
12912;172437;34.60;709;03.29.07.456
12904;172420;34.60;710;03.29.07.456
12916;172428;34.60;711;03.29.07.456
12904;172428;34.60;712;03.29.07.467
12912;172423;34.60;713;03.29.07.467
12892;172425;34.60;714;03.29.07.467
12884;172426;34.60;715;03.29.07.467
12912;172429;34.60;716;03.29.07.467
12912;172422;34.60;717;03.29.07.467
12892;172429;34.60;718;03.29.07.467
12904;172423;34.60;719;03.29.07.467
12896;172425;34.60;720;03.29.07.467
12908;172429;34.60;721;03.29.07.467
12924;172418;34.60;722;03.29.07.467
12924;172412;34.60;723;03.29.07.467
12928;172421;34.60;724;03.29.07.467
12932;172432;34.60;725;03.29.07.543
12896;172441;34.60;726;03.29.07.554
12920;172432;34.60;727;03.29.07.554
12904;172428;34.60;728;03.29.07.554
12916;172429;34.60;729;03.29.07.554
12912;172425;34.60;730;03.29.07.554
12944;172426;34.60;731;03.29.07.554
12928;172423;34.60;732;03.29.07.554
12888;172423;34.60;733;03.29.07.554
12920;172422;34.60;734;03.29.07.554
12892;172427;34.60;735;03.29.07.554
12896;172430;34.60;736;03.29.07.554
12900;172425;34.60;737;03.29.07.554
12900;172420;34.60;738;03.29.07.554
12916;172423;34.60;739;03.29.07.565
12908;172424;34.60;740;03.29.07.565
12884;172421;34.60;741;03.29.07.565
12904;172429;34.60;742;03.29.07.565
12916;172428;34.60;743;03.29.07.565
12944;172427;34.60;744;03.29.07.565
12904;172428;34.60;745;03.29.07.565
12900;172424;34.60;746;03.29.07.565
12904;172425;34.60;747;03.29.07.565
12904;172435;34.60;748;03.29.07.565
12896;172421;34.60;749;03.29.07.565
12892;172431;34.56;750;03.29.07.685
12916;172441;34.56;751;03.29.07.685
12916;172438;34.56;752;03.29.07.685
12916;172443;34.56;753;03.29.07.685
12928;172443;34.56;754;03.29.07.685
12936;172438;34.56;755;03.29.07.685
12888;172450;34.56;756;03.29.07.685
12932;172449;34.56;757;03.29.07.685
12904;172439;34.56;758;03.29.07.685
12916;172443;34.56;759;03.29.07.696
12916;172445;34.56;760;03.29.07.696
12912;172453;34.56;761;03.29.07.696
12904;172445;34.56;762;03.29.07.696
12900;172447;34.56;763;03.29.07.696
12912;172455;34.56;764;03.29.07.696
12908;172454;34.56;765;03.29.07.696
12900;172450;34.56;766;03.29.07.696
12928;172454;34.56;767;03.29.07.696
12892;172454;34.56;768;03.29.07.696
12904;172457;34.56;769;03.29.07.696
12932;172461;34.56;770;03.29.07.696
12912;172460;34.56;771;03.29.07.696
12892;172450;34.56;772;03.29.07.707
12928;172461;34.56;773;03.29.07.707
12916;172466;34.56;774;03.29.07.707
12924;172474;34.56;775;03.29.07.817
12904;172468;34.56;776;03.29.07.817
12876;172473;34.56;777;03.29.07.817
12920;172474;34.56;778;03.29.07.817
12912;172470;34.56;779;03.29.07.817
12920;172464;34.56;780;03.29.07.827
12900;172471;34.56;781;03.29.07.827
12900;172466;34.56;782;03.29.07.827
12928;172477;34.56;783;03.29.07.827
12900;172470;34.56;784;03.29.07.827
12880;172475;34.56;785;03.29.07.827
12924;172471;34.56;786;03.29.07.827
12920;172477;34.56;787;03.29.07.827
12940;172478;34.56;788;03.29.07.827
12908;172482;34.56;789;03.29.07.827
12916;172482;34.56;790;03.29.07.827
12928;172480;34.56;791;03.29.07.827
12932;172471;34.56;792;03.29.07.838
12884;172472;34.56;793;03.29.07.838
12940;172473;34.56;794;03.29.07.838
12892;172466;34.56;795;03.29.07.838
12892;172464;34.56;796;03.29.07.838
12928;172463;34.56;797;03.29.07.838
12904;172466;34.56;798;03.29.07.838
12960;172458;34.56;799;03.29.07.838
12932;172445;34.60;800;03.29.07.926
12932;172449;34.60;801;03.29.07.937
12900;172444;34.60;802;03.29.07.937
12896;172445;34.60;803;03.29.07.937
12892;172439;34.60;804;03.29.07.937
12936;172438;34.60;805;03.29.07.937
12888;172436;34.60;806;03.29.07.937
12892;172429;34.60;807;03.29.07.937
12916;172426;34.60;808;03.29.07.959
12916;172418;34.60;809;03.29.07.959
12888;172417;34.60;810;03.29.07.959
12912;172409;34.60;811;03.29.07.959
12924;172408;34.60;812;03.29.07.959
12924;172407;34.60;813;03.29.07.959
12916;172411;34.60;814;03.29.07.959
12904;172403;34.60;815;03.29.07.959
12928;172400;34.60;816;03.29.07.959
12920;172397;34.60;817;03.29.07.959
12928;172396;34.60;818;03.29.07.959
12900;172394;34.60;819;03.29.07.959
12932;172393;34.60;820;03.29.07.959
12936;172387;34.60;821;03.29.07.970
12932;172390;34.60;822;03.29.07.970
12936;172395;34.60;823;03.29.07.970
12932;172399;34.60;824;03.29.07.970
12884;172398;34.60;825;03.29.08.057
12884;172389;34.60;826;03.29.08.057
12928;172394;34.60;827;03.29.08.057
12908;172384;34.60;828;03.29.08.057
12904;172390;34.60;829;03.29.08.057
12884;172393;34.60;830;03.29.08.057
12916;172389;34.60;831;03.29.08.057
12904;172392;34.60;832;03.29.08.057
12928;172399;34.60;833;03.29.08.068
12932;172393;34.60;834;03.29.08.068
12928;172398;34.60;835;03.29.08.068
12908;172394;34.60;836;03.29.08.068
12904;172392;34.60;837;03.29.08.068
12928;172401;34.60;838;03.29.08.068
12928;172403;34.60;839;03.29.08.068
12904;172401;34.60;840;03.29.08.068
12892;172396;34.60;841;03.29.08.068
12896;172400;34.60;842;03.29.08.090
12904;172399;34.60;843;03.29.08.090
12936;172402;34.60;844;03.29.08.090
12916;172403;34.60;845;03.29.08.090
12932;172397;34.60;846;03.29.08.090
12916;172403;34.60;847;03.29.08.090
12932;172407;34.60;848;03.29.08.090
12948;172415;34.60;849;03.29.08.090
12936;172413;34.56;850;03.29.08.178
12916;172408;34.56;851;03.29.08.178
12892;172397;34.56;852;03.29.08.178
12928;172401;34.56;853;03.29.08.178
12928;172407;34.56;854;03.29.08.178
12908;172407;34.56;855;03.29.08.178
12916;172408;34.56;856;03.29.08.189
12936;172413;34.56;857;03.29.08.189
12924;172418;34.56;858;03.29.08.189
12908;172412;34.56;859;03.29.08.189
12940;172416;34.56;860;03.29.08.189
12944;172416;34.56;861;03.29.08.189
12928;172408;34.56;862;03.29.08.189
12916;172412;34.56;863;03.29.08.189
12916;172415;34.56;864;03.29.08.189
12916;172415;34.56;865;03.29.08.189
12924;172408;34.56;866;03.29.08.189
12896;172412;34.56;867;03.29.08.189
12936;172414;34.56;868;03.29.08.189
12884;172411;34.56;869;03.29.08.200
12936;172408;34.56;870;03.29.08.200
12928;172405;34.56;871;03.29.08.200
12928;172416;34.56;872;03.29.08.200
12928;172408;34.56;873;03.29.08.200
12920;172407;34.56;874;03.29.08.200
12912;172413;34.56;875;03.29.08.309
12936;172402;34.56;876;03.29.08.320
12940;172407;34.56;877;03.29.08.320
12908;172399;34.56;878;03.29.08.320
12916;172410;34.56;879;03.29.08.320
12916;172407;34.56;880;03.29.08.320
12912;172407;34.56;881;03.29.08.320
12944;172418;34.56;882;03.29.08.320
12916;172412;34.56;883;03.29.08.320
12908;172426;34.56;884;03.29.08.320
12944;172415;34.56;885;03.29.08.331
12892;172413;34.56;886;03.29.08.331
12912;172415;34.56;887;03.29.08.331
12916;172411;34.56;888;03.29.08.331
12912;172420;34.56;889;03.29.08.331
12936;172426;34.56;890;03.29.08.331
12916;172419;34.56;891;03.29.08.331
12896;172418;34.56;892;03.29.08.331
12920;172427;34.56;893;03.29.08.331
12924;172424;34.56;894;03.29.08.331
12928;172428;34.56;895;03.29.08.331
12900;172432;34.56;896;03.29.08.331
12900;172435;34.56;897;03.29.08.331
12900;172433;34.56;898;03.29.08.342
12920;172436;34.56;899;03.29.08.342
12908;172438;34.60;900;03.29.08.429
12928;172443;34.60;901;03.29.08.429
12916;172441;34.60;902;03.29.08.429
12912;172445;34.60;903;03.29.08.429
12896;172450;34.60;904;03.29.08.429
12912;172451;34.60;905;03.29.08.429
12916;172445;34.60;906;03.29.08.429
12912;172449;34.60;907;03.29.08.429
12936;172454;34.60;908;03.29.08.451
12912;172452;34.60;909;03.29.08.451
12908;172449;34.60;910;03.29.08.451
12932;172454;34.60;911;03.29.08.451
12908;172449;34.60;912;03.29.08.451
12920;172458;34.60;913;03.29.08.451
12928;172453;34.60;914;03.29.08.451
12892;172457;34.60;915;03.29.08.451
12924;172451;34.60;916;03.29.08.451
12916;172458;34.60;917;03.29.08.451
12936;172456;34.60;918;03.29.08.451
12900;172458;34.60;919;03.29.08.462
12932;172451;34.60;920;03.29.08.462
12908;172458;34.60;921;03.29.08.462
12920;172461;34.60;922;03.29.08.462
12932;172467;34.60;923;03.29.08.462
12908;172450;34.60;924;03.29.08.462
12876;172465;34.60;925;03.29.08.549
12912;172456;34.60;926;03.29.08.549
12908;172464;34.60;927;03.29.08.549
12928;172459;34.60;928;03.29.08.549
12916;172461;34.60;929;03.29.08.549
12936;172455;34.60;930;03.29.08.549
12896;172450;34.60;931;03.29.08.549
12916;172451;34.60;932;03.29.08.560
12924;172446;34.60;933;03.29.08.560
12928;172447;34.60;934;03.29.08.560
12900;172452;34.60;935;03.29.08.560
12900;172450;34.60;936;03.29.08.560
12932;172434;34.60;937;03.29.08.560
12936;172438;34.60;938;03.29.08.560
12932;172429;34.60;939;03.29.08.560
12924;172422;34.60;940;03.29.08.560
12912;172423;34.60;941;03.29.08.560
12920;172416;34.60;942;03.29.08.560
12928;172409;34.60;943;03.29.08.560
12920;172409;34.60;944;03.29.08.560
12928;172408;34.60;945;03.29.08.571
12884;172404;34.60;946;03.29.08.571
12928;172413;34.60;947;03.29.08.571
12924;172401;34.60;948;03.29.08.571
12916;172396;34.60;949;03.29.08.571
12928;172392;34.56;950;03.29.08.670
12928;172399;34.56;951;03.29.08.681
12884;172384;34.56;952;03.29.08.681
12892;172390;34.56;953;03.29.08.681
12884;172388;34.56;954;03.29.08.681
12928;172388;34.56;955;03.29.08.681
12900;172381;34.56;956;03.29.08.681
12932;172374;34.56;957;03.29.08.681
12892;172378;34.56;958;03.29.08.681
12944;172380;34.56;959;03.29.08.681
12912;172381;34.56;960;03.29.08.681
12932;172378;34.56;961;03.29.08.681
12928;172381;34.56;962;03.29.08.681
12908;172379;34.56;963;03.29.08.681
12928;172382;34.56;964;03.29.08.681
12900;172381;34.56;965;03.29.08.692
12944;172382;34.56;966;03.29.08.692
12928;172378;34.56;967;03.29.08.692
12912;172383;34.56;968;03.29.08.692
12920;172386;34.56;969;03.29.08.692
12908;172386;34.56;970;03.29.08.692
12912;172390;34.56;971;03.29.08.692
12916;172390;34.56;972;03.29.08.692
12904;172387;34.56;973;03.29.08.692
12924;172385;34.56;974;03.29.08.692
12916;172394;34.56;975;03.29.08.813
12912;172390;34.56;976;03.29.08.813
12916;172393;34.56;977;03.29.08.813
12928;172388;34.56;978;03.29.08.813
12904;172398;34.56;979;03.29.08.813
12916;172397;34.56;980;03.29.08.813
12896;172402;34.56;981;03.29.08.813
12920;172400;34.56;982;03.29.08.813
12924;172401;34.56;983;03.29.08.813
12928;172406;34.56;984;03.29.08.813
12928;172404;34.56;985;03.29.08.813
12896;172412;34.56;986;03.29.08.813
12916;172418;34.56;987;03.29.08.824
12904;172416;34.56;988;03.29.08.824
12904;172420;34.56;989;03.29.08.824
12888;172421;34.56;990;03.29.08.824
12904;172416;34.56;991;03.29.08.824
12896;172419;34.56;992;03.29.08.824
12916;172421;34.56;993;03.29.08.824
12920;172421;34.56;994;03.29.08.824
12920;172422;34.56;995;03.29.08.824
12924;172411;34.56;996;03.29.08.824
12908;172427;34.56;997;03.29.08.824
12908;172428;34.56;998;03.29.08.824
12936;172425;34.56;999;03.29.08.824
12912;172430;34.56;000;03.29.08.944
12888;172422;34.56;001;03.29.08.944
12932;172417;34.56;002;03.29.08.944
12928;172425;34.56;003;03.29.08.944
12932;172419;34.56;004;03.29.08.944
12892;172424;34.56;005;03.29.08.944
12892;172420;34.56;006;03.29.08.944
12920;172416;34.56;007;03.29.08.944
12904;172421;34.56;008;03.29.08.955
12944;172425;34.56;009;03.29.08.955
12932;172419;34.56;010;03.29.08.955
12912;172417;34.56;011;03.29.08.955
12916;172422;34.56;012;03.29.08.955
12936;172422;34.56;013;03.29.08.955
12944;172416;34.56;014;03.29.08.955
12932;172424;34.56;015;03.29.08.955
12928;172419;34.56;016;03.29.08.955
12912;172422;34.56;017;03.29.08.955
12888;172422;34.56;018;03.29.08.955
12908;172422;34.56;019;03.29.08.955
12920;172425;34.56;020;03.29.08.955
12924;172424;34.56;021;03.29.08.967
12892;172425;34.56;022;03.29.08.967
12936;172424;34.56;023;03.29.08.967
12932;172427;34.56;024;03.29.08.967
12928;172418;34.56;025;03.29.09.053
12892;172428;34.56;026;03.29.09.053
12920;172422;34.56;027;03.29.09.053
12944;172426;34.56;028;03.29.09.064
12904;172429;34.56;029;03.29.09.064
12928;172428;34.56;030;03.29.09.064
12904;172426;34.56;031;03.29.09.064
12892;172435;34.56;032;03.29.09.064
12896;172420;34.56;033;03.29.09.075
12928;172416;34.56;034;03.29.09.075
12892;172426;34.56;035;03.29.09.075
12924;172432;34.56;036;03.29.09.075
12916;172435;34.56;037;03.29.09.086
12928;172430;34.56;038;03.29.09.086
12944;172434;34.56;039;03.29.09.086
12912;172439;34.56;040;03.29.09.086
12908;172444;34.56;041;03.29.09.086
12916;172435;34.56;042;03.29.09.086
12900;172439;34.56;043;03.29.09.086
12916;172444;34.56;044;03.29.09.086
12920;172444;34.56;045;03.29.09.086
12916;172443;34.56;046;03.29.09.086
12908;172442;34.56;047;03.29.09.086
12876;172433;34.56;048;03.29.09.086
12908;172437;34.56;049;03.29.09.086
12928;172440;34.60;050;03.29.09.185
12912;172445;34.60;051;03.29.09.185
12892;172445;34.60;052;03.29.09.185
12928;172446;34.60;053;03.29.09.185
12932;172447;34.60;054;03.29.09.185
12908;172454;34.60;055;03.29.09.185
12928;172460;34.60;056;03.29.09.185
12908;172457;34.60;057;03.29.09.185
12924;172453;34.60;058;03.29.09.185
12928;172457;34.60;059;03.29.09.185
12900;172448;34.60;060;03.29.09.185
12924;172451;34.60;061;03.29.09.185
12928;172440;34.60;062;03.29.09.185
12900;172441;34.60;063;03.29.09.196
12920;172442;34.60;064;03.29.09.196
12912;172435;34.60;065;03.29.09.196
12924;172435;34.60;066;03.29.09.196
12900;172432;34.60;067;03.29.09.196
12944;172423;34.60;068;03.29.09.196
12920;172425;34.60;069;03.29.09.196
12896;172429;34.60;070;03.29.09.196
12900;172425;34.60;071;03.29.09.196
12900;172427;34.60;072;03.29.09.196
12928;172422;34.60;073;03.29.09.196
12944;172426;34.60;074;03.29.09.196
12932;172424;34.60;075;03.29.09.306
12888;172423;34.60;076;03.29.09.306
12876;172420;34.60;077;03.29.09.306
12924;172417;34.60;078;03.29.09.306
12932;172421;34.60;079;03.29.09.306
12904;172409;34.60;080;03.29.09.306
12904;172409;34.60;081;03.29.09.306
12916;172416;34.60;082;03.29.09.306
12896;172411;34.60;083;03.29.09.306
12892;172409;34.60;084;03.29.09.306
12916;172402;34.60;085;03.29.09.317
12912;172409;34.60;086;03.29.09.317
12908;172399;34.60;087;03.29.09.317
12932;172404;34.60;088;03.29.09.317
12900;172406;34.60;089;03.29.09.317
12912;172398;34.60;090;03.29.09.317
12904;172409;34.60;091;03.29.09.317
12920;172411;34.60;092;03.29.09.317
12932;172403;34.60;093;03.29.09.317
12928;172411;34.60;094;03.29.09.317
12928;172411;34.60;095;03.29.09.317
12892;172407;34.60;096;03.29.09.317
12892;172403;34.60;097;03.29.09.328
12896;172407;34.60;098;03.29.09.328
12904;172404;34.60;099;03.29.09.328
12920;172412;34.56;100;03.29.09.437
12916;172408;34.56;101;03.29.09.437
12924;172405;34.56;102;03.29.09.437
12924;172413;34.56;103;03.29.09.437
12888;172415;34.56;104;03.29.09.437
12916;172408;34.56;105;03.29.09.437
12920;172421;34.56;106;03.29.09.448
12932;172406;34.56;107;03.29.09.448
12900;172418;34.56;108;03.29.09.448
12944;172420;34.56;109;03.29.09.448
12932;172419;34.56;110;03.29.09.448
12944;172426;34.56;111;03.29.09.448
12936;172411;34.56;112;03.29.09.448
12928;172423;34.56;113;03.29.09.448
12892;172424;34.56;114;03.29.09.448
12936;172422;34.56;115;03.29.09.448
12928;172417;34.56;116;03.29.09.448
12932;172415;34.56;117;03.29.09.448
12944;172414;34.56;118;03.29.09.448
12904;172410;34.56;119;03.29.09.459
12920;172408;34.56;120;03.29.09.459
12912;172413;34.56;121;03.29.09.459
12928;172411;34.56;122;03.29.09.459
12928;172415;34.56;123;03.29.09.459
12916;172406;34.56;124;03.29.09.459
12908;172400;34.56;125;03.29.09.547
12928;172393;34.56;126;03.29.09.547
12920;172400;34.56;127;03.29.09.547
12908;172395;34.56;128;03.29.09.558
12908;172397;34.56;129;03.29.09.558
12908;172397;34.56;130;03.29.09.558
12912;172394;34.56;131;03.29.09.558
12904;172398;34.56;132;03.29.09.558
12888;172403;34.56;133;03.29.09.558
12912;172397;34.56;134;03.29.09.569
12928;172397;34.56;135;03.29.09.569
12892;172385;34.56;136;03.29.09.569
12892;172403;34.56;137;03.29.09.569
12916;172399;34.56;138;03.29.09.569
12912;172396;34.56;139;03.29.09.569
12904;172393;34.56;140;03.29.09.569
12900;172397;34.56;141;03.29.09.569
12928;172392;34.56;142;03.29.09.569
12928;172395;34.56;143;03.29.09.569
12928;172396;34.56;144;03.29.09.569
12920;172394;34.56;145;03.29.09.580
12920;172399;34.56;146;03.29.09.580
12908;172393;34.56;147;03.29.09.580
12908;172395;34.56;148;03.29.09.580
12896;172404;34.56;149;03.29.09.580
12908;172395;34.60;150;03.29.09.678
12928;172407;34.60;151;03.29.09.678
12920;172408;34.60;152;03.29.09.678
12896;172405;34.60;153;03.29.09.678
12912;172415;34.60;154;03.29.09.678
12916;172414;34.60;155;03.29.09.678
12928;172414;34.60;156;03.29.09.678
12920;172413;34.60;157;03.29.09.678
12916;172417;34.60;158;03.29.09.678
12916;172416;34.60;159;03.29.09.689
12888;172411;34.60;160;03.29.09.689
12908;172413;34.60;161;03.29.09.689
12928;172425;34.60;162;03.29.09.689
12916;172424;34.60;163;03.29.09.689
12892;172423;34.60;164;03.29.09.689
12936;172423;34.60;165;03.29.09.689
12924;172427;34.60;166;03.29.09.689
12936;172430;34.60;167;03.29.09.689
12932;172429;34.60;168;03.29.09.689
12924;172425;34.60;169;03.29.09.689
12936;172431;34.60;170;03.29.09.689
12888;172439;34.60;171;03.29.09.689
12936;172440;34.60;172;03.29.09.689
12912;172438;34.60;173;03.29.09.689
12920;172437;34.60;174;03.29.09.700
12916;172443;34.60;175;03.29.09.799
12940;172443;34.60;176;03.29.09.799
12928;172450;34.60;177;03.29.09.799
12928;172452;34.60;178;03.29.09.799
12912;172452;34.60;179;03.29.09.799
12904;172449;34.60;180;03.29.09.799
12888;172448;34.60;181;03.29.09.799
12896;172454;34.60;182;03.29.09.809
12912;172458;34.60;183;03.29.09.809
12904;172458;34.60;184;03.29.09.809
12916;172466;34.60;185;03.29.09.809
12912;172461;34.60;186;03.29.09.809
12908;172459;34.60;187;03.29.09.809
12908;172452;34.60;188;03.29.09.809
12928;172458;34.60;189;03.29.09.809
12888;172459;34.60;190;03.29.09.809
12936;172452;34.60;191;03.29.09.809
12908;172445;34.60;192;03.29.09.809
12912;172452;34.60;193;03.29.09.809
12960;172445;34.60;194;03.29.09.809
12920;172445;34.60;195;03.29.09.820
12916;172437;34.60;196;03.29.09.820
12924;172439;34.60;197;03.29.09.820
12912;172436;34.60;198;03.29.09.820
12936;172428;34.60;199;03.29.09.820
12916;172423;34.56;200;03.29.09.930
12896;172421;34.56;201;03.29.09.930
12916;172418;34.56;202;03.29.09.930
12928;172417;34.56;203;03.29.09.941
12928;172404;34.56;204;03.29.09.941
12928;172406;34.56;205;03.29.09.941
12924;172408;34.56;206;03.29.09.941
12908;172392;34.56;207;03.29.09.941
12928;172392;34.56;208;03.29.09.952
12892;172395;34.56;209;03.29.09.952
12928;172381;34.56;210;03.29.09.952
12920;172386;34.56;211;03.29.09.963
12908;172390;34.56;212;03.29.09.963
12924;172383;34.56;213;03.29.09.963
12904;172387;34.56;214;03.29.09.963
12896;172381;34.56;215;03.29.09.963
12908;172385;34.56;216;03.29.09.963
12924;172378;34.56;217;03.29.09.974
12928;172385;34.56;218;03.29.09.974
12916;172380;34.56;219;03.29.09.985
12904;172376;34.56;220;03.29.09.985
12908;172377;34.56;221;03.29.09.985
12920;172380;34.56;222;03.29.09.985
12896;172377;34.56;223;03.29.09.985
12908;172381;34.56;224;03.29.09.985
12892;172384;34.56;225;03.29.10.072
12928;172369;34.56;226;03.29.10.072
12904;172374;34.56;227;03.29.10.072
12944;172378;34.56;228;03.29.10.072
12912;172375;34.56;229;03.29.10.072
12896;172375;34.56;230;03.29.10.072
12916;172376;34.56;231;03.29.10.072
12936;172377;34.56;232;03.29.10.072
12916;172386;34.56;233;03.29.10.072
12960;172378;34.56;234;03.29.10.072
12920;172378;34.56;235;03.29.10.072
12916;172385;34.56;236;03.29.10.083
12916;172375;34.56;237;03.29.10.083
12920;172376;34.56;238;03.29.10.083
12900;172381;34.56;239;03.29.10.083
12916;172384;34.56;240;03.29.10.083
12916;172382;34.56;241;03.29.10.083
12900;172389;34.56;242;03.29.10.083
12904;172383;34.56;243;03.29.10.083
12924;172379;34.56;244;03.29.10.083
12916;172376;34.56;245;03.29.10.083
12908;172383;34.56;246;03.29.10.083
12928;172387;34.56;247;03.29.10.083
12912;172386;34.56;248;03.29.10.083
12932;172388;34.56;249;03.29.10.094
12928;172389;34.60;250;03.29.10.181
12944;172391;34.60;251;03.29.10.181
12944;172393;34.60;252;03.29.10.181
12944;172398;34.60;253;03.29.10.181
12912;172402;34.60;254;03.29.10.181
12916;172397;34.60;255;03.29.10.181
12900;172403;34.60;256;03.29.10.181
12940;172407;34.60;257;03.29.10.192
12896;172403;34.60;258;03.29.10.203
12928;172399;34.60;259;03.29.10.203
12924;172400;34.60;260;03.29.10.203
12932;172396;34.60;261;03.29.10.203
12924;172399;34.60;262;03.29.10.203
12916;172400;34.60;263;03.29.10.203
12912;172404;34.60;264;03.29.10.203
12924;172396;34.60;265;03.29.10.214
12912;172398;34.60;266;03.29.10.214
12948;172397;34.60;267;03.29.10.214
12940;172392;34.60;268;03.29.10.214
12944;172404;34.60;269;03.29.10.214
12944;172402;34.60;270;03.29.10.214
12888;172397;34.60;271;03.29.10.214
12912;172410;34.60;272;03.29.10.214
12944;172400;34.60;273;03.29.10.214
12944;172405;34.60;274;03.29.10.214
12896;172409;34.60;275;03.29.10.302
12916;172410;34.60;276;03.29.10.302
12908;172414;34.60;277;03.29.10.313
12908;172417;34.60;278;03.29.10.313
12904;172410;34.60;279;03.29.10.313
12884;172413;34.60;280;03.29.10.313
12916;172413;34.60;281;03.29.10.313
12908;172413;34.60;282;03.29.10.313
12936;172426;34.60;283;03.29.10.313
12900;172422;34.60;284;03.29.10.313
12892;172420;34.60;285;03.29.10.313
12892;172416;34.60;286;03.29.10.313
12908;172424;34.60;287;03.29.10.313
12908;172433;34.60;288;03.29.10.313
12936;172428;34.60;289;03.29.10.313
12892;172424;34.60;290;03.29.10.313
12928;172425;34.60;291;03.29.10.324
12892;172431;34.60;292;03.29.10.324
12928;172436;34.60;293;03.29.10.324
12936;172433;34.60;294;03.29.10.324
12920;172430;34.60;295;03.29.10.324
12932;172433;34.60;296;03.29.10.324
12884;172444;34.60;297;03.29.10.324
12908;172443;34.60;298;03.29.10.324
12888;172438;34.60;299;03.29.10.324
12904;172439;34.56;300;03.29.10.434
12952;172445;34.56;301;03.29.10.434
12896;172444;34.56;302;03.29.10.434
12928;172434;34.56;303;03.29.10.434
12892;172438;34.56;304;03.29.10.434
12904;172443;34.56;305;03.29.10.434
12920;172444;34.56;306;03.29.10.434
12912;172445;34.56;307;03.29.10.434
12888;172443;34.56;308;03.29.10.434
12928;172441;34.56;309;03.29.10.445
12904;172444;34.56;310;03.29.10.445
12932;172441;34.56;311;03.29.10.445
12920;172439;34.56;312;03.29.10.445
12932;172443;34.56;313;03.29.10.445
12936;172443;34.56;314;03.29.10.445
12932;172441;34.56;315;03.29.10.445
12916;172431;34.56;316;03.29.10.445
12908;172437;34.56;317;03.29.10.445
12912;172439;34.56;318;03.29.10.445
12896;172426;34.56;319;03.29.10.445
12908;172432;34.56;320;03.29.10.445
12892;172425;34.56;321;03.29.10.445
12884;172415;34.56;322;03.29.10.456
12920;172418;34.56;323;03.29.10.456
12948;172412;34.56;324;03.29.10.456
12908;172404;34.56;325;03.29.10.576
12960;172407;34.56;326;03.29.10.576
12892;172406;34.56;327;03.29.10.576
12908;172398;34.56;328;03.29.10.576
12904;172395;34.56;329;03.29.10.576
12932;172401;34.56;330;03.29.10.576
12928;172398;34.56;331;03.29.10.576
12912;172392;34.56;332;03.29.10.576
12916;172387;34.56;333;03.29.10.587
12900;172385;34.56;334;03.29.10.587
12948;172378;34.56;335;03.29.10.587
12876;172376;34.56;336;03.29.10.587
12912;172377;34.56;337;03.29.10.587
12916;172380;34.56;338;03.29.10.587
12928;172373;34.56;339;03.29.10.587
12908;172370;34.56;340;03.29.10.587
12936;172381;34.56;341;03.29.10.587
12912;172369;34.56;342;03.29.10.598
12904;172377;34.56;343;03.29.10.598
12928;172377;34.56;344;03.29.10.598
12928;172374;34.56;345;03.29.10.598
12944;172376;34.56;346;03.29.10.598
12928;172381;34.56;347;03.29.10.598
12876;172378;34.56;348;03.29.10.598
12892;172374;34.56;349;03.29.10.598
12912;172378;34.56;350;03.29.10.675
12888;172381;34.56;351;03.29.10.675
12924;172384;34.56;352;03.29.10.675
12904;172385;34.56;353;03.29.10.675
12920;172390;34.56;354;03.29.10.675
12900;172388;34.56;355;03.29.10.675
12908;172393;34.56;356;03.29.10.686
12928;172397;34.56;357;03.29.10.686
12928;172398;34.56;358;03.29.10.697
12920;172406;34.56;359;03.29.10.697
12908;172408;34.56;360;03.29.10.697
12908;172403;34.56;361;03.29.10.697
12892;172409;34.56;362;03.29.10.697
12892;172413;34.56;363;03.29.10.707
12904;172415;34.56;364;03.29.10.707
12900;172399;34.56;365;03.29.10.707
12900;172406;34.56;366;03.29.10.707
12908;172408;34.56;367;03.29.10.707
12912;172408;34.56;368;03.29.10.707
12928;172412;34.56;369;03.29.10.707
12924;172414;34.56;370;03.29.10.707
12892;172411;34.56;371;03.29.10.707
12928;172413;34.56;372;03.29.10.718
12920;172414;34.56;373;03.29.10.718
12932;172415;34.56;374;03.29.10.718
12876;172411;34.56;375;03.29.10.816
12928;172423;34.56;376;03.29.10.816
12904;172423;34.56;377;03.29.10.816
12912;172419;34.56;378;03.29.10.816
12912;172419;34.56;379;03.29.10.816
12904;172426;34.56;380;03.29.10.816
12900;172424;34.56;381;03.29.10.816
12960;172429;34.56;382;03.29.10.816
12888;172423;34.56;383;03.29.10.816
12904;172422;34.56;384;03.29.10.816
12924;172424;34.56;385;03.29.10.816
12900;172422;34.56;386;03.29.10.816
12904;172415;34.56;387;03.29.10.827
12916;172423;34.56;388;03.29.10.827
12920;172421;34.56;389;03.29.10.827
12920;172422;34.56;390;03.29.10.827
12908;172421;34.56;391;03.29.10.827
12944;172416;34.56;392;03.29.10.838
12924;172420;34.56;393;03.29.10.838
12932;172423;34.56;394;03.29.10.838
12908;172421;34.56;395;03.29.10.838
12904;172417;34.56;396;03.29.10.838
12892;172417;34.56;397;03.29.10.838
12944;172427;34.56;398;03.29.10.838
12900;172427;34.56;399;03.29.10.838
12912;172423;34.56;400;03.29.10.947
12928;172426;34.56;401;03.29.10.947
12912;172423;34.56;402;03.29.10.947
12928;172413;34.56;403;03.29.10.947
12912;172428;34.56;404;03.29.10.947
12912;172423;34.56;405;03.29.10.947
12892;172423;34.56;406;03.29.10.947
12932;172428;34.56;407;03.29.10.947
12936;172420;34.56;408;03.29.10.947
12928;172421;34.56;409;03.29.10.958
12936;172415;34.56;410;03.29.10.958
12912;172422;34.56;411;03.29.10.958
12928;172424;34.56;412;03.29.10.958
12916;172433;34.56;413;03.29.10.958
12912;172427;34.56;414;03.29.10.958
12928;172422;34.56;415;03.29.10.958
12900;172428;34.56;416;03.29.10.958
12916;172424;34.56;417;03.29.10.980
12912;172423;34.56;418;03.29.10.980
12924;172430;34.56;419;03.29.10.980
12924;172431;34.56;420;03.29.10.980
12916;172431;34.56;421;03.29.10.980
12928;172429;34.56;422;03.29.10.980
12932;172432;34.56;423;03.29.10.980
12920;172428;34.56;424;03.29.10.980
12912;172432;34.56;425;03.29.11.080
12928;172432;34.56;426;03.29.11.080
12928;172426;34.56;427;03.29.11.080
12928;172425;34.56;428;03.29.11.080
12908;172427;34.56;429;03.29.11.080
12928;172440;34.56;430;03.29.11.080
12908;172428;34.56;431;03.29.11.091
12908;172433;34.56;432;03.29.11.091
12928;172439;34.56;433;03.29.11.113
12916;172431;34.56;434;03.29.11.113
12904;172432;34.56;435;03.29.11.113
12900;172435;34.56;436;03.29.11.113
12932;172436;34.56;437;03.29.11.113
12928;172434;34.56;438;03.29.11.124
12924;172446;34.56;439;03.29.11.124
12920;172441;34.56;440;03.29.11.124
12932;172446;34.56;441;03.29.11.124
12928;172447;34.56;442;03.29.11.124
12924;172437;34.56;443;03.29.11.124
12916;172441;34.56;444;03.29.11.124
12908;172446;34.56;445;03.29.11.124
12912;172441;34.56;446;03.29.11.124
12928;172436;34.56;447;03.29.11.124
12932;172427;34.56;448;03.29.11.124
12928;172425;34.56;449;03.29.11.124
12924;172425;34.56;450;03.29.11.201
12888;172415;34.56;451;03.29.11.201
12912;172419;34.56;452;03.29.11.201
12908;172415;34.56;453;03.29.11.212
12908;172411;34.56;454;03.29.11.212
12920;172408;34.56;455;03.29.11.212
12916;172411;34.56;456;03.29.11.212
12960;172400;34.56;457;03.29.11.212
12932;172399;34.56;458;03.29.11.212
12908;172400;34.56;459;03.29.11.212
12908;172393;34.56;460;03.29.11.212
12892;172389;34.56;461;03.29.11.223
12884;172387;34.56;462;03.29.11.223
12920;172384;34.56;463;03.29.11.223
12920;172385;34.56;464;03.29.11.223
12908;172380;34.56;465;03.29.11.223
12896;172381;34.56;466;03.29.11.223
12904;172375;34.56;467;03.29.11.223
12928;172372;34.56;468;03.29.11.223
12932;172376;34.56;469;03.29.11.223
12908;172375;34.56;470;03.29.11.223
12896;172365;34.56;471;03.29.11.223
12932;172368;34.56;472;03.29.11.223
12944;172364;34.56;473;03.29.11.234
12928;172363;34.56;474;03.29.11.234
12932;172365;34.56;475;03.29.11.310
12916;172364;34.56;476;03.29.11.310
12896;172363;34.56;477;03.29.11.310
12900;172365;34.56;478;03.29.11.310
12904;172363;34.56;479;03.29.11.310
12908;172359;34.56;480;03.29.11.310
12928;172364;34.56;481;03.29.11.310
12920;172362;34.56;482;03.29.11.310
12904;172361;34.56;483;03.29.11.321
12920;172360;34.56;484;03.29.11.321
12900;172360;34.56;485;03.29.11.321
12916;172357;34.56;486;03.29.11.321
12892;172358;34.56;487;03.29.11.321
12912;172353;34.56;488;03.29.11.321
12932;172351;34.56;489;03.29.11.321
12924;172349;34.56;490;03.29.11.321
12904;172358;34.56;491;03.29.11.321
12912;172360;34.56;492;03.29.11.332
12892;172352;34.56;493;03.29.11.332
12896;172360;34.56;494;03.29.11.332
12928;172358;34.56;495;03.29.11.332
12880;172353;34.56;496;03.29.11.332
12952;172361;34.56;497;03.29.11.332
12920;172360;34.56;498;03.29.11.332
12908;172363;34.56;499;03.29.11.332
12892;172357;34.52;500;03.29.11.431
12904;172359;34.52;501;03.29.11.431
12892;172361;34.52;502;03.29.11.431
12912;172356;34.52;503;03.29.11.431
12888;172357;34.52;504;03.29.11.431
12928;172366;34.52;505;03.29.11.431
12892;172359;34.52;506;03.29.11.431
12960;172362;34.52;507;03.29.11.431
12944;172371;34.52;508;03.29.11.442
12912;172366;34.52;509;03.29.11.442
12892;172374;34.52;510;03.29.11.442
12908;172365;34.52;511;03.29.11.442
12912;172362;34.52;512;03.29.11.442
12960;172360;34.52;513;03.29.11.442
12920;172357;34.52;514;03.29.11.442
12932;172361;34.52;515;03.29.11.442
12936;172364;34.52;516;03.29.11.442
12908;172356;34.52;517;03.29.11.453
12888;172365;34.52;518;03.29.11.453
12916;172358;34.52;519;03.29.11.453
12884;172358;34.52;520;03.29.11.453
12924;172355;34.52;521;03.29.11.453
12932;172359;34.52;522;03.29.11.453
12928;172357;34.52;523;03.29.11.453
12916;172359;34.52;524;03.29.11.453
12908;172360;34.52;525;03.29.11.573
12908;172367;34.52;526;03.29.11.573
12892;172361;34.52;527;03.29.11.573
12892;172353;34.52;528;03.29.11.573
12892;172355;34.52;529;03.29.11.584
12908;172371;34.52;530;03.29.11.584
12908;172367;34.52;531;03.29.11.584
12916;172365;34.52;532;03.29.11.584
12904;172380;34.52;533;03.29.11.584
12928;172372;34.52;534;03.29.11.584
12884;172378;34.52;535;03.29.11.584
12912;172372;34.52;536;03.29.11.584
12928;172361;34.52;537;03.29.11.584
12912;172370;34.52;538;03.29.11.584
12892;172370;34.52;539;03.29.11.584
12912;172374;34.52;540;03.29.11.584
12908;172376;34.52;541;03.29.11.584
12904;172386;34.52;542;03.29.11.606
12920;172380;34.52;543;03.29.11.606
12928;172378;34.52;544;03.29.11.606
12936;172379;34.52;545;03.29.11.606
12892;172381;34.52;546;03.29.11.617
12904;172381;34.52;547;03.29.11.617
12908;172384;34.52;548;03.29.11.617
12932;172384;34.52;549;03.29.11.617
12920;172382;34.56;550;03.29.11.682
12892;172392;34.56;551;03.29.11.682
12936;172389;34.56;552;03.29.11.682
12924;172399;34.56;553;03.29.11.682
12892;172394;34.56;554;03.29.11.682
12908;172387;34.56;555;03.29.11.682
12900;172390;34.56;556;03.29.11.682
12904;172395;34.56;557;03.29.11.682
12944;172397;34.56;558;03.29.11.704
12928;172405;34.56;559;03.29.11.704
12912;172389;34.56;560;03.29.11.704
12896;172396;34.56;561;03.29.11.704
12916;172401;34.56;562;03.29.11.704
12908;172398;34.56;563;03.29.11.704
12928;172392;34.56;564;03.29.11.704
12904;172404;34.56;565;03.29.11.704
12928;172405;34.56;566;03.29.11.704
12928;172408;34.56;567;03.29.11.705
12916;172402;34.56;568;03.29.11.705
12932;172403;34.56;569;03.29.11.717
12920;172413;34.56;570;03.29.11.717
12896;172411;34.56;571;03.29.11.717
12916;172415;34.56;572;03.29.11.717
12936;172421;34.56;573;03.29.11.717
12900;172419;34.56;574;03.29.11.717
12916;172421;34.56;575;03.29.11.805
12888;172419;34.56;576;03.29.11.805
12924;172425;34.56;577;03.29.11.805
12916;172433;34.56;578;03.29.11.805
12920;172423;34.56;579;03.29.11.805
12900;172433;34.56;580;03.29.11.805
12908;172430;34.56;581;03.29.11.805
12908;172433;34.56;582;03.29.11.805
12904;172433;34.56;583;03.29.11.816
12924;172433;34.56;584;03.29.11.816
12892;172440;34.56;585;03.29.11.816
12928;172440;34.56;586;03.29.11.816
12928;172433;34.56;587;03.29.11.816
12928;172439;34.56;588;03.29.11.816
12928;172433;34.56;589;03.29.11.816
12912;172429;34.56;590;03.29.11.816
12900;172435;34.56;591;03.29.11.816
12908;172429;34.56;592;03.29.11.838
12920;172426;34.56;593;03.29.11.838
12908;172429;34.56;594;03.29.11.838
12912;172429;34.56;595;03.29.11.838
12928;172423;34.56;596;03.29.11.838
12896;172418;34.56;597;03.29.11.838
12908;172409;34.56;598;03.29.11.838
12928;172408;34.56;599;03.29.11.838
12892;172403;34.56;600;03.29.11.926
12936;172406;34.56;601;03.29.11.926
12904;172397;34.56;602;03.29.11.926
12900;172387;34.56;603;03.29.11.926
12904;172392;34.56;604;03.29.11.926
12920;172379;34.56;605;03.29.11.926
12904;172379;34.56;606;03.29.11.926
12924;172384;34.56;607;03.29.11.926
12928;172374;34.56;608;03.29.11.937
12892;172370;34.56;609;03.29.11.937
12916;172373;34.56;610;03.29.11.937
12908;172367;34.56;611;03.29.11.937
12920;172357;34.56;612;03.29.11.937
12920;172362;34.56;613;03.29.11.937
12928;172359;34.56;614;03.29.11.937
12908;172364;34.56;615;03.29.11.937
12912;172354;34.56;616;03.29.11.937
12900;172363;34.56;617;03.29.11.937
12880;172356;34.56;618;03.29.11.937
12912;172358;34.56;619;03.29.11.937
12884;172365;34.56;620;03.29.11.937
12940;172355;34.56;621;03.29.11.948
12920;172355;34.56;622;03.29.11.948
12908;172355;34.56;623;03.29.11.948
12944;172353;34.56;624;03.29.11.948
12936;172358;34.56;625;03.29.12.057
12892;172357;34.56;626;03.29.12.057
12892;172353;34.56;627;03.29.12.057
12916;172356;34.56;628;03.29.12.068
12892;172360;34.56;629;03.29.12.068
12928;172350;34.56;630;03.29.12.068
12908;172358;34.56;631;03.29.12.068
12916;172357;34.56;632;03.29.12.068
12896;172355;34.56;633;03.29.12.068
12904;172352;34.56;634;03.29.12.068
12892;172354;34.56;635;03.29.12.068
12920;172360;34.56;636;03.29.12.068
12904;172350;34.56;637;03.29.12.068
12888;172352;34.56;638;03.29.12.068
12928;172349;34.56;639;03.29.12.068
12920;172355;34.56;640;03.29.12.068
12916;172356;34.56;641;03.29.12.079
12920;172348;34.56;642;03.29.12.079
12908;172341;34.56;643;03.29.12.079
12928;172353;34.56;644;03.29.12.079
12892;172354;34.56;645;03.29.12.079
12920;172346;34.56;646;03.29.12.079
12928;172350;34.56;647;03.29.12.079
12900;172346;34.56;648;03.29.12.079
12928;172351;34.56;649;03.29.12.079
12928;172355;34.60;650;03.29.12.200
12908;172349;34.60;651;03.29.12.200
12916;172355;34.60;652;03.29.12.200
12944;172350;34.60;653;03.29.12.200
12936;172351;34.60;654;03.29.12.200
12900;172343;34.60;655;03.29.12.200
12908;172352;34.60;656;03.29.12.200
12912;172356;34.60;657;03.29.12.200
12944;172359;34.60;658;03.29.12.200
12876;172360;34.60;659;03.29.12.200
12916;172354;34.60;660;03.29.12.200
12928;172360;34.60;661;03.29.12.200
12916;172358;34.60;662;03.29.12.200
12928;172349;34.60;663;03.29.12.211
12924;172355;34.60;664;03.29.12.211
12912;172354;34.60;665;03.29.12.211
12908;172360;34.60;666;03.29.12.211
12928;172362;34.60;667;03.29.12.211
12884;172368;34.60;668;03.29.12.211
12924;172358;34.60;669;03.29.12.211
12944;172358;34.60;670;03.29.12.211
12908;172352;34.60;671;03.29.12.211
12944;172357;34.60;672;03.29.12.211
12892;172361;34.60;673;03.29.12.211
12928;172367;34.60;674;03.29.12.211
12900;172359;34.60;675;03.29.12.332
12944;172355;34.60;676;03.29.12.332
12912;172364;34.60;677;03.29.12.332
12928;172370;34.60;678;03.29.12.332
12908;172373;34.60;679;03.29.12.332
12904;172372;34.60;680;03.29.12.332
12908;172378;34.60;681;03.29.12.332
12908;172373;34.60;682;03.29.12.332
12904;172373;34.60;683;03.29.12.332
12916;172379;34.60;684;03.29.12.332
12904;172387;34.60;685;03.29.12.343
12900;172378;34.60;686;03.29.12.343
12900;172374;34.60;687;03.29.12.343
12912;172368;34.60;688;03.29.12.343
12900;172378;34.60;689;03.29.12.343
12916;172376;34.60;690;03.29.12.343
12892;172381;34.60;691;03.29.12.343
12928;172372;34.60;692;03.29.12.343
12904;172388;34.60;693;03.29.12.343
12928;172379;34.60;694;03.29.12.343
12900;172384;34.60;695;03.29.12.343
12924;172388;34.60;696;03.29.12.343
12908;172395;34.60;697;03.29.12.343
12928;172400;34.60;698;03.29.12.354
12924;172397;34.60;699;03.29.12.354
12900;172393;34.56;700;03.29.12.430
12896;172391;34.56;701;03.29.12.430
12932;172396;34.56;702;03.29.12.430
12920;172407;34.56;703;03.29.12.430
12936;172414;34.56;704;03.29.12.430
12928;172396;34.56;705;03.29.12.441
12916;172399;34.56;706;03.29.12.441
12900;172409;34.56;707;03.29.12.441
12932;172412;34.56;708;03.29.12.441
12924;172410;34.56;709;03.29.12.441
12916;172415;34.56;710;03.29.12.441
12892;172409;34.56;711;03.29.12.441
12892;172419;34.56;712;03.29.12.441
12928;172419;34.56;713;03.29.12.441
12932;172424;34.56;714;03.29.12.441
12908;172421;34.56;715;03.29.12.441
12904;172422;34.56;716;03.29.12.441
12928;172426;34.56;717;03.29.12.463
12932;172427;34.56;718;03.29.12.463
12928;172424;34.56;719;03.29.12.463
12924;172424;34.56;720;03.29.12.463
12892;172427;34.56;721;03.29.12.463
12928;172427;34.56;722;03.29.12.463
12920;172431;34.56;723;03.29.12.474
12936;172429;34.56;724;03.29.12.474
12908;172434;34.56;725;03.29.12.551
12904;172439;34.56;726;03.29.12.551
12908;172440;34.56;727;03.29.12.551
12920;172433;34.56;728;03.29.12.562
12892;172444;34.56;729;03.29.12.562
12904;172454;34.56;730;03.29.12.562
12936;172451;34.56;731;03.29.12.562
12936;172445;34.56;732;03.29.12.562
12892;172447;34.56;733;03.29.12.562
12912;172456;34.56;734;03.29.12.562
12932;172442;34.56;735;03.29.12.562
12908;172445;34.56;736;03.29.12.562
12936;172442;34.56;737;03.29.12.562
12920;172446;34.56;738;03.29.12.562
12928;172448;34.56;739;03.29.12.562
12912;172446;34.56;740;03.29.12.573
12916;172452;34.56;741;03.29.12.573
12908;172455;34.56;742;03.29.12.573
12928;172452;34.56;743;03.29.12.573
12908;172458;34.56;744;03.29.12.573
12928;172465;34.56;745;03.29.12.573
12908;172465;34.56;746;03.29.12.573
12936;172464;34.56;747;03.29.12.573
12928;172465;34.56;748;03.29.12.573
12916;172469;34.56;749;03.29.12.573
12904;172469;34.56;750;03.29.12.694
12908;172462;34.56;751;03.29.12.694
12912;172465;34.56;752;03.29.12.694
12920;172456;34.56;753;03.29.12.694
12912;172462;34.56;754;03.29.12.694
12908;172451;34.56;755;03.29.12.694
12920;172449;34.56;756;03.29.12.694
12920;172443;34.56;757;03.29.12.694
12892;172444;34.56;758;03.29.12.694
12880;172437;34.56;759;03.29.12.694
12908;172434;34.56;760;03.29.12.694
12912;172440;34.56;761;03.29.12.705
12956;172427;34.56;762;03.29.12.705
12900;172429;34.56;763;03.29.12.705
12920;172422;34.56;764;03.29.12.705
12924;172407;34.56;765;03.29.12.705
12936;172416;34.56;766;03.29.12.705
12908;172412;34.56;767;03.29.12.705
12916;172401;34.56;768;03.29.12.705
12936;172411;34.56;769;03.29.12.705
12948;172394;34.56;770;03.29.12.705
12908;172389;34.56;771;03.29.12.705
12908;172388;34.56;772;03.29.12.705
12928;172389;34.56;773;03.29.12.705
12916;172379;34.56;774;03.29.12.705
12900;172381;34.56;775;03.29.12.804
12928;172372;34.56;776;03.29.12.804
12928;172375;34.56;777;03.29.12.804
12920;172375;34.56;778;03.29.12.804
12892;172372;34.56;779;03.29.12.804
12924;172371;34.56;780;03.29.12.804
12928;172368;34.56;781;03.29.12.804
12924;172376;34.56;782;03.29.12.804
12912;172377;34.56;783;03.29.12.826
12912;172373;34.56;784;03.29.12.826
12916;172368;34.56;785;03.29.12.826
12908;172362;34.56;786;03.29.12.826
12912;172361;34.56;787;03.29.12.826
12924;172364;34.56;788;03.29.12.826
12944;172364;34.56;789;03.29.12.826
12920;172358;34.56;790;03.29.12.826
12908;172360;34.56;791;03.29.12.826
12916;172359;34.56;792;03.29.12.826
12924;172355;34.56;793;03.29.12.837
12936;172361;34.56;794;03.29.12.837
12928;172349;34.56;795;03.29.12.837
12904;172356;34.56;796;03.29.12.837
12952;172361;34.56;797;03.29.12.837
12912;172358;34.56;798;03.29.12.837
12936;172362;34.56;799;03.29.12.837
12924;172363;34.52;800;03.29.12.936
12920;172358;34.52;801;03.29.12.936
12888;172365;34.52;802;03.29.12.936
12908;172358;34.52;803;03.29.12.936
12916;172357;34.52;804;03.29.12.936
12936;172352;34.52;805;03.29.12.947
12920;172359;34.52;806;03.29.12.947
12900;172365;34.52;807;03.29.12.947
12912;172346;34.52;808;03.29.12.957
12916;172368;34.52;809;03.29.12.957
12904;172369;34.52;810;03.29.12.957
12908;172372;34.52;811;03.29.12.957
12904;172361;34.52;812;03.29.12.958
12936;172365;34.52;813;03.29.12.958
12936;172375;34.52;814;03.29.12.969
12932;172375;34.52;815;03.29.12.969
12908;172371;34.52;816;03.29.12.969
12924;172377;34.52;817;03.29.12.969
12928;172374;34.52;818;03.29.12.969
12900;172384;34.52;819;03.29.12.969
12928;172366;34.52;820;03.29.12.969
12920;172384;34.52;821;03.29.12.969
12920;172381;34.52;822;03.29.12.969
12936;172380;34.52;823;03.29.12.969
12932;172382;34.52;824;03.29.12.969
12944;172382;34.52;825;03.29.13.046
12928;172379;34.52;826;03.29.13.046
12908;172379;34.52;827;03.29.13.046
12920;172387;34.52;828;03.29.13.057
12900;172388;34.52;829;03.29.13.057
12896;172383;34.52;830;03.29.13.057
12912;172386;34.52;831;03.29.13.057
12916;172390;34.52;832;03.29.13.057
12888;172388;34.52;833;03.29.13.057
12924;172389;34.52;834;03.29.13.057
12920;172394;34.52;835;03.29.13.057
12892;172396;34.52;836;03.29.13.057
12928;172399;34.52;837;03.29.13.057
12944;172400;34.52;838;03.29.13.057
12932;172399;34.52;839;03.29.13.057
12904;172402;34.52;840;03.29.13.068
12904;172408;34.52;841;03.29.13.068
12920;172393;34.52;842;03.29.13.068
12928;172403;34.52;843;03.29.13.068
12908;172404;34.52;844;03.29.13.068
12908;172409;34.52;845;03.29.13.068
12896;172412;34.52;846;03.29.13.068
12908;172409;34.52;847;03.29.13.068
12912;172418;34.52;848;03.29.13.068
12924;172419;34.52;849;03.29.13.068
12900;172414;34.52;850;03.29.13.183
12912;172421;34.52;851;03.29.13.183
12908;172423;34.52;852;03.29.13.183
12876;172421;34.52;853;03.29.13.183
12860;172429;34.52;854;03.29.13.183
12900;172430;34.52;855;03.29.13.194
12944;172432;34.52;856;03.29.13.194
12916;172438;34.52;857;03.29.13.194
12928;172427;34.52;858;03.29.13.194
12908;172439;34.52;859;03.29.13.194
12928;172437;34.52;860;03.29.13.194
12912;172437;34.52;861;03.29.13.194
12904;172446;34.52;862;03.29.13.194
12892;172449;34.52;863;03.29.13.194
12924;172445;34.52;864;03.29.13.194
12936;172450;34.52;865;03.29.13.194
12892;172461;34.52;866;03.29.13.194
12932;172458;34.52;867;03.29.13.194
12924;172459;34.52;868;03.29.13.205
12936;172462;34.52;869;03.29.13.205
12896;172467;34.52;870;03.29.13.205
12924;172462;34.52;871;03.29.13.205
12944;172472;34.52;872;03.29.13.205
12940;172480;34.52;873;03.29.13.205
12952;172477;34.52;874;03.29.13.205
12936;172483;34.52;875;03.29.13.315
12928;172483;34.52;876;03.29.13.315
12916;172479;34.52;877;03.29.13.315
12908;172487;34.52;878;03.29.13.315
12908;172486;34.52;879;03.29.13.315
12920;172493;34.52;880;03.29.13.315
12936;172503;34.52;881;03.29.13.315
12932;172497;34.52;882;03.29.13.315
12908;172501;34.52;883;03.29.13.315
12928;172498;34.52;884;03.29.13.315
12940;172502;34.52;885;03.29.13.315
12936;172509;34.52;886;03.29.13.315
12948;172506;34.52;887;03.29.13.315
12916;172503;34.52;888;03.29.13.326
12920;172521;34.52;889;03.29.13.326
12952;172517;34.52;890;03.29.13.326
12936;172520;34.52;891;03.29.13.326
12908;172519;34.52;892;03.29.13.326
12908;172519;34.52;893;03.29.13.326
12916;172519;34.52;894;03.29.13.326
12920;172528;34.52;895;03.29.13.326
12908;172528;34.52;896;03.29.13.326
12932;172531;34.52;897;03.29.13.326
12912;172532;34.52;898;03.29.13.326
12912;172536;34.52;899;03.29.13.326
12908;172538;34.56;900;03.29.13.436
12908;172539;34.56;901;03.29.13.436
12924;172542;34.56;902;03.29.13.436
12916;172541;34.56;903;03.29.13.436
12944;172543;34.56;904;03.29.13.436
12904;172553;34.56;905;03.29.13.436
12876;172551;34.56;906;03.29.13.436
12900;172562;34.56;907;03.29.13.436
12900;172557;34.56;908;03.29.13.447
12928;172568;34.56;909;03.29.13.447
12916;172561;34.56;910;03.29.13.447
12920;172566;34.56;911;03.29.13.447
12904;172558;34.56;912;03.29.13.447
12936;172555;34.56;913;03.29.13.447
12928;172564;34.56;914;03.29.13.447
12924;172560;34.56;915;03.29.13.447
12884;172561;34.56;916;03.29.13.447
12908;172558;34.56;917;03.29.13.457
12916;172558;34.56;918;03.29.13.457
12932;172565;34.56;919;03.29.13.457
12912;172568;34.56;920;03.29.13.457
12928;172561;34.56;921;03.29.13.457
12920;172568;34.56;922;03.29.13.457
12924;172565;34.56;923;03.29.13.457
12924;172569;34.56;924;03.29.13.457
12908;172565;34.56;925;03.29.13.555
12928;172561;34.56;926;03.29.13.555
12916;172552;34.56;927;03.29.13.555
12920;172554;34.56;928;03.29.13.555
12912;172547;34.56;929;03.29.13.555
12892;172545;34.56;930;03.29.13.555
12920;172536;34.56;931;03.29.13.566
12912;172537;34.56;932;03.29.13.566
12928;172530;34.56;933;03.29.13.566
12924;172532;34.56;934;03.29.13.566
12908;172537;34.56;935;03.29.13.566
12928;172525;34.56;936;03.29.13.566
12920;172524;34.56;937;03.29.13.566
12912;172517;34.56;938;03.29.13.566
12920;172511;34.56;939;03.29.13.566
12932;172510;34.56;940;03.29.13.566
12920;172500;34.56;941;03.29.13.566
12944;172490;34.56;942;03.29.13.588
12928;172497;34.56;943;03.29.13.588
12924;172489;34.56;944;03.29.13.588
12952;172494;34.56;945;03.29.13.588
12912;172484;34.56;946;03.29.13.588
12920;172484;34.56;947;03.29.13.588
12944;172487;34.56;948;03.29.13.599
12908;172482;34.56;949;03.29.13.599
12928;172478;34.56;950;03.29.13.676
12916;172475;34.56;951;03.29.13.676
12912;172474;34.56;952;03.29.13.687
12908;172466;34.56;953;03.29.13.687
12904;172469;34.56;954;03.29.13.687
12932;172475;34.56;955;03.29.13.687
12928;172475;34.56;956;03.29.13.687
12908;172477;34.56;957;03.29.13.687
12940;172481;34.56;958;03.29.13.687
12928;172488;34.56;959;03.29.13.687
12936;172477;34.56;960;03.29.13.687
12924;172475;34.56;961;03.29.13.687
12920;172482;34.56;962;03.29.13.687
12916;172482;34.56;963;03.29.13.687
12916;172488;34.56;964;03.29.13.687
12892;172493;34.56;965;03.29.13.698
12908;172489;34.56;966;03.29.13.698
12920;172487;34.56;967;03.29.13.698
12908;172484;34.56;968;03.29.13.698
12924;172483;34.56;969;03.29.13.698
12920;172487;34.56;970;03.29.13.698
12920;172496;34.56;971;03.29.13.698
12892;172490;34.56;972;03.29.13.698
12940;172485;34.56;973;03.29.13.698
12920;172488;34.56;974;03.29.13.698
12920;172485;34.56;975;03.29.13.819
12932;172490;34.56;976;03.29.13.819
12912;172489;34.56;977;03.29.13.819
12916;172489;34.56;978;03.29.13.819
12892;172479;34.56;979;03.29.13.819
12928;172471;34.56;980;03.29.13.819
12924;172480;34.56;981;03.29.13.819
12936;172488;34.56;982;03.29.13.819
12944;172479;34.56;983;03.29.13.819
12920;172487;34.56;984;03.29.13.819
12928;172482;34.56;985;03.29.13.819
12928;172477;34.56;986;03.29.13.830
12944;172471;34.56;987;03.29.13.830
12908;172476;34.56;988;03.29.13.830
12924;172466;34.56;989;03.29.13.830
12916;172474;34.56;990;03.29.13.830
12936;172471;34.56;991;03.29.13.830
12900;172464;34.56;992;03.29.13.830
12928;172460;34.56;993;03.29.13.830
12928;172465;34.56;994;03.29.13.830
12944;172468;34.56;995;03.29.13.830
12928;172468;34.56;996;03.29.13.830
12928;172462;34.56;997;03.29.13.830
12904;172460;34.56;998;03.29.13.830
12928;172461;34.56;999;03.29.13.830
12904;172456;34.52;000;03.29.13.928
12916;172462;34.52;001;03.29.13.928
12904;172454;34.52;002;03.29.13.928
12936;172450;34.52;003;03.29.13.928
12896;172454;34.52;004;03.29.13.928
12916;172450;34.52;005;03.29.13.928
12920;172449;34.52;006;03.29.13.928
12928;172456;34.52;007;03.29.13.928
12920;172458;34.52;008;03.29.13.950
12892;172451;34.52;009;03.29.13.950
12928;172451;34.52;010;03.29.13.950
12928;172458;34.52;011;03.29.13.950
12912;172462;34.52;012;03.29.13.950
12920;172464;34.52;013;03.29.13.950
12920;172466;34.52;014;03.29.13.950
12928;172456;34.52;015;03.29.13.961
12912;172458;34.52;016;03.29.13.961
12928;172459;34.52;017;03.29.13.961
12936;172460;34.52;018;03.29.13.961
12920;172465;34.52;019;03.29.13.961
12912;172464;34.52;020;03.29.13.961
12920;172464;34.52;021;03.29.13.961
12936;172462;34.52;022;03.29.13.961
12924;172466;34.52;023;03.29.13.961
12908;172458;34.52;024;03.29.13.961
12892;172459;34.52;025;03.29.14.049
12928;172460;34.52;026;03.29.14.049
12928;172460;34.52;027;03.29.14.049
12928;172468;34.52;028;03.29.14.049
12920;172465;34.52;029;03.29.14.060
12920;172463;34.52;030;03.29.14.060
12908;172452;34.52;031;03.29.14.060
12932;172461;34.52;032;03.29.14.060
12936;172459;34.52;033;03.29.14.060
12936;172461;34.52;034;03.29.14.060
12916;172463;34.52;035;03.29.14.060
12960;172461;34.52;036;03.29.14.060
12908;172473;34.52;037;03.29.14.060
12916;172462;34.52;038;03.29.14.060
12924;172466;34.52;039;03.29.14.060
12932;172465;34.52;040;03.29.14.060
12916;172467;34.52;041;03.29.14.060
12932;172465;34.52;042;03.29.14.071
12892;172466;34.52;043;03.29.14.071
12916;172468;34.52;044;03.29.14.071
12960;172471;34.52;045;03.29.14.071
12924;172475;34.52;046;03.29.14.071
12912;172465;34.52;047;03.29.14.071
12920;172475;34.52;048;03.29.14.071
12940;172483;34.52;049;03.29.14.071
12944;172482;34.56;050;03.29.14.192
12908;172476;34.56;051;03.29.14.192
12924;172483;34.56;052;03.29.14.192
12916;172477;34.56;053;03.29.14.192
12912;172481;34.56;054;03.29.14.192
12928;172482;34.56;055;03.29.14.192
12916;172485;34.56;056;03.29.14.192
12920;172496;34.56;057;03.29.14.192
12880;172487;34.56;058;03.29.14.192
12928;172483;34.56;059;03.29.14.192
12936;172486;34.56;060;03.29.14.192
12944;172493;34.56;061;03.29.14.192
12924;172498;34.56;062;03.29.14.203
12908;172489;34.56;063;03.29.14.203
12888;172496;34.56;064;03.29.14.203
12912;172501;34.56;065;03.29.14.203
12944;172508;34.56;066;03.29.14.203
12928;172501;34.56;067;03.29.14.203
12928;172498;34.56;068;03.29.14.203
12908;172502;34.56;069;03.29.14.203
12924;172511;34.56;070;03.29.14.203
12916;172505;34.56;071;03.29.14.203
12928;172510;34.56;072;03.29.14.203
12928;172507;34.56;073;03.29.14.203
12948;172513;34.56;074;03.29.14.203
12944;172510;34.56;075;03.29.14.312
12900;172513;34.56;076;03.29.14.312
12912;172507;34.56;077;03.29.14.312
12932;172509;34.56;078;03.29.14.312
12908;172512;34.56;079;03.29.14.312
12924;172508;34.56;080;03.29.14.312
12924;172509;34.56;081;03.29.14.312
12928;172511;34.56;082;03.29.14.312
12904;172516;34.56;083;03.29.14.312
12932;172511;34.56;084;03.29.14.323
12928;172521;34.56;085;03.29.14.323
12932;172517;34.56;086;03.29.14.323
12924;172513;34.56;087;03.29.14.323
12944;172513;34.56;088;03.29.14.323
12944;172514;34.56;089;03.29.14.323
12892;172515;34.56;090;03.29.14.323
12912;172513;34.56;091;03.29.14.323
12944;172510;34.56;092;03.29.14.334
12924;172506;34.56;093;03.29.14.334
12908;172507;34.56;094;03.29.14.334
12944;172497;34.56;095;03.29.14.334
12900;172500;34.56;096;03.29.14.334
12916;172490;34.56;097;03.29.14.334
12908;172489;34.56;098;03.29.14.334
12924;172482;34.56;099;03.29.14.334
12904;172485;34.56;100;03.29.14.442
12916;172471;34.56;101;03.29.14.442
12944;172462;34.56;102;03.29.14.442
12932;172466;34.56;103;03.29.14.442
12908;172455;34.56;104;03.29.14.442
12928;172452;34.56;105;03.29.14.453
12916;172442;34.56;106;03.29.14.453
12876;172439;34.56;107;03.29.14.453
12920;172436;34.56;108;03.29.14.453
12908;172427;34.56;109;03.29.14.453
12932;172428;34.56;110;03.29.14.453
12928;172427;34.56;111;03.29.14.453
12912;172419;34.56;112;03.29.14.453
12908;172424;34.56;113;03.29.14.453
12912;172418;34.56;114;03.29.14.453
12920;172415;34.56;115;03.29.14.453
12924;172407;34.56;116;03.29.14.453
12908;172404;34.56;117;03.29.14.464
12908;172405;34.56;118;03.29.14.464
12920;172413;34.56;119;03.29.14.464
12928;172393;34.56;120;03.29.14.464
12908;172405;34.56;121;03.29.14.464
12912;172396;34.56;122;03.29.14.464
12908;172404;34.56;123;03.29.14.464
12924;172400;34.56;124;03.29.14.464
12928;172401;34.56;125;03.29.14.562
12924;172395;34.56;126;03.29.14.562
12928;172395;34.56;127;03.29.14.562
12928;172390;34.56;128;03.29.14.562
12928;172394;34.56;129;03.29.14.562
12928;172393;34.56;130;03.29.14.562
12908;172391;34.56;131;03.29.14.562
12904;172392;34.56;132;03.29.14.562
12908;172389;34.56;133;03.29.14.595
12892;172389;34.56;134;03.29.14.595
12908;172394;34.56;135;03.29.14.595
12932;172392;34.56;136;03.29.14.595
12928;172391;34.56;137;03.29.14.595
12908;172390;34.56;138;03.29.14.595
12908;172394;34.56;139;03.29.14.595
12936;172395;34.56;140;03.29.14.595
12928;172395;34.56;141;03.29.14.595
12916;172400;34.56;142;03.29.14.606
12908;172392;34.56;143;03.29.14.606
12904;172393;34.56;144;03.29.14.606
12916;172401;34.56;145;03.29.14.606
12924;172397;34.56;146;03.29.14.606
12936;172401;34.56;147;03.29.14.606
12940;172399;34.56;148;03.29.14.606
12960;172402;34.56;149;03.29.14.606
12908;172392;34.52;150;03.29.14.683
12940;172405;34.52;151;03.29.14.683
12900;172410;34.52;152;03.29.14.683
12936;172396;34.52;153;03.29.14.683
12900;172409;34.52;154;03.29.14.683
12932;172409;34.52;155;03.29.14.683
12904;172403;34.52;156;03.29.14.683
12944;172400;34.52;157;03.29.14.683
12928;172412;34.52;158;03.29.14.683
12912;172408;34.52;159;03.29.14.693
12908;172407;34.52;160;03.29.14.693
12908;172416;34.52;161;03.29.14.693
12924;172417;34.52;162;03.29.14.693
12892;172415;34.52;163;03.29.14.693
12928;172408;34.52;164;03.29.14.693
12908;172411;34.52;165;03.29.14.693
12936;172412;34.52;166;03.29.14.693
12924;172415;34.52;167;03.29.14.693
12916;172417;34.52;168;03.29.14.693
12908;172420;34.52;169;03.29.14.693
12936;172419;34.52;170;03.29.14.693
12916;172423;34.52;171;03.29.14.693
12928;172415;34.52;172;03.29.14.704
12924;172418;34.52;173;03.29.14.704
12944;172414;34.52;174;03.29.14.704
12908;172421;34.52;175;03.29.14.814
12932;172420;34.52;176;03.29.14.814
12936;172418;34.52;177;03.29.14.814
12924;172410;34.52;178;03.29.14.814
12892;172415;34.52;179;03.29.14.814
12908;172414;34.52;180;03.29.14.825
12936;172410;34.52;181;03.29.14.825
12940;172412;34.52;182;03.29.14.825
12920;172418;34.52;183;03.29.14.825
12920;172417;34.52;184;03.29.14.825
12932;172423;34.52;185;03.29.14.825
12932;172425;34.52;186;03.29.14.825
12892;172424;34.52;187;03.29.14.825
12932;172420;34.52;188;03.29.14.825
12928;172432;34.52;189;03.29.14.825
12928;172432;34.52;190;03.29.14.825
12928;172439;34.52;191;03.29.14.825
12932;172428;34.52;192;03.29.14.836
12916;172431;34.52;193;03.29.14.836
12908;172431;34.52;194;03.29.14.836
12912;172442;34.52;195;03.29.14.836
12936;172442;34.52;196;03.29.14.836
12912;172437;34.52;197;03.29.14.847
12920;172443;34.52;198;03.29.14.847
12916;172442;34.52;199;03.29.14.847
12920;172442;34.52;200;03.29.14.946
12908;172437;34.52;201;03.29.14.957
12904;172443;34.52;202;03.29.14.957
12944;172447;34.52;203;03.29.14.957
12940;172446;34.52;204;03.29.14.957
12912;172452;34.52;205;03.29.14.957
12924;172448;34.52;206;03.29.14.957
12924;172454;34.52;207;03.29.14.957
12944;172447;34.52;208;03.29.14.957
12908;172455;34.52;209;03.29.14.957
12920;172451;34.52;210;03.29.14.957
12928;172458;34.52;211;03.29.14.957
12940;172453;34.52;212;03.29.14.957
12924;172450;34.52;213;03.29.14.957
12900;172455;34.52;214;03.29.14.968
12912;172456;34.52;215;03.29.14.968
12928;172455;34.52;216;03.29.14.968
12916;172456;34.52;217;03.29.14.968
12912;172462;34.52;218;03.29.14.968
12928;172461;34.52;219;03.29.14.968
12936;172465;34.52;220;03.29.14.968
12888;172476;34.52;221;03.29.14.968
12916;172472;34.52;222;03.29.14.968
12928;172471;34.52;223;03.29.14.968
12936;172480;34.52;224;03.29.14.968
12884;172469;34.52;225;03.29.15.055
12908;172479;34.52;226;03.29.15.055
12928;172481;34.52;227;03.29.15.055
12924;172482;34.52;228;03.29.15.055
12912;172486;34.52;229;03.29.15.055
12944;172483;34.52;230;03.29.15.055
12892;172482;34.52;231;03.29.15.055
12896;172493;34.52;232;03.29.15.055
12900;172489;34.52;233;03.29.15.087
12920;172496;34.52;234;03.29.15.087
12916;172489;34.52;235;03.29.15.087
12920;172482;34.52;236;03.29.15.087
12928;172491;34.52;237;03.29.15.087
12908;172495;34.52;238;03.29.15.087
12916;172486;34.52;239;03.29.15.087
12936;172491;34.52;240;03.29.15.087
12916;172487;34.52;241;03.29.15.087
12916;172486;34.52;242;03.29.15.098
12920;172488;34.52;243;03.29.15.098
12932;172489;34.52;244;03.29.15.098
12936;172489;34.52;245;03.29.15.098
12912;172489;34.52;246;03.29.15.098
12928;172488;34.52;247;03.29.15.098
12892;172481;34.52;248;03.29.15.098
12932;172496;34.52;249;03.29.15.098
12908;172493;34.52;250;03.29.15.175
12892;172492;34.52;251;03.29.15.175
12932;172492;34.52;252;03.29.15.175
12924;172495;34.52;253;03.29.15.175
12920;172486;34.52;254;03.29.15.175
12908;172493;34.52;255;03.29.15.175
12924;172486;34.52;256;03.29.15.186
12936;172493;34.52;257;03.29.15.186
12944;172488;34.52;258;03.29.15.186
12920;172491;34.52;259;03.29.15.186
12904;172492;34.52;260;03.29.15.186
12924;172492;34.52;261;03.29.15.186
12904;172491;34.52;262;03.29.15.186
12928;172492;34.52;263;03.29.15.186
12936;172491;34.52;264;03.29.15.186
12916;172496;34.52;265;03.29.15.186
12928;172499;34.52;266;03.29.15.186
12924;172484;34.52;267;03.29.15.186
12916;172487;34.52;268;03.29.15.197
12924;172481;34.52;269;03.29.15.197
12920;172480;34.52;270;03.29.15.197
12892;172475;34.52;271;03.29.15.197
12928;172468;34.52;272;03.29.15.197
12928;172461;34.52;273;03.29.15.197
12920;172454;34.52;274;03.29.15.197
12932;172460;34.52;275;03.29.15.318
12960;172450;34.52;276;03.29.15.329
12924;172443;34.52;277;03.29.15.329
12920;172448;34.52;278;03.29.15.329
12900;172440;34.52;279;03.29.15.329
12892;172437;34.52;280;03.29.15.329
12916;172434;34.52;281;03.29.15.329
12924;172432;34.52;282;03.29.15.329
12908;172426;34.52;283;03.29.15.329
12916;172418;34.52;284;03.29.15.329
12936;172422;34.52;285;03.29.15.340
12904;172410;34.52;286;03.29.15.340
12920;172406;34.52;287;03.29.15.340
12908;172406;34.52;288;03.29.15.340
12924;172405;34.52;289;03.29.15.340
12924;172403;34.52;290;03.29.15.340
12920;172406;34.52;291;03.29.15.340
12888;172409;34.52;292;03.29.15.351
12924;172405;34.52;293;03.29.15.362
12936;172397;34.52;294;03.29.15.362
12876;172401;34.52;295;03.29.15.362
12936;172403;34.52;296;03.29.15.362
12928;172409;34.52;297;03.29.15.362
12896;172414;34.52;298;03.29.15.362
12924;172413;34.52;299;03.29.15.362
12936;172415;34.52;300;03.29.15.449
12908;172410;34.52;301;03.29.15.449
12932;172412;34.52;302;03.29.15.449
12904;172413;34.52;303;03.29.15.449
12940;172413;34.52;304;03.29.15.449
12884;172408;34.52;305;03.29.15.449
12908;172410;34.52;306;03.29.15.449
12888;172412;34.52;307;03.29.15.449
12912;172410;34.52;308;03.29.15.460
12928;172410;34.52;309;03.29.15.460
12888;172408;34.52;310;03.29.15.460
12904;172420;34.52;311;03.29.15.460
12916;172418;34.52;312;03.29.15.460
12940;172411;34.52;313;03.29.15.460
12908;172413;34.52;314;03.29.15.460
12936;172409;34.52;315;03.29.15.460
12900;172408;34.52;316;03.29.15.460
12892;172401;34.52;317;03.29.15.471
12912;172411;34.52;318;03.29.15.471
12924;172407;34.52;319;03.29.15.471
12884;172414;34.52;320;03.29.15.471
12924;172411;34.52;321;03.29.15.471
12896;172404;34.52;322;03.29.15.471
12896;172409;34.52;323;03.29.15.471
12944;172408;34.52;324;03.29.15.471
12928;172399;34.52;325;03.29.15.581
12920;172411;34.52;326;03.29.15.581
12932;172405;34.52;327;03.29.15.581
12932;172410;34.52;328;03.29.15.581
12936;172416;34.52;329;03.29.15.581
12916;172415;34.52;330;03.29.15.581
12900;172416;34.52;331;03.29.15.582
12912;172411;34.52;332;03.29.15.593
12916;172404;34.52;333;03.29.15.593
12928;172406;34.52;334;03.29.15.593
12940;172422;34.52;335;03.29.15.593
12920;172413;34.52;336;03.29.15.593
12900;172416;34.52;337;03.29.15.593
12952;172415;34.52;338;03.29.15.593
12908;172416;34.52;339;03.29.15.593
12952;172413;34.52;340;03.29.15.593
12924;172413;34.52;341;03.29.15.593
12900;172418;34.52;342;03.29.15.593
12932;172415;34.52;343;03.29.15.593
12900;172416;34.52;344;03.29.15.593
12920;172408;34.52;345;03.29.15.593
12928;172412;34.52;346;03.29.15.604
12904;172413;34.52;347;03.29.15.604
12904;172416;34.52;348;03.29.15.604
12928;172412;34.52;349;03.29.15.604
12912;172413;34.56;350;03.29.15.680
12928;172406;34.56;351;03.29.15.680
12916;172412;34.56;352;03.29.15.680
12904;172417;34.56;353;03.29.15.680
12908;172416;34.56;354;03.29.15.691
12920;172430;34.56;355;03.29.15.691
12908;172426;34.56;356;03.29.15.691
12944;172425;34.56;357;03.29.15.691
12916;172430;34.56;358;03.29.15.691
12904;172426;34.56;359;03.29.15.691
12912;172425;34.56;360;03.29.15.691
12916;172437;34.56;361;03.29.15.691
12912;172426;34.56;362;03.29.15.691
12908;172430;34.56;363;03.29.15.691
12908;172430;34.56;364;03.29.15.702
12924;172428;34.56;365;03.29.15.702
12928;172425;34.56;366;03.29.15.702
12904;172436;34.56;367;03.29.15.713
12976;172437;34.56;368;03.29.15.713
12928;172439;34.56;369;03.29.15.713
12916;172439;34.56;370;03.29.15.713
12916;172440;34.56;371;03.29.15.724
12928;172440;34.56;372;03.29.15.724
12912;172453;34.56;373;03.29.15.724
12908;172446;34.56;374;03.29.15.724
12904;172445;34.56;375;03.29.15.812
12928;172449;34.56;376;03.29.15.812
12908;172446;34.56;377;03.29.15.812
12908;172449;34.56;378;03.29.15.812
12932;172455;34.56;379;03.29.15.812
12892;172459;34.56;380;03.29.15.812
12960;172450;34.56;381;03.29.15.812
12916;172445;34.56;382;03.29.15.812
12928;172456;34.56;383;03.29.15.812
12908;172463;34.56;384;03.29.15.812
12944;172452;34.56;385;03.29.15.823
12916;172463;34.56;386;03.29.15.823
12904;172462;34.56;387;03.29.15.823
12908;172462;34.56;388;03.29.15.823
12908;172470;34.56;389;03.29.15.823
12876;172466;34.56;390;03.29.15.823
12892;172463;34.56;391;03.29.15.823
12892;172466;34.56;392;03.29.15.823
12904;172463;34.56;393;03.29.15.823
12908;172466;34.56;394;03.29.15.823
12916;172471;34.56;395;03.29.15.823
12916;172470;34.56;396;03.29.15.823
12924;172470;34.56;397;03.29.15.823
12920;172474;34.56;398;03.29.15.833
12928;172466;34.56;399;03.29.15.833
12904;172475;34.52;400;03.29.15.942
12904;172474;34.52;401;03.29.15.942
12928;172482;34.52;402;03.29.15.942
12880;172475;34.52;403;03.29.15.942
12916;172477;34.52;404;03.29.15.942
12928;172472;34.52;405;03.29.15.942
12928;172478;34.52;406;03.29.15.942
12920;172484;34.52;407;03.29.15.942
12904;172486;34.52;408;03.29.15.942
12928;172485;34.52;409;03.29.15.953
12892;172489;34.52;410;03.29.15.953
12916;172488;34.52;411;03.29.15.953
12932;172490;34.52;412;03.29.15.953
12936;172495;34.52;413;03.29.15.953
12916;172491;34.52;414;03.29.15.953
12928;172494;34.52;415;03.29.15.953
12936;172496;34.52;416;03.29.15.953
12888;172498;34.52;417;03.29.15.953
12932;172507;34.52;418;03.29.15.953
12904;172502;34.52;419;03.29.15.953
12892;172510;34.52;420;03.29.15.953
12948;172501;34.52;421;03.29.15.953
12920;172513;34.52;422;03.29.15.964
12928;172508;34.52;423;03.29.15.964
12928;172509;34.52;424;03.29.15.964
12904;172512;34.52;425;03.29.16.052
12908;172521;34.52;426;03.29.16.052
12952;172524;34.52;427;03.29.16.052
12916;172515;34.52;428;03.29.16.052
12904;172516;34.52;429;03.29.16.052
12932;172532;34.52;430;03.29.16.063
12876;172527;34.52;431;03.29.16.063
12916;172527;34.52;432;03.29.16.063
12912;172531;34.52;433;03.29.16.074
12928;172539;34.52;434;03.29.16.074
12924;172537;34.52;435;03.29.16.074
12936;172538;34.52;436;03.29.16.074
12896;172536;34.52;437;03.29.16.085
12920;172540;34.52;438;03.29.16.085
12920;172531;34.52;439;03.29.16.085
12896;172541;34.52;440;03.29.16.085
12932;172534;34.52;441;03.29.16.085
12928;172543;34.52;442;03.29.16.085
12908;172538;34.52;443;03.29.16.085
12908;172531;34.52;444;03.29.16.085
12916;172538;34.52;445;03.29.16.085
12904;172520;34.52;446;03.29.16.085
12936;172526;34.52;447;03.29.16.085
12904;172517;34.52;448;03.29.16.085
12932;172511;34.52;449;03.29.16.085
12888;172506;34.56;450;03.29.16.173
12928;172508;34.56;451;03.29.16.173
12904;172502;34.56;452;03.29.16.184
12892;172493;34.56;453;03.29.16.184
12928;172500;34.56;454;03.29.16.184
12908;172487;34.56;455;03.29.16.184
12960;172486;34.56;456;03.29.16.184
12888;172484;34.56;457;03.29.16.184
12916;172481;34.56;458;03.29.16.184
12904;172467;34.56;459;03.29.16.184
12928;172470;34.56;460;03.29.16.184
12928;172467;34.56;461;03.29.16.184
12928;172470;34.56;462;03.29.16.184
12912;172465;34.56;463;03.29.16.184
12892;172463;34.56;464;03.29.16.184
12924;172453;34.56;465;03.29.16.195
12912;172453;34.56;466;03.29.16.195
12928;172453;34.56;467;03.29.16.195
12912;172452;34.56;468;03.29.16.195
12892;172448;34.56;469;03.29.16.195
12916;172448;34.56;470;03.29.16.195
12908;172451;34.56;471;03.29.16.195
12908;172445;34.56;472;03.29.16.195
12920;172455;34.56;473;03.29.16.195
12924;172451;34.56;474;03.29.16.195
12904;172461;34.56;475;03.29.16.305
12896;172455;34.56;476;03.29.16.305
12928;172449;34.56;477;03.29.16.305
12928;172445;34.56;478;03.29.16.305
12928;172447;34.56;479;03.29.16.305
12944;172443;34.56;480;03.29.16.305
12916;172448;34.56;481;03.29.16.305
12936;172447;34.56;482;03.29.16.305
12904;172449;34.56;483;03.29.16.307
12924;172450;34.56;484;03.29.16.307
12920;172452;34.56;485;03.29.16.319
12904;172451;34.56;486;03.29.16.319
12924;172453;34.56;487;03.29.16.319
12896;172451;34.56;488;03.29.16.319
12944;172452;34.56;489;03.29.16.319
12908;172446;34.56;490;03.29.16.319
12908;172448;34.56;491;03.29.16.319
12916;172453;34.56;492;03.29.16.319
12916;172447;34.56;493;03.29.16.319
12864;172453;34.56;494;03.29.16.319
12904;172452;34.56;495;03.29.16.319
12908;172456;34.56;496;03.29.16.319
12920;172459;34.56;497;03.29.16.319
12908;172457;34.56;498;03.29.16.330
12952;172460;34.56;499;03.29.16.330
12920;172459;34.52;500;03.29.16.439
12920;172449;34.52;501;03.29.16.439
12908;172460;34.52;502;03.29.16.439
12892;172464;34.52;503;03.29.16.439
12924;172455;34.52;504;03.29.16.439
12928;172451;34.52;505;03.29.16.439
12904;172454;34.52;506;03.29.16.439
12920;172452;34.52;507;03.29.16.439
12908;172460;34.52;508;03.29.16.450
12940;172458;34.52;509;03.29.16.450
12928;172461;34.52;510;03.29.16.450
12884;172453;34.52;511;03.29.16.450
12912;172464;34.52;512;03.29.16.450
12928;172461;34.52;513;03.29.16.450
12908;172465;34.52;514;03.29.16.450
12916;172459;34.52;515;03.29.16.450
12912;172454;34.52;516;03.29.16.450
12916;172450;34.52;517;03.29.16.450
12936;172461;34.52;518;03.29.16.450
12892;172458;34.52;519;03.29.16.461
12912;172458;34.52;520;03.29.16.461
12912;172463;34.52;521;03.29.16.461
12928;172460;34.52;522;03.29.16.461
12912;172464;34.52;523;03.29.16.461
12932;172456;34.52;524;03.29.16.461
12912;172451;34.52;525;03.29.16.571
12920;172456;34.52;526;03.29.16.571
12920;172459;34.52;527;03.29.16.571
12912;172461;34.52;528;03.29.16.571
12876;172458;34.52;529;03.29.16.571
12944;172465;34.52;530;03.29.16.571
12908;172463;34.52;531;03.29.16.571
12908;172457;34.52;532;03.29.16.582
12944;172469;34.52;533;03.29.16.582
12932;172463;34.52;534;03.29.16.582
12948;172468;34.52;535;03.29.16.582
12920;172469;34.52;536;03.29.16.582
12908;172471;34.52;537;03.29.16.582
12928;172468;34.52;538;03.29.16.582
12892;172470;34.52;539;03.29.16.582
12912;172470;34.52;540;03.29.16.582
12932;172470;34.52;541;03.29.16.582
12936;172475;34.52;542;03.29.16.593
12912;172485;34.52;543;03.29.16.593
12924;172478;34.52;544;03.29.16.593
12928;172477;34.52;545;03.29.16.593
12892;172478;34.52;546;03.29.16.593
12908;172483;34.52;547;03.29.16.593
12944;172476;34.52;548;03.29.16.593
12920;172483;34.52;549;03.29.16.604
12916;172480;34.56;550;03.29.16.681
12912;172486;34.56;551;03.29.16.681
12900;172488;34.56;552;03.29.16.681
12920;172489;34.56;553;03.29.16.681
12920;172487;34.56;554;03.29.16.692
12932;172496;34.56;555;03.29.16.692
12936;172491;34.56;556;03.29.16.692
12920;172495;34.56;557;03.29.16.692
12916;172493;34.56;558;03.29.16.692
12908;172498;34.56;559;03.29.16.692
12924;172505;34.56;560;03.29.16.692
12928;172501;34.56;561;03.29.16.692
12928;172506;34.56;562;03.29.16.692
12908;172507;34.56;563;03.29.16.703
12892;172515;34.56;564;03.29.16.703
12924;172508;34.56;565;03.29.16.703
12896;172507;34.56;566;03.29.16.703
12944;172509;34.56;567;03.29.16.703
12920;172512;34.56;568;03.29.16.703
12920;172511;34.56;569;03.29.16.703
12912;172508;34.56;570;03.29.16.703
12908;172512;34.56;571;03.29.16.714
12932;172518;34.56;572;03.29.16.714
12924;172510;34.56;573;03.29.16.714
12932;172517;34.56;574;03.29.16.714
12916;172508;34.56;575;03.29.16.812
12920;172522;34.56;576;03.29.16.812
12932;172517;34.56;577;03.29.16.812
12928;172518;34.56;578;03.29.16.812
12924;172522;34.56;579;03.29.16.812
12924;172528;34.56;580;03.29.16.812
12928;172530;34.56;581;03.29.16.812
12912;172532;34.56;582;03.29.16.812
12928;172534;34.56;583;03.29.16.812
12944;172530;34.56;584;03.29.16.812
12916;172541;34.56;585;03.29.16.812
12916;172540;34.56;586;03.29.16.812
12928;172535;34.56;587;03.29.16.823
12900;172540;34.56;588;03.29.16.823
12920;172530;34.56;589;03.29.16.823
12920;172534;34.56;590;03.29.16.823
12892;172540;34.56;591;03.29.16.823
12940;172547;34.56;592;03.29.16.823
12928;172541;34.56;593;03.29.16.823
12924;172545;34.56;594;03.29.16.823
12932;172548;34.56;595;03.29.16.823
12920;172553;34.56;596;03.29.16.823
12916;172552;34.56;597;03.29.16.823
12924;172559;34.56;598;03.29.16.823
12932;172558;34.56;599;03.29.16.823
12892;172558;34.52;600;03.29.16.933
12928;172556;34.52;601;03.29.16.933
12928;172562;34.52;602;03.29.16.933
12928;172553;34.52;603;03.29.16.933
12916;172559;34.52;604;03.29.16.933
12904;172558;34.52;605;03.29.16.933
12940;172557;34.52;606;03.29.16.933
12916;172554;34.52;607;03.29.16.933
12916;172554;34.52;608;03.29.16.944
12928;172554;34.52;609;03.29.16.944
12908;172546;34.52;610;03.29.16.944
12888;172545;34.52;611;03.29.16.944
12904;172540;34.52;612;03.29.16.944
12912;172536;34.52;613;03.29.16.944
12916;172532;34.52;614;03.29.16.944
12896;172531;34.52;615;03.29.16.944
12924;172527;34.52;616;03.29.16.944
12928;172528;34.52;617;03.29.16.944
12908;172523;34.52;618;03.29.16.944
12936;172522;34.52;619;03.29.16.955
12944;172511;34.52;620;03.29.16.955
12944;172519;34.52;621;03.29.16.955
12908;172514;34.52;622;03.29.16.955
12900;172509;34.52;623;03.29.16.955
12936;172505;34.52;624;03.29.16.955
12928;172511;34.52;625;03.29.17.065
12908;172516;34.52;626;03.29.17.065
12916;172510;34.52;627;03.29.17.065
12928;172513;34.52;628;03.29.17.065
12928;172506;34.52;629;03.29.17.065
12924;172511;34.52;630;03.29.17.076
12888;172512;34.52;631;03.29.17.076
12884;172522;34.52;632;03.29.17.076
12912;172508;34.52;633;03.29.17.076
12908;172513;34.52;634;03.29.17.076
12892;172516;34.52;635;03.29.17.076
12940;172518;34.52;636;03.29.17.076
12944;172508;34.52;637;03.29.17.076
12916;172512;34.52;638;03.29.17.076
12912;172513;34.52;639;03.29.17.076
12900;172512;34.52;640;03.29.17.076
12936;172513;34.52;641;03.29.17.076
12904;172517;34.52;642;03.29.17.076
12896;172514;34.52;643;03.29.17.087
12916;172520;34.52;644;03.29.17.087
12944;172515;34.52;645;03.29.17.087
12960;172516;34.52;646;03.29.17.087
12908;172513;34.52;647;03.29.17.087
12928;172522;34.52;648;03.29.17.087
12936;172519;34.52;649;03.29.17.087
12912;172520;34.56;650;03.29.17.174
12884;172521;34.56;651;03.29.17.185
12928;172518;34.56;652;03.29.17.185
12936;172520;34.56;653;03.29.17.185
12916;172518;34.56;654;03.29.17.185
12928;172523;34.56;655;03.29.17.185
12928;172528;34.56;656;03.29.17.185
12892;172524;34.56;657;03.29.17.185
12924;172515;34.56;658;03.29.17.185
12944;172516;34.56;659;03.29.17.185
12936;172524;34.56;660;03.29.17.196
12916;172528;34.56;661;03.29.17.196
12892;172519;34.56;662;03.29.17.196
12908;172525;34.56;663;03.29.17.196
12928;172521;34.56;664;03.29.17.196
12920;172524;34.56;665;03.29.17.196
12912;172520;34.56;666;03.29.17.196
12896;172527;34.56;667;03.29.17.196
12912;172515;34.56;668;03.29.17.196
12912;172515;34.56;669;03.29.17.196
12892;172516;34.56;670;03.29.17.196
12924;172521;34.56;671;03.29.17.196
12908;172517;34.56;672;03.29.17.206
12892;172520;34.56;673;03.29.17.206
12928;172510;34.56;674;03.29.17.206
12916;172508;34.56;675;03.29.17.305
12908;172508;34.56;676;03.29.17.305
12928;172504;34.56;677;03.29.17.305
12928;172509;34.56;678;03.29.17.305
12916;172509;34.56;679;03.29.17.305
12936;172506;34.56;680;03.29.17.305
12928;172506;34.56;681;03.29.17.305
12920;172510;34.56;682;03.29.17.305
12920;172507;34.56;683;03.29.17.305
12932;172507;34.56;684;03.29.17.305
12904;172515;34.56;685;03.29.17.316
12928;172514;34.56;686;03.29.17.316
12892;172518;34.56;687;03.29.17.316
12944;172515;34.56;688;03.29.17.316
12928;172518;34.56;689;03.29.17.316
12916;172515;34.56;690;03.29.17.316
12900;172518;34.56;691;03.29.17.316
12920;172521;34.56;692;03.29.17.338
12920;172527;34.56;693;03.29.17.338
12900;172519;34.56;694;03.29.17.338
12892;172535;34.56;695;03.29.17.338
12928;172530;34.56;696;03.29.17.338
12932;172527;34.56;697;03.29.17.338
12916;172531;34.56;698;03.29.17.338
12904;172519;34.56;699;03.29.17.338
12916;172532;34.56;700;03.29.17.425
12896;172528;34.56;701;03.29.17.425
12904;172532;34.56;702;03.29.17.425
12936;172528;34.56;703;03.29.17.425
12912;172526;34.56;704;03.29.17.425
12908;172530;34.56;705;03.29.17.425
12892;172531;34.56;706;03.29.17.436
12944;172534;34.56;707;03.29.17.436
12928;172545;34.56;708;03.29.17.436
12928;172544;34.56;709;03.29.17.436
12928;172538;34.56;710;03.29.17.436
12916;172534;34.56;711;03.29.17.436
12920;172538;34.56;712;03.29.17.436
12920;172547;34.56;713;03.29.17.436
12916;172539;34.56;714;03.29.17.447
12920;172550;34.56;715;03.29.17.447
12916;172552;34.56;716;03.29.17.447
12920;172556;34.56;717;03.29.17.447
12924;172550;34.56;718;03.29.17.447
12908;172550;34.56;719;03.29.17.447
12940;172545;34.56;720;03.29.17.447
12916;172563;34.56;721;03.29.17.447
12904;172557;34.56;722;03.29.17.447
12888;172559;34.56;723;03.29.17.458
12892;172561;34.56;724;03.29.17.458
12928;172557;34.56;725;03.29.17.568
12904;172554;34.56;726;03.29.17.568
12928;172562;34.56;727;03.29.17.579
12908;172555;34.56;728;03.29.17.579
12900;172560;34.56;729;03.29.17.579
12936;172557;34.56;730;03.29.17.579
12928;172567;34.56;731;03.29.17.579
12904;172559;34.56;732;03.29.17.579
12912;172560;34.56;733;03.29.17.579
12896;172560;34.56;734;03.29.17.579
12928;172563;34.56;735;03.29.17.579
12892;172562;34.56;736;03.29.17.579
12916;172561;34.56;737;03.29.17.579
12916;172568;34.56;738;03.29.17.579
12928;172576;34.56;739;03.29.17.590
12916;172578;34.56;740;03.29.17.590
12908;172578;34.56;741;03.29.17.590
12940;172579;34.56;742;03.29.17.590
12932;172573;34.56;743;03.29.17.590
12920;172582;34.56;744;03.29.17.590
12960;172575;34.56;745;03.29.17.590
12924;172583;34.56;746;03.29.17.590
12904;172576;34.56;747;03.29.17.590
12908;172567;34.56;748;03.29.17.590
12916;172571;34.56;749;03.29.17.590
12916;172575;34.56;750;03.29.17.699
12920;172570;34.56;751;03.29.17.699
12936;172559;34.56;752;03.29.17.699
12904;172557;34.56;753;03.29.17.699
12932;172549;34.56;754;03.29.17.699
12904;172552;34.56;755;03.29.17.699
12912;172547;34.56;756;03.29.17.699
12916;172550;34.56;757;03.29.17.699
12948;172542;34.56;758;03.29.17.699
12916;172534;34.56;759;03.29.17.699
12908;172532;34.56;760;03.29.17.699
12936;172530;34.56;761;03.29.17.710
12880;172523;34.56;762;03.29.17.710
12924;172519;34.56;763;03.29.17.710
12892;172511;34.56;764;03.29.17.710
12936;172510;34.56;765;03.29.17.710
12912;172496;34.56;766;03.29.17.710
12916;172493;34.56;767;03.29.17.721
12928;172505;34.56;768;03.29.17.721
12924;172499;34.56;769;03.29.17.721
12908;172490;34.56;770;03.29.17.721
12900;172489;34.56;771;03.29.17.721
12936;172488;34.56;772;03.29.17.721
12916;172492;34.56;773;03.29.17.721
12928;172486;34.56;774;03.29.17.721
12892;172481;34.56;775;03.29.17.809
12912;172485;34.56;776;03.29.17.809
12892;172477;34.56;777;03.29.17.809
12932;172488;34.56;778;03.29.17.809
12892;172484;34.56;779;03.29.17.809
12892;172482;34.56;780;03.29.17.809
12912;172480;34.56;781;03.29.17.809
12904;172475;34.56;782;03.29.17.820
12896;172480;34.56;783;03.29.17.820
12924;172483;34.56;784;03.29.17.820
12900;172474;34.56;785;03.29.17.820
12884;172474;34.56;786;03.29.17.820
12888;172474;34.56;787;03.29.17.820
12908;172482;34.56;788;03.29.17.820
12916;172481;34.56;789;03.29.17.820
12912;172484;34.56;790;03.29.17.820
12920;172479;34.56;791;03.29.17.831
12912;172478;34.56;792;03.29.17.831
12904;172482;34.56;793;03.29.17.831
12884;172474;34.56;794;03.29.17.831
12912;172489;34.56;795;03.29.17.831
12884;172482;34.56;796;03.29.17.831
12900;172485;34.56;797;03.29.17.831
12904;172482;34.56;798;03.29.17.831
12908;172488;34.56;799;03.29.17.842
12908;172484;34.52;800;03.29.17.940
12920;172490;34.52;801;03.29.17.940
12944;172483;34.52;802;03.29.17.951
12944;172487;34.52;803;03.29.17.951
12924;172486;34.52;804;03.29.17.951
12912;172482;34.52;805;03.29.17.951
12928;172487;34.52;806;03.29.17.951
12940;172491;34.52;807;03.29.17.951
12912;172492;34.52;808;03.29.17.951
12920;172491;34.52;809;03.29.17.951
12916;172495;34.52;810;03.29.17.951
12916;172492;34.52;811;03.29.17.951
12936;172494;34.52;812;03.29.17.951
12948;172497;34.52;813;03.29.17.951
12920;172505;34.52;814;03.29.17.961
12908;172496;34.52;815;03.29.17.961
12928;172488;34.52;816;03.29.17.961
12900;172493;34.52;817;03.29.17.961
12904;172490;34.52;818;03.29.17.961
12900;172492;34.52;819;03.29.17.961
12904;172485;34.52;820;03.29.17.961
12936;172483;34.52;821;03.29.17.961
12912;172492;34.52;822;03.29.17.961
12904;172490;34.52;823;03.29.17.961
12920;172490;34.52;824;03.29.17.961
12908;172490;34.52;825;03.29.18.071
12940;172485;34.52;826;03.29.18.071
12928;172483;34.52;827;03.29.18.071
12916;172491;34.52;828;03.29.18.071
12932;172490;34.52;829;03.29.18.071
12928;172491;34.52;830;03.29.18.071
12892;172490;34.52;831;03.29.18.071
12920;172493;34.52;832;03.29.18.071
12916;172485;34.52;833;03.29.18.081
12904;172490;34.52;834;03.29.18.081
12884;172497;34.52;835;03.29.18.081
12924;172489;34.52;836;03.29.18.081
12936;172490;34.52;837;03.29.18.081
12892;172501;34.52;838;03.29.18.081
12908;172492;34.52;839;03.29.18.081
12932;172498;34.52;840;03.29.18.081
12908;172501;34.52;841;03.29.18.081
12928;172496;34.52;842;03.29.18.081
12908;172498;34.52;843;03.29.18.081
12960;172491;34.52;844;03.29.18.092
12928;172501;34.52;845;03.29.18.092
12908;172504;34.52;846;03.29.18.092
12888;172494;34.52;847;03.29.18.092
12912;172491;34.52;848;03.29.18.092
12956;172492;34.52;849;03.29.18.092
12916;172496;34.56;850;03.29.18.202
12920;172502;34.56;851;03.29.18.202
12928;172489;34.56;852;03.29.18.202
12904;172496;34.56;853;03.29.18.202
12912;172494;34.56;854;03.29.18.202
12900;172502;34.56;855;03.29.18.202
12924;172493;34.56;856;03.29.18.202
12920;172494;34.56;857;03.29.18.213
12892;172500;34.56;858;03.29.18.213
12892;172498;34.56;859;03.29.18.213
12892;172494;34.56;860;03.29.18.213
12904;172502;34.56;861;03.29.18.213
12928;172499;34.56;862;03.29.18.213
12908;172500;34.56;863;03.29.18.213
12928;172499;34.56;864;03.29.18.213
12936;172505;34.56;865;03.29.18.213
12900;172497;34.56;866;03.29.18.213
12920;172499;34.56;867;03.29.18.213
12936;172509;34.56;868;03.29.18.213
12952;172509;34.56;869;03.29.18.213
12936;172501;34.56;870;03.29.18.224
12908;172505;34.56;871;03.29.18.224
12892;172503;34.56;872;03.29.18.224
12912;172505;34.56;873;03.29.18.224
12928;172510;34.56;874;03.29.18.224
12924;172506;34.56;875;03.29.18.301
12904;172509;34.56;876;03.29.18.301
12900;172512;34.56;877;03.29.18.301
12912;172506;34.56;878;03.29.18.312
12960;172517;34.56;879;03.29.18.312
12920;172513;34.56;880;03.29.18.312
12928;172509;34.56;881;03.29.18.312
12920;172510;34.56;882;03.29.18.312
12908;172522;34.56;883;03.29.18.312
12920;172514;34.56;884;03.29.18.312
12960;172517;34.56;885;03.29.18.312
12920;172517;34.56;886;03.29.18.312
12940;172522;34.56;887;03.29.18.323
12908;172524;34.56;888;03.29.18.323
12928;172522;34.56;889;03.29.18.323
12932;172527;34.56;890;03.29.18.323
12888;172519;34.56;891;03.29.18.323
12904;172517;34.56;892;03.29.18.334
12924;172518;34.56;893;03.29.18.334
12936;172512;34.56;894;03.29.18.334
12892;172516;34.56;895;03.29.18.345
12892;172511;34.56;896;03.29.18.345
12928;172508;34.56;897;03.29.18.345
12936;172500;34.56;898;03.29.18.345
12944;172492;34.56;899;03.29.18.345
12920;172495;34.52;900;03.29.18.432
12892;172491;34.52;901;03.29.18.432
12904;172489;34.52;902;03.29.18.432
12920;172480;34.52;903;03.29.18.432
12900;172481;34.52;904;03.29.18.432
12896;172473;34.52;905;03.29.18.432
12908;172470;34.52;906;03.29.18.432
12948;172473;34.52;907;03.29.18.432
12924;172473;34.52;908;03.29.18.432
12920;172463;34.52;909;03.29.18.432
12960;172451;34.52;910;03.29.18.432
12908;172461;34.52;911;03.29.18.432
12960;172449;34.52;912;03.29.18.432
12904;172443;34.52;913;03.29.18.443
12916;172446;34.52;914;03.29.18.443
12916;172450;34.52;915;03.29.18.443
12924;172452;34.52;916;03.29.18.443
12912;172445;34.52;917;03.29.18.443
12928;172440;34.52;918;03.29.18.443
12932;172440;34.52;919;03.29.18.443
12928;172433;34.52;920;03.29.18.443
12892;172434;34.52;921;03.29.18.443
12912;172439;34.52;922;03.29.18.443
12928;172426;34.52;923;03.29.18.443
12916;172431;34.52;924;03.29.18.443
12916;172430;34.52;925;03.29.18.564
12900;172423;34.52;926;03.29.18.564
12892;172437;34.52;927;03.29.18.564
12892;172426;34.52;928;03.29.18.564
12900;172420;34.52;929;03.29.18.564
12928;172426;34.52;930;03.29.18.564
12924;172427;34.52;931;03.29.18.564
12904;172421;34.52;932;03.29.18.564
12928;172416;34.52;933;03.29.18.564
12924;172420;34.52;934;03.29.18.575
12928;172420;34.52;935;03.29.18.575
12928;172421;34.52;936;03.29.18.575
12944;172409;34.52;937;03.29.18.575
12908;172427;34.52;938;03.29.18.575
12908;172419;34.52;939;03.29.18.575
12928;172424;34.52;940;03.29.18.575
12892;172424;34.52;941;03.29.18.575
12904;172424;34.52;942;03.29.18.575
12920;172418;34.52;943;03.29.18.575
12912;172424;34.52;944;03.29.18.575
12916;172432;34.52;945;03.29.18.575
12908;172422;34.52;946;03.29.18.575
12920;172423;34.52;947;03.29.18.586
12876;172431;34.52;948;03.29.18.586
12924;172439;34.52;949;03.29.18.586
12928;172425;34.56;950;03.29.18.707
12876;172416;34.56;951;03.29.18.707
12928;172420;34.56;952;03.29.18.707
12916;172426;34.56;953;03.29.18.707
12928;172420;34.56;954;03.29.18.707
12912;172420;34.56;955;03.29.18.718
12944;172428;34.56;956;03.29.18.718
12908;172417;34.56;957;03.29.18.718
12928;172422;34.56;958;03.29.18.718
12920;172427;34.56;959;03.29.18.718
12936;172429;34.56;960;03.29.18.718
12912;172426;34.56;961;03.29.18.718
12924;172430;34.56;962;03.29.18.718
12900;172436;34.56;963;03.29.18.718
12912;172434;34.56;964;03.29.18.728
12916;172427;34.56;965;03.29.18.728
12892;172430;34.56;966;03.29.18.728
12928;172430;34.56;967;03.29.18.739
12924;172424;34.56;968;03.29.18.739
12920;172428;34.56;969;03.29.18.739
12904;172429;34.56;970;03.29.18.739
12892;172428;34.56;971;03.29.18.751
12940;172422;34.56;972;03.29.18.751
12892;172435;34.56;973;03.29.18.751
12936;172432;34.56;974;03.29.18.751
12908;172434;34.56;975;03.29.18.806
12904;172425;34.56;976;03.29.18.806
12932;172438;34.56;977;03.29.18.806
12912;172441;34.56;978;03.29.18.817
12908;172446;34.56;979;03.29.18.817
12908;172441;34.56;980;03.29.18.817
12936;172436;34.56;981;03.29.18.817
12908;172432;34.56;982;03.29.18.817
12892;172441;34.56;983;03.29.18.839
12916;172445;34.56;984;03.29.18.839
12892;172445;34.56;985;03.29.18.839
12908;172443;34.56;986;03.29.18.850
12916;172447;34.56;987;03.29.18.850
12920;172440;34.56;988;03.29.18.850
12908;172450;34.56;989;03.29.18.850
12912;172456;34.56;990;03.29.18.850
12916;172448;34.56;991;03.29.18.850
12908;172450;34.56;992;03.29.18.850
12920;172458;34.56;993;03.29.18.850
12936;172462;34.56;994;03.29.18.850
12936;172463;34.56;995;03.29.18.850
12912;172464;34.56;996;03.29.18.850
12908;172457;34.56;997;03.29.18.850
12952;172462;34.56;998;03.29.18.850
12936;172461;34.56;999;03.29.18.861
12944;172469;34.56;000;03.29.18.938
12908;172475;34.56;001;03.29.18.938
12944;172463;34.56;002;03.29.18.938
12912;172479;34.56;003;03.29.18.938
12920;172478;34.56;004;03.29.18.938
12924;172481;34.56;005;03.29.18.938
12948;172477;34.56;006;03.29.18.938
12892;172486;34.56;007;03.29.18.938
12900;172490;34.56;008;03.29.18.949
12920;172483;34.56;009;03.29.18.949
12892;172473;34.56;010;03.29.18.949
12928;172484;34.56;011;03.29.18.949
12892;172495;34.56;012;03.29.18.949
12920;172489;34.56;013;03.29.18.949
12936;172487;34.56;014;03.29.18.949
12940;172491;34.56;015;03.29.18.949
12924;172497;34.56;016;03.29.18.949
12924;172495;34.56;017;03.29.18.971
12892;172499;34.56;018;03.29.18.971
12896;172508;34.56;019;03.29.18.971
12892;172493;34.56;020;03.29.18.971
12948;172502;34.56;021;03.29.18.971
12944;172511;34.56;022;03.29.18.971
12916;172506;34.56;023;03.29.18.971
12928;172512;34.56;024;03.29.18.971
12900;172510;34.56;025;03.29.19.070
12916;172513;34.56;026;03.29.19.070
12928;172508;34.56;027;03.29.19.070
12900;172515;34.56;028;03.29.19.070
12912;172517;34.56;029;03.29.19.070
12900;172517;34.56;030;03.29.19.070
12912;172522;34.56;031;03.29.19.070
12928;172521;34.56;032;03.29.19.081
12936;172526;34.56;033;03.29.19.081
12908;172519;34.56;034;03.29.19.081
12916;172516;34.56;035;03.29.19.081
12904;172513;34.56;036;03.29.19.081
12928;172523;34.56;037;03.29.19.081
12900;172514;34.56;038;03.29.19.081
12892;172507;34.56;039;03.29.19.081
12904;172511;34.56;040;03.29.19.081
12928;172501;34.56;041;03.29.19.081
12892;172498;34.56;042;03.29.19.102
12916;172487;34.56;043;03.29.19.102
12916;172492;34.56;044;03.29.19.102
12928;172482;34.56;045;03.29.19.102
12916;172483;34.56;046;03.29.19.102
12928;172478;34.56;047;03.29.19.102
12912;172477;34.56;048;03.29.19.102
12904;172473;34.56;049;03.29.19.102
12900;172475;34.56;050;03.29.19.189
12892;172464;34.56;051;03.29.19.189
12924;172460;34.56;052;03.29.19.189
12916;172464;34.56;053;03.29.19.200
12912;172455;34.56;054;03.29.19.200
12912;172454;34.56;055;03.29.19.200
12908;172448;34.56;056;03.29.19.200
12928;172447;34.56;057;03.29.19.200
12944;172443;34.56;058;03.29.19.200
12916;172445;34.56;059;03.29.19.200
12908;172437;34.56;060;03.29.19.200
12904;172442;34.56;061;03.29.19.200
12920;172436;34.56;062;03.29.19.200
12912;172426;34.56;063;03.29.19.200
12904;172424;34.56;064;03.29.19.200
12912;172427;34.56;065;03.29.19.211
12932;172428;34.56;066;03.29.19.211
12900;172418;34.56;067;03.29.19.211
12908;172422;34.56;068;03.29.19.211
12928;172422;34.56;069;03.29.19.211
12928;172430;34.56;070;03.29.19.211
12892;172428;34.56;071;03.29.19.211
12912;172435;34.56;072;03.29.19.211
12908;172433;34.56;073;03.29.19.211
12936;172427;34.56;074;03.29.19.211
12908;172425;34.56;075;03.29.19.331
12932;172427;34.56;076;03.29.19.331
12908;172421;34.56;077;03.29.19.331
12892;172427;34.56;078;03.29.19.331
12892;172430;34.56;079;03.29.19.331
12916;172423;34.56;080;03.29.19.331
12880;172430;34.56;081;03.29.19.331
12924;172430;34.56;082;03.29.19.331
12884;172425;34.56;083;03.29.19.331
12916;172430;34.56;084;03.29.19.331
12928;172438;34.56;085;03.29.19.331
12932;172432;34.56;086;03.29.19.331
12920;172431;34.56;087;03.29.19.331
12928;172441;34.56;088;03.29.19.342
12904;172440;34.56;089;03.29.19.342
12908;172443;34.56;090;03.29.19.342
12908;172444;34.56;091;03.29.19.342
12928;172441;34.56;092;03.29.19.342
12920;172434;34.56;093;03.29.19.342
12912;172449;34.56;094;03.29.19.342
12920;172442;34.56;095;03.29.19.342
12908;172447;34.56;096;03.29.19.342
12932;172451;34.56;097;03.29.19.342
12928;172450;34.56;098;03.29.19.342
12932;172445;34.56;099;03.29.19.342
12916;172447;34.52;100;03.29.19.430
12908;172450;34.52;101;03.29.19.430
12912;172441;34.52;102;03.29.19.430
12928;172454;34.52;103;03.29.19.430
12904;172449;34.52;104;03.29.19.430
12944;172444;34.52;105;03.29.19.430
12928;172450;34.52;106;03.29.19.430
12936;172452;34.52;107;03.29.19.430
12928;172446;34.52;108;03.29.19.430
12916;172438;34.52;109;03.29.19.441
12908;172437;34.52;110;03.29.19.441
12912;172435;34.52;111;03.29.19.441
12912;172441;34.52;112;03.29.19.441
12928;172444;34.52;113;03.29.19.441
12928;172436;34.52;114;03.29.19.441
12936;172438;34.52;115;03.29.19.441
12912;172434;34.52;116;03.29.19.441
12900;172429;34.52;117;03.29.19.463
12904;172434;34.52;118;03.29.19.463
12892;172427;34.52;119;03.29.19.463
12936;172424;34.52;120;03.29.19.463
12936;172425;34.52;121;03.29.19.463
12924;172422;34.52;122;03.29.19.463
12944;172436;34.52;123;03.29.19.463
12920;172422;34.52;124;03.29.19.463
12912;172435;34.52;125;03.29.19.551
12920;172431;34.52;126;03.29.19.551
12908;172414;34.52;127;03.29.19.551
12876;172413;34.52;128;03.29.19.551
12928;172417;34.52;129;03.29.19.551
12916;172424;34.52;130;03.29.19.551
12928;172422;34.52;131;03.29.19.562
12908;172417;34.52;132;03.29.19.562
12908;172417;34.52;133;03.29.19.562
12900;172432;34.52;134;03.29.19.562
12916;172433;34.52;135;03.29.19.562
12892;172439;34.52;136;03.29.19.562
12892;172437;34.52;137;03.29.19.562
12912;172439;34.52;138;03.29.19.562
12904;172442;34.52;139;03.29.19.562
12936;172454;34.52;140;03.29.19.562
12924;172457;34.52;141;03.29.19.562
12948;172457;34.52;142;03.29.19.562
12936;172462;34.52;143;03.29.19.573
12920;172465;34.52;144;03.29.19.573
12912;172464;34.52;145;03.29.19.573
12904;172463;34.52;146;03.29.19.573
12928;172469;34.52;147;03.29.19.573
12904;172471;34.52;148;03.29.19.573
12928;172473;34.52;149;03.29.19.573
12920;172471;34.52;150;03.29.19.693
12896;172470;34.52;151;03.29.19.704
12892;172483;34.52;152;03.29.19.704
12912;172474;34.52;153;03.29.19.704
12944;172467;34.52;154;03.29.19.704
12920;172468;34.52;155;03.29.19.704
12884;172469;34.52;156;03.29.19.704
12924;172479;34.52;157;03.29.19.704
12904;172477;34.52;158;03.29.19.704
12928;172473;34.52;159;03.29.19.704
12904;172469;34.52;160;03.29.19.704
12892;172469;34.52;161;03.29.19.704
12928;172466;34.52;162;03.29.19.704
12900;172472;34.52;163;03.29.19.704
12892;172470;34.52;164;03.29.19.715
12900;172476;34.52;165;03.29.19.715
12936;172470;34.52;166;03.29.19.715
12904;172474;34.52;167;03.29.19.715
12916;172479;34.52;168;03.29.19.715
12912;172480;34.52;169;03.29.19.715
12904;172484;34.52;170;03.29.19.715
12916;172488;34.52;171;03.29.19.715
12920;172484;34.52;172;03.29.19.715
12900;172493;34.52;173;03.29.19.715
12924;172487;34.52;174;03.29.19.715
12920;172492;34.52;175;03.29.19.825
12928;172490;34.52;176;03.29.19.825
12900;172489;34.52;177;03.29.19.825
12932;172491;34.52;178;03.29.19.825
12924;172489;34.52;179;03.29.19.825
12908;172491;34.52;180;03.29.19.825
12900;172488;34.52;181;03.29.19.825
12932;172485;34.52;182;03.29.19.825
12916;172503;34.52;183;03.29.19.825
12944;172487;34.52;184;03.29.19.825
12916;172494;34.52;185;03.29.19.836
12916;172484;34.52;186;03.29.19.836
12912;172487;34.52;187;03.29.19.836
12924;172494;34.52;188;03.29.19.836
12924;172495;34.52;189;03.29.19.836
12904;172484;34.52;190;03.29.19.836
12932;172479;34.52;191;03.29.19.836
12892;172477;34.52;192;03.29.19.836
12892;172474;34.52;193;03.29.19.836
12916;172482;34.52;194;03.29.19.836
12936;172467;34.52;195;03.29.19.836
12896;172478;34.52;196;03.29.19.836
12940;172475;34.52;197;03.29.19.836
12916;172476;34.52;198;03.29.19.847
12932;172473;34.52;199;03.29.19.847
12912;172474;34.52;200;03.29.19.957
12908;172477;34.52;201;03.29.19.957
12892;172474;34.52;202;03.29.19.957
12928;172465;34.52;203;03.29.19.957
12916;172466;34.52;204;03.29.19.957
12916;172466;34.52;205;03.29.19.957
12928;172468;34.52;206;03.29.19.958
12928;172466;34.52;207;03.29.19.969
12912;172474;34.52;208;03.29.19.969
12940;172475;34.52;209;03.29.19.969
12928;172494;34.52;210;03.29.19.969
12920;172489;34.52;211;03.29.19.969
12936;172500;34.52;212;03.29.19.969
12932;172510;34.52;213;03.29.19.969
12944;172515;34.52;214;03.29.19.969
12904;172527;34.52;215;03.29.19.969
12908;172534;34.52;216;03.29.19.969
12932;172547;34.52;217;03.29.19.969
12912;172554;34.52;218;03.29.19.969
12940;172558;34.52;219;03.29.19.969
12900;172562;34.52;220;03.29.19.970
12920;172560;34.52;221;03.29.19.981
12892;172568;34.52;222;03.29.19.981
12944;172570;34.52;223;03.29.19.981
12908;172575;34.52;224;03.29.19.981
12916;172585;34.52;225;03.29.20.057
12900;172588;34.52;226;03.29.20.057
12928;172598;34.52;227;03.29.20.057
12908;172600;34.52;228;03.29.20.057
12916;172610;34.52;229;03.29.20.057
12920;172618;34.52;230;03.29.20.068
12896;172622;34.52;231;03.29.20.068
12908;172632;34.52;232;03.29.20.068
12928;172637;34.52;233;03.29.20.068
12912;172648;34.52;234;03.29.20.068
12912;172663;34.52;235;03.29.20.068
12932;172679;34.52;236;03.29.20.068
12884;172702;34.52;237;03.29.20.068
12900;172718;34.52;238;03.29.20.068
12908;172739;34.52;239;03.29.20.068
12912;172762;34.52;240;03.29.20.068
12932;172785;34.52;241;03.29.20.068
12924;172803;34.52;242;03.29.20.068
12888;172827;34.52;243;03.29.20.080
12916;172846;34.52;244;03.29.20.080
12912;172871;34.52;245;03.29.20.080
12928;172880;34.52;246;03.29.20.080
12916;172894;34.52;247;03.29.20.080
12932;172914;34.52;248;03.29.20.080
12944;172932;34.52;249;03.29.20.080
12912;172933;34.56;250;03.29.20.179
12904;172952;34.56;251;03.29.20.179
12892;172965;34.56;252;03.29.20.179
12888;172975;34.56;253;03.29.20.179
12916;172974;34.56;254;03.29.20.190
12928;172980;34.56;255;03.29.20.190
12892;172987;34.56;256;03.29.20.190
12904;173000;34.56;257;03.29.20.190
12936;172993;34.56;258;03.29.20.190
12908;172998;34.56;259;03.29.20.190
12928;172999;34.56;260;03.29.20.190
12892;173003;34.56;261;03.29.20.201
12900;173004;34.56;262;03.29.20.201
12920;173002;34.56;263;03.29.20.201
12892;173011;34.56;264;03.29.20.201
12916;172996;34.56;265;03.29.20.201
12936;173003;34.56;266;03.29.20.201
12908;173002;34.56;267;03.29.20.201
12892;172991;34.56;268;03.29.20.201
12904;172982;34.56;269;03.29.20.201
12892;172975;34.56;270;03.29.20.201
12928;172971;34.56;271;03.29.20.201
12904;172953;34.56;272;03.29.20.201
12908;172955;34.56;273;03.29.20.201
12936;172949;34.56;274;03.29.20.201
12920;172934;34.56;275;03.29.20.322
12924;172924;34.56;276;03.29.20.322
12892;172927;34.56;277;03.29.20.322
12908;172918;34.56;278;03.29.20.322
12948;172918;34.56;279;03.29.20.322
12936;172916;34.56;280;03.29.20.322
12920;172913;34.56;281;03.29.20.322
12912;172901;34.56;282;03.29.20.322
12904;172902;34.56;283;03.29.20.322
12908;172907;34.56;284;03.29.20.322
12932;172908;34.56;285;03.29.20.322
12900;172909;34.56;286;03.29.20.322
12916;172910;34.56;287;03.29.20.322
12928;172916;34.56;288;03.29.20.333
12908;172917;34.56;289;03.29.20.333
12920;172918;34.56;290;03.29.20.333
12908;172919;34.56;291;03.29.20.333
12916;172925;34.56;292;03.29.20.333
12916;172934;34.56;293;03.29.20.333
12916;172946;34.56;294;03.29.20.333
12928;172949;34.56;295;03.29.20.333
12924;172957;34.56;296;03.29.20.333
12916;172965;34.56;297;03.29.20.333
12908;172978;34.56;298;03.29.20.333
12928;172995;34.56;299;03.29.20.333
12916;172985;34.52;300;03.29.20.432
12928;172990;34.52;301;03.29.20.432
12928;173004;34.52;302;03.29.20.432
12936;173011;34.52;303;03.29.20.432
12908;173015;34.52;304;03.29.20.432
12960;173006;34.52;305;03.29.20.432
12920;173009;34.52;306;03.29.20.432
12916;173017;34.52;307;03.29.20.432
12928;173023;34.52;308;03.29.20.444
12924;173036;34.52;309;03.29.20.444
12920;173033;34.52;310;03.29.20.444
12892;173030;34.52;311;03.29.20.444
12944;173032;34.52;312;03.29.20.444
12928;173030;34.52;313;03.29.20.444
12908;173024;34.52;314;03.29.20.444
12908;173018;34.52;315;03.29.20.444
12908;173012;34.52;316;03.29.20.444
12916;173012;34.52;317;03.29.20.455
12900;173011;34.52;318;03.29.20.455
12888;173013;34.52;319;03.29.20.455
12940;173007;34.52;320;03.29.20.455
12916;173013;34.52;321;03.29.20.455
12912;173021;34.52;322;03.29.20.455
12908;173020;34.52;323;03.29.20.455
12936;173022;34.52;324;03.29.20.455
12912;173041;34.52;325;03.29.20.557
12916;173030;34.52;326;03.29.20.557
12892;173036;34.52;327;03.29.20.557
12912;173038;34.52;328;03.29.20.557
12948;173045;34.52;329;03.29.20.557
12892;173042;34.52;330;03.29.20.557
12916;173050;34.52;331;03.29.20.557
12916;173047;34.52;332;03.29.20.557
12896;173049;34.52;333;03.29.20.557
12928;173047;34.52;334;03.29.20.557
12908;173053;34.52;335;03.29.20.557
12920;173053;34.52;336;03.29.20.568
12904;173050;34.52;337;03.29.20.568
12904;173056;34.52;338;03.29.20.568
12908;173056;34.52;339;03.29.20.568
12904;173056;34.52;340;03.29.20.568
12932;173070;34.52;341;03.29.20.568
12916;173075;34.52;342;03.29.20.568
12928;173078;34.52;343;03.29.20.568
12924;173079;34.52;344;03.29.20.568
12904;173083;34.52;345;03.29.20.568
12916;173086;34.52;346;03.29.20.568
12912;173084;34.52;347;03.29.20.568
12936;173078;34.52;348;03.29.20.568
12940;173077;34.52;349;03.29.20.579
12920;173074;34.52;350;03.29.20.688
12916;173071;34.52;351;03.29.20.688
12904;173067;34.52;352;03.29.20.688
12896;173053;34.52;353;03.29.20.688
12924;173042;34.52;354;03.29.20.688
12892;173031;34.52;355;03.29.20.688
12908;173034;34.52;356;03.29.20.688
12924;173023;34.52;357;03.29.20.700
12892;173021;34.52;358;03.29.20.700
12912;173016;34.52;359;03.29.20.700
12876;173023;34.52;360;03.29.20.700
12888;173016;34.52;361;03.29.20.700
12904;173026;34.52;362;03.29.20.700
12928;173021;34.52;363;03.29.20.700
12908;173031;34.52;364;03.29.20.700
12928;173036;34.52;365;03.29.20.700
12928;173043;34.52;366;03.29.20.701
12916;173044;34.52;367;03.29.20.767
12928;173051;34.52;368;03.29.20.767
12916;173058;34.52;369;03.29.20.767
12888;173059;34.52;370;03.29.20.767
12916;173075;34.52;371;03.29.20.767
12928;173079;34.52;372;03.29.20.767
12908;173087;34.52;373;03.29.20.767
12952;173099;34.52;374;03.29.20.767
12928;173117;34.52;375;03.29.20.811
12924;173121;34.52;376;03.29.20.811
12908;173136;34.52;377;03.29.20.811
12904;173163;34.52;378;03.29.20.811
12908;173160;34.52;379;03.29.20.811
12920;173171;34.52;380;03.29.20.822
12928;173181;34.52;381;03.29.20.822
12900;173194;34.52;382;03.29.20.822
12916;173196;34.52;383;03.29.20.822
12920;173206;34.52;384;03.29.20.822
12920;173205;34.52;385;03.29.20.822
12916;173204;34.52;386;03.29.20.822
12892;173208;34.52;387;03.29.20.822
12916;173211;34.52;388;03.29.20.822
12908;173209;34.52;389;03.29.20.822
12920;173216;34.52;390;03.29.20.822
12892;173224;34.52;391;03.29.20.822
12912;173221;34.52;392;03.29.20.822
12920;173228;34.52;393;03.29.20.833
12920;173223;34.52;394;03.29.20.833
12892;173225;34.52;395;03.29.20.833
12908;173229;34.52;396;03.29.20.833
12944;173228;34.52;397;03.29.20.833
12908;173230;34.52;398;03.29.20.833
12928;173237;34.52;399;03.29.20.833
12904;173235;34.52;400;03.29.20.954
12908;173239;34.52;401;03.29.20.954
12924;173242;34.52;402;03.29.20.954
12928;173237;34.52;403;03.29.20.954
12912;173242;34.52;404;03.29.20.954
12912;173237;34.52;405;03.29.20.954
12916;173242;34.52;406;03.29.20.954
12888;173249;34.52;407;03.29.20.954
12912;173237;34.52;408;03.29.20.954
12892;173252;34.52;409;03.29.20.954
12936;173245;34.52;410;03.29.20.954
12904;173246;34.52;411;03.29.20.954
12904;173253;34.52;412;03.29.20.954
12908;173249;34.52;413;03.29.20.954
12900;173250;34.52;414;03.29.20.954
12888;173244;34.52;415;03.29.20.954
12908;173257;34.52;416;03.29.20.955
12908;173250;34.52;417;03.29.20.966
12936;173245;34.52;418;03.29.20.966
12884;173247;34.52;419;03.29.20.966
12920;173243;34.52;420;03.29.20.966
12928;173249;34.52;421;03.29.20.966
12928;173241;34.52;422;03.29.20.966
12960;173237;34.52;423;03.29.20.966
12944;173237;34.52;424;03.29.20.966
12928;173241;34.52;425;03.29.21.065
12928;173240;34.52;426;03.29.21.065
12912;173243;34.52;427;03.29.21.065
12928;173237;34.52;428;03.29.21.065
12900;173239;34.52;429;03.29.21.065
12908;173244;34.52;430;03.29.21.065
12924;173240;34.52;431;03.29.21.065
12896;173252;34.52;432;03.29.21.065
12904;173254;34.52;433;03.29.21.077
12920;173262;34.52;434;03.29.21.077
12884;173260;34.52;435;03.29.21.077
12932;173265;34.52;436;03.29.21.077
12920;173263;34.52;437;03.29.21.077
12944;173253;34.52;438;03.29.21.077
12924;173266;34.52;439;03.29.21.077
12892;173276;34.52;440;03.29.21.077
12908;173276;34.52;441;03.29.21.077
12916;173277;34.52;442;03.29.21.077
12928;173281;34.52;443;03.29.21.077
12928;173284;34.52;444;03.29.21.077
12912;173276;34.52;445;03.29.21.077
12936;173281;34.52;446;03.29.21.077
12928;173271;34.52;447;03.29.21.089
12892;173280;34.52;448;03.29.21.089
12932;173273;34.52;449;03.29.21.089
12912;173278;34.52;450;03.29.21.188
12908;173278;34.52;451;03.29.21.188
12912;173278;34.52;452;03.29.21.188
12916;173273;34.52;453;03.29.21.188
12920;173279;34.52;454;03.29.21.188
12872;173266;34.52;455;03.29.21.188
12908;173263;34.52;456;03.29.21.188
12892;173260;34.52;457;03.29.21.188
12916;173256;34.52;458;03.29.21.188
12908;173252;34.52;459;03.29.21.188
12940;173244;34.52;460;03.29.21.188
12908;173243;34.52;461;03.29.21.199
12900;173226;34.52;462;03.29.21.199
12908;173214;34.52;463;03.29.21.199
12884;173211;34.52;464;03.29.21.199
12900;173204;34.52;465;03.29.21.199
12928;173192;34.52;466;03.29.21.199
12904;173173;34.52;467;03.29.21.199
12920;173168;34.52;468;03.29.21.199
12928;173162;34.52;469;03.29.21.199
12912;173152;34.52;470;03.29.21.199
12884;173135;34.52;471;03.29.21.199
12936;173128;34.52;472;03.29.21.210
12916;173118;34.52;473;03.29.21.210
12928;173105;34.52;474;03.29.21.210
12900;173095;34.52;475;03.29.21.307
12916;173098;34.52;476;03.29.21.307
12920;173090;34.52;477;03.29.21.307
12904;173071;34.52;478;03.29.21.307
12912;173070;34.52;479;03.29.21.307
12928;173067;34.52;480;03.29.21.307
12928;173058;34.52;481;03.29.21.307
