gsr; bvp; skt; skt2; Cont; time
12876;000815;34.80;600;03.41.34.210
12876;057573;34.80;601;03.41.34.210
12888;073975;34.80;602;03.41.34.210
12896;090339;34.80;603;03.41.34.210
12892;106743;34.80;604;03.41.34.210
12920;123081;34.80;605;03.41.34.221
12908;139492;34.80;606;03.41.34.221
12884;155873;34.80;607;03.41.34.221
12920;171013;34.80;608;03.41.34.232
12928;170737;34.80;609;03.41.34.232
12916;170741;34.80;610;03.41.34.232
12924;170746;34.80;611;03.41.34.232
12904;170732;34.80;612;03.41.34.232
12920;170737;34.80;613;03.41.34.243
12892;170723;34.80;614;03.41.34.243
12872;170732;34.80;615;03.41.34.243
12900;170722;34.80;616;03.41.34.243
12896;170724;34.80;617;03.41.34.243
12892;170730;34.80;618;03.41.34.243
12896;170728;34.80;619;03.41.34.243
12884;170720;34.80;620;03.41.34.243
12892;170727;34.80;621;03.41.34.243
12896;170725;34.80;622;03.41.34.243
12900;170725;34.80;623;03.41.34.243
12936;170720;34.80;624;03.41.34.243
12916;170725;34.80;625;03.41.34.331
12880;170728;34.80;626;03.41.34.341
12900;170728;34.80;627;03.41.34.341
12900;170726;34.80;628;03.41.34.341
12928;170725;34.80;629;03.41.34.341
12920;170723;34.80;630;03.41.34.341
12916;170722;34.80;631;03.41.34.341
12904;170715;34.80;632;03.41.34.341
12884;170719;34.80;633;03.41.34.385
12912;170725;34.80;634;03.41.34.385
12904;170717;34.80;635;03.41.34.385
12904;170711;34.80;636;03.41.34.385
12892;170714;34.80;637;03.41.34.385
12908;170717;34.80;638;03.41.34.385
12928;170714;34.80;639;03.41.34.385
12908;170713;34.80;640;03.41.34.385
12892;170714;34.80;641;03.41.34.385
12908;170715;34.80;642;03.41.34.396
12912;170710;34.80;643;03.41.34.396
12928;170707;34.80;644;03.41.34.396
12908;170711;34.80;645;03.41.34.396
12920;170717;34.80;646;03.41.34.396
12888;170718;34.80;647;03.41.34.396
12928;170719;34.80;648;03.41.34.396
12920;170710;34.80;649;03.41.34.396
12892;170716;34.80;650;03.41.34.462
12888;170716;34.80;651;03.41.34.462
12928;170709;34.80;652;03.41.34.462
12860;170715;34.80;653;03.41.34.462
12916;170707;34.80;654;03.41.34.462
12904;170718;34.80;655;03.41.34.462
12928;170719;34.80;656;03.41.34.462
12928;170722;34.80;657;03.41.34.462
12896;170719;34.80;658;03.41.34.462
12900;170718;34.80;659;03.41.34.473
12932;170715;34.80;660;03.41.34.473
12884;170726;34.80;661;03.41.34.473
12904;170729;34.80;662;03.41.34.473
12860;170731;34.80;663;03.41.34.473
12888;170728;34.80;664;03.41.34.473
12924;170723;34.80;665;03.41.34.473
12904;170728;34.80;666;03.41.34.473
12912;170727;34.80;667;03.41.34.484
12928;170735;34.80;668;03.41.34.484
12920;170731;34.80;669;03.41.34.484
12896;170728;34.80;670;03.41.34.484
12908;170734;34.80;671;03.41.34.484
12904;170726;34.80;672;03.41.34.484
12892;170725;34.80;673;03.41.34.484
12916;170733;34.80;674;03.41.34.484
12876;170732;34.80;675;03.41.34.593
12944;170731;34.80;676;03.41.34.593
12888;170737;34.80;677;03.41.34.593
12908;170740;34.80;678;03.41.34.593
12928;170742;34.80;679;03.41.34.593
12892;170743;34.80;680;03.41.34.604
12908;170750;34.80;681;03.41.34.604
12904;170748;34.80;682;03.41.34.604
12928;170748;34.80;683;03.41.34.604
12916;170754;34.80;684;03.41.34.604
12920;170755;34.80;685;03.41.34.604
12928;170744;34.80;686;03.41.34.604
12908;170755;34.80;687;03.41.34.604
12888;170756;34.80;688;03.41.34.604
12924;170751;34.80;689;03.41.34.604
12888;170752;34.80;690;03.41.34.604
12896;170756;34.80;691;03.41.34.604
12908;170754;34.80;692;03.41.34.604
12888;170762;34.80;693;03.41.34.615
12884;170758;34.80;694;03.41.34.615
12896;170762;34.80;695;03.41.34.615
12904;170759;34.80;696;03.41.34.615
12884;170769;34.80;697;03.41.34.615
12876;170767;34.80;698;03.41.34.615
12924;170766;34.80;699;03.41.34.615
12884;170766;34.80;700;03.41.34.703
12916;170769;34.80;701;03.41.34.703
12892;170768;34.80;702;03.41.34.703
12896;170767;34.80;703;03.41.34.714
12928;170766;34.80;704;03.41.34.714
12912;170759;34.80;705;03.41.34.714
12900;170752;34.80;706;03.41.34.714
12908;170751;34.80;707;03.41.34.714
12892;170746;34.80;708;03.41.34.725
12900;170739;34.80;709;03.41.34.725
12896;170732;34.80;710;03.41.34.725
12892;170732;34.80;711;03.41.34.725
12920;170737;34.80;712;03.41.34.725
12920;170726;34.80;713;03.41.34.725
12888;170721;34.80;714;03.41.34.725
12904;170721;34.80;715;03.41.34.725
12896;170705;34.80;716;03.41.34.725
12912;170703;34.80;717;03.41.34.725
12928;170705;34.80;718;03.41.34.725
12892;170707;34.80;719;03.41.34.725
12892;170700;34.80;720;03.41.34.725
12900;170691;34.80;721;03.41.34.725
12920;170691;34.80;722;03.41.34.736
12904;170686;34.80;723;03.41.34.736
12928;170690;34.80;724;03.41.34.736
12912;170686;34.80;725;03.41.34.835
12892;170676;34.80;726;03.41.34.835
12892;170681;34.80;727;03.41.34.835
12928;170673;34.80;728;03.41.34.835
12908;170676;34.80;729;03.41.34.835
12912;170682;34.80;730;03.41.34.835
12900;170674;34.80;731;03.41.34.835
12900;170676;34.80;732;03.41.34.835
12908;170670;34.80;733;03.41.34.835
12896;170675;34.80;734;03.41.34.835
12916;170672;34.80;735;03.41.34.835
12928;170668;34.80;736;03.41.34.846
12892;170668;34.80;737;03.41.34.846
12908;170671;34.80;738;03.41.34.846
12932;170677;34.80;739;03.41.34.846
12944;170675;34.80;740;03.41.34.846
12928;170679;34.80;741;03.41.34.846
12928;170678;34.80;742;03.41.34.846
12912;170673;34.80;743;03.41.34.846
12904;170676;34.80;744;03.41.34.846
12880;170686;34.80;745;03.41.34.846
12892;170675;34.80;746;03.41.34.846
12908;170673;34.80;747;03.41.34.857
12928;170681;34.80;748;03.41.34.857
12920;170679;34.80;749;03.41.34.857
12920;170677;34.80;750;03.41.34.955
12912;170680;34.80;751;03.41.34.955
12904;170672;34.80;752;03.41.34.955
12888;170688;34.80;753;03.41.34.955
12900;170695;34.80;754;03.41.34.955
12920;170680;34.80;755;03.41.34.955
12892;170671;34.80;756;03.41.34.955
12900;170682;34.80;757;03.41.34.966
12928;170683;34.80;758;03.41.34.966
12888;170678;34.80;759;03.41.34.966
12900;170679;34.80;760;03.41.34.966
12928;170682;34.80;761;03.41.34.966
12888;170687;34.80;762;03.41.34.966
12908;170682;34.80;763;03.41.34.966
12892;170685;34.80;764;03.41.34.966
12932;170679;34.80;765;03.41.34.966
12936;170685;34.80;766;03.41.34.966
12900;170684;34.80;767;03.41.34.977
12892;170691;34.80;768;03.41.34.977
12892;170686;34.80;769;03.41.34.977
12860;170686;34.80;770;03.41.34.977
12884;170687;34.80;771;03.41.34.977
12912;170692;34.80;772;03.41.34.977
12924;170688;34.80;773;03.41.34.977
12912;170682;34.80;774;03.41.34.977
12900;170691;34.80;775;03.41.35.098
12904;170684;34.80;776;03.41.35.098
12908;170692;34.80;777;03.41.35.098
12892;170689;34.80;778;03.41.35.109
12888;170690;34.80;779;03.41.35.109
12924;170693;34.80;780;03.41.35.109
12904;170691;34.80;781;03.41.35.109
12892;170687;34.80;782;03.41.35.109
12908;170691;34.80;783;03.41.35.109
12940;170694;34.80;784;03.41.35.109
12900;170695;34.80;785;03.41.35.109
12888;170689;34.80;786;03.41.35.109
12872;170688;34.80;787;03.41.35.109
12928;170693;34.80;788;03.41.35.109
12908;170695;34.80;789;03.41.35.109
12888;170702;34.80;790;03.41.35.109
12892;170695;34.80;791;03.41.35.120
12936;170704;34.80;792;03.41.35.120
12912;170704;34.80;793;03.41.35.120
12892;170700;34.80;794;03.41.35.120
12888;170702;34.80;795;03.41.35.120
12884;170711;34.80;796;03.41.35.120
12928;170700;34.80;797;03.41.35.120
12912;170701;34.80;798;03.41.35.120
12900;170703;34.80;799;03.41.35.120
12920;170714;34.80;800;03.41.35.230
12900;170708;34.80;801;03.41.35.230
12900;170713;34.80;802;03.41.35.230
12892;170710;34.80;803;03.41.35.230
12908;170715;34.80;804;03.41.35.230
12936;170720;34.80;805;03.41.35.230
12932;170718;34.80;806;03.41.35.230
12912;170720;34.80;807;03.41.35.230
12908;170721;34.80;808;03.41.35.230
12896;170728;34.80;809;03.41.35.230
12888;170717;34.80;810;03.41.35.230
12912;170728;34.80;811;03.41.35.230
12896;170723;34.80;812;03.41.35.230
12928;170721;34.80;813;03.41.35.240
12896;170731;34.80;814;03.41.35.240
12892;170734;34.80;815;03.41.35.240
12928;170728;34.80;816;03.41.35.240
12920;170735;34.80;817;03.41.35.240
12928;170733;34.80;818;03.41.35.240
12932;170742;34.80;819;03.41.35.240
12932;170738;34.80;820;03.41.35.240
12892;170736;34.80;821;03.41.35.240
12916;170735;34.80;822;03.41.35.240
12908;170738;34.80;823;03.41.35.240
12928;170752;34.80;824;03.41.35.240
12896;170748;34.80;825;03.41.35.338
12916;170755;34.80;826;03.41.35.338
12912;170752;34.80;827;03.41.35.338
12892;170758;34.80;828;03.41.35.338
12928;170753;34.80;829;03.41.35.338
12900;170765;34.80;830;03.41.35.338
12908;170756;34.80;831;03.41.35.338
12900;170760;34.80;832;03.41.35.338
12904;170760;34.80;833;03.41.35.360
12892;170763;34.80;834;03.41.35.360
12884;170763;34.80;835;03.41.35.360
12904;170768;34.80;836;03.41.35.360
12888;170768;34.80;837;03.41.35.360
12884;170766;34.80;838;03.41.35.360
12924;170772;34.80;839;03.41.35.360
12904;170767;34.80;840;03.41.35.360
12900;170777;34.80;841;03.41.35.360
12892;170779;34.80;842;03.41.35.371
12884;170788;34.80;843;03.41.35.371
12892;170792;34.80;844;03.41.35.371
12888;170781;34.80;845;03.41.35.371
12900;170787;34.80;846;03.41.35.371
12912;170788;34.80;847;03.41.35.371
12936;170785;34.80;848;03.41.35.371
12920;170792;34.80;849;03.41.35.371
12876;170786;34.80;850;03.41.35.459
12908;170789;34.80;851;03.41.35.459
12904;170783;34.80;852;03.41.35.459
12904;170791;34.80;853;03.41.35.459
12908;170794;34.80;854;03.41.35.459
12904;170790;34.80;855;03.41.35.470
12892;170793;34.80;856;03.41.35.470
12908;170798;34.80;857;03.41.35.470
12904;170795;34.80;858;03.41.35.470
12888;170785;34.80;859;03.41.35.470
12940;170787;34.80;860;03.41.35.470
12960;170776;34.80;861;03.41.35.470
12908;170775;34.80;862;03.41.35.481
12904;170777;34.80;863;03.41.35.481
12896;170777;34.80;864;03.41.35.481
12904;170764;34.80;865;03.41.35.481
12888;170767;34.80;866;03.41.35.481
12920;170763;34.80;867;03.41.35.481
12960;170749;34.80;868;03.41.35.481
12912;170743;34.80;869;03.41.35.481
12912;170742;34.80;870;03.41.35.481
12916;170736;34.80;871;03.41.35.481
12900;170731;34.80;872;03.41.35.492
12920;170725;34.80;873;03.41.35.492
12928;170717;34.80;874;03.41.35.492
12904;170717;34.80;875;03.41.35.579
12904;170715;34.80;876;03.41.35.590
12892;170709;34.80;877;03.41.35.590
12884;170712;34.80;878;03.41.35.590
12896;170713;34.80;879;03.41.35.590
12884;170708;34.80;880;03.41.35.590
12908;170697;34.80;881;03.41.35.590
12932;170693;34.80;882;03.41.35.590
12928;170697;34.80;883;03.41.35.590
12912;170699;34.80;884;03.41.35.590
12896;170685;34.80;885;03.41.35.590
12928;170688;34.80;886;03.41.35.590
12892;170684;34.80;887;03.41.35.590
12884;170694;34.80;888;03.41.35.590
12900;170684;34.80;889;03.41.35.601
12892;170683;34.80;890;03.41.35.601
12916;170686;34.80;891;03.41.35.601
12940;170690;34.80;892;03.41.35.601
12900;170690;34.80;893;03.41.35.601
12920;170686;34.80;894;03.41.35.601
12916;170689;34.80;895;03.41.35.601
12944;170692;34.80;896;03.41.35.601
12928;170692;34.80;897;03.41.35.601
12892;170690;34.80;898;03.41.35.601
12928;170689;34.80;899;03.41.35.601
12892;170697;34.80;900;03.41.35.722
12916;170697;34.80;901;03.41.35.722
12932;170694;34.80;902;03.41.35.722
12904;170690;34.80;903;03.41.35.722
12896;170700;34.80;904;03.41.35.722
12920;170696;34.80;905;03.41.35.722
12916;170700;34.80;906;03.41.35.722
12896;170707;34.80;907;03.41.35.722
12908;170700;34.80;908;03.41.35.722
12908;170707;34.80;909;03.41.35.722
12928;170705;34.80;910;03.41.35.733
12904;170716;34.80;911;03.41.35.733
12916;170705;34.80;912;03.41.35.733
12896;170703;34.80;913;03.41.35.733
12924;170711;34.80;914;03.41.35.733
12900;170714;34.80;915;03.41.35.733
12912;170704;34.80;916;03.41.35.733
12912;170701;34.80;917;03.41.35.733
12908;170709;34.80;918;03.41.35.733
12828;170712;34.80;919;03.41.35.733
12920;170711;34.80;920;03.41.35.733
12904;170706;34.80;921;03.41.35.733
12888;170710;34.80;922;03.41.35.733
12896;170713;34.80;923;03.41.35.744
12916;170711;34.80;924;03.41.35.744
12900;170712;34.80;925;03.41.35.831
12904;170708;34.80;926;03.41.35.831
12888;170711;34.80;927;03.41.35.831
12900;170720;34.80;928;03.41.35.831
12892;170714;34.80;929;03.41.35.831
12904;170711;34.80;930;03.41.35.831
12904;170709;34.80;931;03.41.35.842
12892;170711;34.80;932;03.41.35.842
12912;170711;34.80;933;03.41.35.842
12900;170715;34.80;934;03.41.35.842
12904;170709;34.80;935;03.41.35.842
12884;170701;34.80;936;03.41.35.842
12912;170712;34.80;937;03.41.35.842
12892;170710;34.80;938;03.41.35.842
12908;170703;34.80;939;03.41.35.842
12892;170713;34.80;940;03.41.35.842
12896;170709;34.80;941;03.41.35.842
12920;170715;34.80;942;03.41.35.864
12908;170713;34.80;943;03.41.35.864
12920;170716;34.80;944;03.41.35.864
12928;170707;34.80;945;03.41.35.864
12900;170715;34.80;946;03.41.35.864
12900;170715;34.80;947;03.41.35.875
12908;170717;34.80;948;03.41.35.875
12912;170719;34.80;949;03.41.35.875
12896;170720;34.80;950;03.41.35.952
12912;170721;34.80;951;03.41.35.963
12916;170729;34.80;952;03.41.35.963
12920;170720;34.80;953;03.41.35.963
12892;170723;34.80;954;03.41.35.963
12908;170724;34.80;955;03.41.35.963
12904;170731;34.80;956;03.41.35.963
12900;170726;34.80;957;03.41.35.963
12928;170734;34.80;958;03.41.35.963
12916;170734;34.80;959;03.41.35.963
12892;170731;34.80;960;03.41.35.963
12912;170737;34.80;961;03.41.35.963
12920;170734;34.80;962;03.41.35.963
12908;170735;34.80;963;03.41.35.963
12928;170736;34.80;964;03.41.35.963
12912;170742;34.80;965;03.41.35.974
12908;170742;34.80;966;03.41.35.974
12900;170741;34.80;967;03.41.35.974
12916;170742;34.80;968;03.41.35.974
12908;170744;34.80;969;03.41.35.974
12900;170747;34.80;970;03.41.35.974
12936;170746;34.80;971;03.41.35.974
12908;170745;34.80;972;03.41.35.974
12928;170754;34.80;973;03.41.35.974
12964;170747;34.80;974;03.41.35.974
12908;170752;34.80;975;03.41.36.094
12892;170750;34.80;976;03.41.36.094
12908;170755;34.80;977;03.41.36.094
12928;170746;34.80;978;03.41.36.094
12892;170750;34.80;979;03.41.36.094
12896;170762;34.80;980;03.41.36.094
12912;170756;34.80;981;03.41.36.094
12900;170757;34.80;982;03.41.36.094
12912;170763;34.80;983;03.41.36.094
12900;170758;34.80;984;03.41.36.094
12916;170759;34.80;985;03.41.36.105
12900;170772;34.80;986;03.41.36.105
12936;170767;34.80;987;03.41.36.105
12904;170769;34.80;988;03.41.36.105
12928;170765;34.80;989;03.41.36.105
12920;170771;34.80;990;03.41.36.105
12928;170775;34.80;991;03.41.36.105
12904;170769;34.80;992;03.41.36.105
12904;170772;34.80;993;03.41.36.105
12900;170776;34.80;994;03.41.36.105
12884;170775;34.80;995;03.41.36.105
12920;170774;34.80;996;03.41.36.105
12892;170776;34.80;997;03.41.36.105
12904;170779;34.80;998;03.41.36.116
12948;170782;34.80;999;03.41.36.116
12896;170778;34.80;000;03.41.36.226
12916;170781;34.80;001;03.41.36.226
12904;170783;34.80;002;03.41.36.226
12908;170784;34.80;003;03.41.36.226
12928;170788;34.80;004;03.41.36.226
12912;170794;34.80;005;03.41.36.226
12908;170794;34.80;006;03.41.36.226
12928;170791;34.80;007;03.41.36.237
12896;170800;34.80;008;03.41.36.237
12912;170802;34.80;009;03.41.36.237
12872;170798;34.80;010;03.41.36.237
12928;170796;34.80;011;03.41.36.237
12908;170793;34.80;012;03.41.36.237
12920;170801;34.80;013;03.41.36.237
12892;170798;34.80;014;03.41.36.237
12908;170805;34.80;015;03.41.36.237
12928;170804;34.80;016;03.41.36.237
12912;170809;34.80;017;03.41.36.237
12928;170805;34.80;018;03.41.36.237
12928;170812;34.80;019;03.41.36.248
12908;170807;34.80;020;03.41.36.248
12892;170805;34.80;021;03.41.36.248
12884;170798;34.80;022;03.41.36.248
12936;170804;34.80;023;03.41.36.248
12912;170801;34.80;024;03.41.36.248
12904;170803;34.80;025;03.41.36.358
12892;170795;34.80;026;03.41.36.358
12908;170788;34.80;027;03.41.36.358
12908;170780;34.80;028;03.41.36.358
12916;170772;34.80;029;03.41.36.369
12892;170775;34.80;030;03.41.36.369
12900;170772;34.80;031;03.41.36.369
12912;170762;34.80;032;03.41.36.369
12928;170761;34.80;033;03.41.36.369
12904;170756;34.80;034;03.41.36.369
12860;170747;34.80;035;03.41.36.369
12884;170751;34.80;036;03.41.36.380
12888;170745;34.80;037;03.41.36.380
12892;170738;34.80;038;03.41.36.380
12896;170736;34.80;039;03.41.36.380
12888;170727;34.80;040;03.41.36.380
12928;170733;34.80;041;03.41.36.380
12904;170726;34.80;042;03.41.36.380
12928;170725;34.80;043;03.41.36.380
12900;170723;34.80;044;03.41.36.380
12928;170726;34.80;045;03.41.36.380
12900;170724;34.80;046;03.41.36.391
12916;170723;34.80;047;03.41.36.391
12888;170729;34.80;048;03.41.36.391
12904;170725;34.80;049;03.41.36.391
12912;170721;34.80;050;03.41.36.467
12896;170715;34.80;051;03.41.36.467
12904;170716;34.80;052;03.41.36.467
12908;170722;34.80;053;03.41.36.467
12892;170717;34.80;054;03.41.36.467
12904;170715;34.80;055;03.41.36.467
12912;170712;34.80;056;03.41.36.467
12896;170717;34.80;057;03.41.36.467
12900;170713;34.80;058;03.41.36.467
12924;170715;34.80;059;03.41.36.467
12904;170725;34.80;060;03.41.36.467
12924;170723;34.80;061;03.41.36.467
12928;170724;34.80;062;03.41.36.467
12888;170722;34.80;063;03.41.36.478
12924;170724;34.80;064;03.41.36.478
12916;170722;34.80;065;03.41.36.478
12892;170724;34.80;066;03.41.36.478
12892;170723;34.80;067;03.41.36.489
12892;170720;34.80;068;03.41.36.489
12892;170731;34.80;069;03.41.36.489
12908;170730;34.80;070;03.41.36.489
12900;170728;34.80;071;03.41.36.489
12920;170732;34.80;072;03.41.36.489
12884;170741;34.80;073;03.41.36.489
12916;170738;34.80;074;03.41.36.489
12884;170739;34.80;075;03.41.36.599
12904;170739;34.80;076;03.41.36.599
12900;170735;34.80;077;03.41.36.599
12904;170740;34.80;078;03.41.36.599
12924;170749;34.80;079;03.41.36.599
12928;170733;34.80;080;03.41.36.599
12884;170746;34.80;081;03.41.36.599
12908;170739;34.80;082;03.41.36.599
12916;170738;34.80;083;03.41.36.610
12904;170741;34.80;084;03.41.36.610
12900;170731;34.80;085;03.41.36.610
12908;170736;34.80;086;03.41.36.610
12920;170738;34.80;087;03.41.36.610
12896;170745;34.80;088;03.41.36.610
12892;170743;34.80;089;03.41.36.610
12896;170747;34.80;090;03.41.36.610
12892;170739;34.80;091;03.41.36.610
12916;170740;34.80;092;03.41.36.632
12928;170737;34.80;093;03.41.36.632
12912;170742;34.80;094;03.41.36.632
12904;170733;34.80;095;03.41.36.632
12904;170731;34.80;096;03.41.36.632
12904;170737;34.80;097;03.41.36.632
12904;170730;34.80;098;03.41.36.632
12928;170736;34.80;099;03.41.36.632
12896;170731;34.80;100;03.41.36.720
12916;170730;34.80;101;03.41.36.720
12928;170736;34.80;102;03.41.36.720
12916;170734;34.80;103;03.41.36.720
12896;170735;34.80;104;03.41.36.720
12904;170734;34.80;105;03.41.36.720
12928;170726;34.80;106;03.41.36.731
12916;170726;34.80;107;03.41.36.731
12928;170729;34.80;108;03.41.36.731
12892;170735;34.80;109;03.41.36.731
12904;170738;34.80;110;03.41.36.731
12904;170733;34.80;111;03.41.36.731
12904;170733;34.80;112;03.41.36.731
12900;170735;34.80;113;03.41.36.731
12924;170734;34.80;114;03.41.36.731
12908;170735;34.80;115;03.41.36.731
12916;170733;34.80;116;03.41.36.731
12892;170732;34.80;117;03.41.36.731
12928;170733;34.80;118;03.41.36.742
12900;170731;34.80;119;03.41.36.742
12928;170735;34.80;120;03.41.36.742
12908;170741;34.80;121;03.41.36.742
12884;170735;34.80;122;03.41.36.742
12908;170742;34.80;123;03.41.36.742
12908;170738;34.80;124;03.41.36.742
12904;170745;34.80;125;03.41.36.829
12884;170743;34.80;126;03.41.36.840
12932;170746;34.80;127;03.41.36.840
12892;170749;34.80;128;03.41.36.840
12908;170750;34.80;129;03.41.36.840
12916;170747;34.80;130;03.41.36.840
12908;170743;34.80;131;03.41.36.840
12900;170745;34.80;132;03.41.36.840
12896;170743;34.80;133;03.41.36.851
12936;170748;34.80;134;03.41.36.862
12916;170744;34.80;135;03.41.36.862
12904;170751;34.80;136;03.41.36.862
12928;170749;34.80;137;03.41.36.862
12904;170746;34.80;138;03.41.36.862
12892;170752;34.80;139;03.41.36.862
12896;170758;34.80;140;03.41.36.862
12924;170754;34.80;141;03.41.36.862
12912;170751;34.80;142;03.41.36.862
12904;170760;34.80;143;03.41.36.862
12912;170760;34.80;144;03.41.36.862
12928;170754;34.80;145;03.41.36.862
12900;170769;34.80;146;03.41.36.873
12920;170752;34.80;147;03.41.36.873
12944;170760;34.80;148;03.41.36.873
12960;170763;34.80;149;03.41.36.873
12924;170763;34.80;150;03.41.36.993
12928;170768;34.80;151;03.41.36.993
12916;170768;34.80;152;03.41.36.993
12908;170762;34.80;153;03.41.36.993
12912;170768;34.80;154;03.41.36.993
12892;170764;34.80;155;03.41.36.993
12892;170768;34.80;156;03.41.36.993
12904;170772;34.80;157;03.41.36.993
12892;170765;34.80;158;03.41.36.993
12904;170770;34.80;159;03.41.36.993
12912;170761;34.80;160;03.41.37.004
12880;170764;34.80;161;03.41.37.004
12932;170775;34.80;162;03.41.37.004
12884;170773;34.80;163;03.41.37.004
12944;170770;34.80;164;03.41.37.004
12928;170767;34.80;165;03.41.37.004
12908;170764;34.80;166;03.41.37.004
12892;170776;34.80;167;03.41.37.004
12904;170765;34.80;168;03.41.37.004
12928;170773;34.80;169;03.41.37.004
12900;170764;34.80;170;03.41.37.004
12928;170764;34.80;171;03.41.37.004
12896;170759;34.80;172;03.41.37.004
12884;170760;34.80;173;03.41.37.004
12908;170759;34.80;174;03.41.37.015
12912;170760;34.80;175;03.41.37.080
12904;170749;34.80;176;03.41.37.080
12920;170747;34.80;177;03.41.37.080
12892;170735;34.80;178;03.41.37.080
12892;170738;34.80;179;03.41.37.080
12892;170731;34.80;180;03.41.37.091
12912;170737;34.80;181;03.41.37.091
12892;170725;34.80;182;03.41.37.091
12892;170722;34.80;183;03.41.37.091
12920;170717;34.80;184;03.41.37.091
12912;170714;34.80;185;03.41.37.091
12904;170705;34.80;186;03.41.37.091
12904;170701;34.80;187;03.41.37.091
12900;170697;34.80;188;03.41.37.091
12892;170693;34.80;189;03.41.37.091
12888;170693;34.80;190;03.41.37.091
12912;170699;34.80;191;03.41.37.091
12904;170700;34.80;192;03.41.37.091
12892;170709;34.80;193;03.41.37.102
12892;170714;34.80;194;03.41.37.102
12900;170716;34.80;195;03.41.37.102
12908;170735;34.80;196;03.41.37.102
12904;170753;34.80;197;03.41.37.102
12908;170758;34.80;198;03.41.37.102
12892;170772;34.80;199;03.41.37.102
12908;170785;34.80;200;03.41.37.213
12908;170798;34.80;201;03.41.37.213
12916;170828;34.80;202;03.41.37.224
12904;170846;34.80;203;03.41.37.224
12920;170868;34.80;204;03.41.37.224
12884;170886;34.80;205;03.41.37.224
12884;170897;34.80;206;03.41.37.224
12888;170933;34.80;207;03.41.37.224
12892;170958;34.80;208;03.41.37.224
12892;170983;34.80;209;03.41.37.224
12904;171016;34.80;210;03.41.37.224
12908;171053;34.80;211;03.41.37.224
12916;171102;34.80;212;03.41.37.224
12912;171146;34.80;213;03.41.37.224
12916;171196;34.80;214;03.41.37.224
12908;171229;34.80;215;03.41.37.235
12904;171292;34.80;216;03.41.37.235
12900;171335;34.80;217;03.41.37.235
12892;171391;34.80;218;03.41.37.235
12900;171432;34.80;219;03.41.37.235
12892;171477;34.80;220;03.41.37.235
12928;171522;34.80;221;03.41.37.235
12928;171561;34.80;222;03.41.37.235
12936;171589;34.80;223;03.41.37.235
12892;171616;34.80;224;03.41.37.235
12904;171647;34.80;225;03.41.37.355
12892;171667;34.80;226;03.41.37.355
12916;171689;34.80;227;03.41.37.355
12904;171709;34.80;228;03.41.37.355
12912;171724;34.80;229;03.41.37.355
12920;171735;34.80;230;03.41.37.355
12904;171749;34.80;231;03.41.37.355
12908;171756;34.80;232;03.41.37.355
12904;171768;34.80;233;03.41.37.355
12912;171772;34.80;234;03.41.37.355
12900;171763;34.80;235;03.41.37.355
12904;171778;34.80;236;03.41.37.355
12892;171783;34.80;237;03.41.37.366
12896;171781;34.80;238;03.41.37.366
12916;171774;34.80;239;03.41.37.366
12900;171772;34.80;240;03.41.37.366
12916;171765;34.80;241;03.41.37.366
12900;171750;34.80;242;03.41.37.377
12928;171745;34.80;243;03.41.37.377
12920;171739;34.80;244;03.41.37.377
12908;171719;34.80;245;03.41.37.377
12888;171711;34.80;246;03.41.37.377
12892;171695;34.80;247;03.41.37.377
12908;171678;34.80;248;03.41.37.377
12892;171657;34.80;249;03.41.37.377
12888;171627;34.80;250;03.41.37.465
12892;171603;34.80;251;03.41.37.465
12884;171577;34.80;252;03.41.37.465
12888;171553;34.80;253;03.41.37.465
12916;171527;34.80;254;03.41.37.465
12920;171502;34.80;255;03.41.37.465
12900;171473;34.80;256;03.41.37.465
12920;171444;34.80;257;03.41.37.465
12912;171416;34.80;258;03.41.37.487
12888;171393;34.80;259;03.41.37.487
12912;171374;34.80;260;03.41.37.487
12892;171351;34.80;261;03.41.37.487
12860;171319;34.80;262;03.41.37.487
12888;171311;34.80;263;03.41.37.487
12920;171300;34.80;264;03.41.37.498
12892;171281;34.80;265;03.41.37.498
12920;171258;34.80;266;03.41.37.498
12916;171250;34.80;267;03.41.37.498
12912;171238;34.80;268;03.41.37.498
12928;171218;34.80;269;03.41.37.498
12888;171209;34.80;270;03.41.37.498
12912;171198;34.80;271;03.41.37.498
12908;171188;34.80;272;03.41.37.498
12908;171176;34.80;273;03.41.37.498
12916;171168;34.80;274;03.41.37.498
12892;171150;34.80;275;03.41.37.596
12908;171150;34.80;276;03.41.37.596
12908;171139;34.80;277;03.41.37.596
12884;171111;34.80;278;03.41.37.596
12916;171103;34.80;279;03.41.37.607
12896;171098;34.80;280;03.41.37.607
12900;171090;34.80;281;03.41.37.607
12892;171080;34.80;282;03.41.37.607
12900;171067;34.80;283;03.41.37.618
12900;171062;34.80;284;03.41.37.618
12896;171047;34.80;285;03.41.37.618
12912;171044;34.80;286;03.41.37.618
12896;171035;34.80;287;03.41.37.629
12884;171018;34.80;288;03.41.37.629
12892;171023;34.80;289;03.41.37.629
12900;171009;34.80;290;03.41.37.629
12892;171009;34.80;291;03.41.37.629
12908;171004;34.80;292;03.41.37.629
12868;171002;34.80;293;03.41.37.629
12920;170992;34.80;294;03.41.37.629
12880;170993;34.80;295;03.41.37.629
12936;170978;34.80;296;03.41.37.629
12904;170980;34.80;297;03.41.37.629
12904;170970;34.80;298;03.41.37.629
12924;170972;34.80;299;03.41.37.640
12904;170962;34.80;300;03.41.37.717
12904;170968;34.80;301;03.41.37.717
12912;170954;34.80;302;03.41.37.717
12916;170959;34.80;303;03.41.37.717
12908;170959;34.80;304;03.41.37.717
12896;170952;34.80;305;03.41.37.717
12908;170952;34.80;306;03.41.37.717
12916;170950;34.80;307;03.41.37.717
12876;170954;34.80;308;03.41.37.717
12900;170945;34.80;309;03.41.37.717
12892;170948;34.80;310;03.41.37.717
12900;170942;34.80;311;03.41.37.717
12924;170943;34.80;312;03.41.37.717
12900;170946;34.80;313;03.41.37.717
12908;170946;34.80;314;03.41.37.728
12888;170936;34.80;315;03.41.37.728
12892;170940;34.80;316;03.41.37.728
12900;170940;34.80;317;03.41.37.728
12900;170928;34.80;318;03.41.37.728
12892;170928;34.80;319;03.41.37.728
12936;170928;34.80;320;03.41.37.728
12896;170918;34.80;321;03.41.37.728
12928;170918;34.80;322;03.41.37.728
12888;170908;34.80;323;03.41.37.728
12924;170901;34.80;324;03.41.37.728
12864;170897;34.80;325;03.41.37.849
12912;170902;34.80;326;03.41.37.849
12900;170893;34.80;327;03.41.37.849
12900;170878;34.80;328;03.41.37.849
12892;170868;34.80;329;03.41.37.849
12884;170865;34.80;330;03.41.37.849
12892;170862;34.80;331;03.41.37.849
12920;170855;34.80;332;03.41.37.849
12884;170847;34.80;333;03.41.37.849
12892;170846;34.80;334;03.41.37.849
12912;170838;34.80;335;03.41.37.860
12900;170829;34.80;336;03.41.37.860
12920;170819;34.80;337;03.41.37.860
12916;170813;34.80;338;03.41.37.860
12912;170814;34.80;339;03.41.37.860
12924;170808;34.80;340;03.41.37.860
12904;170811;34.80;341;03.41.37.860
12888;170804;34.80;342;03.41.37.860
12892;170801;34.80;343;03.41.37.860
12928;170806;34.80;344;03.41.37.860
12924;170799;34.80;345;03.41.37.860
12880;170783;34.80;346;03.41.37.860
12900;170786;34.80;347;03.41.37.860
12924;170783;34.80;348;03.41.37.871
12916;170788;34.80;349;03.41.37.871
12904;170781;34.80;350;03.41.37.958
12912;170783;34.80;351;03.41.37.958
12892;170782;34.80;352;03.41.37.958
12960;170771;34.80;353;03.41.37.958
12912;170773;34.80;354;03.41.37.958
12896;170777;34.80;355;03.41.37.958
12912;170777;34.80;356;03.41.37.969
12912;170768;34.80;357;03.41.37.969
12916;170770;34.80;358;03.41.37.980
12892;170774;34.80;359;03.41.37.980
12916;170770;34.80;360;03.41.37.980
12924;170785;34.80;361;03.41.37.980
12928;170773;34.80;362;03.41.37.980
12936;170781;34.80;363;03.41.37.980
12912;170770;34.80;364;03.41.37.980
12936;170778;34.80;365;03.41.37.991
12904;170771;34.80;366;03.41.37.991
12908;170773;34.80;367;03.41.37.991
12900;170777;34.80;368;03.41.37.991
12892;170769;34.80;369;03.41.37.991
12884;170772;34.80;370;03.41.37.991
12888;170768;34.80;371;03.41.37.991
12912;170777;34.80;372;03.41.37.991
12936;170762;34.80;373;03.41.37.991
12928;170762;34.80;374;03.41.37.991
12904;170765;34.80;375;03.41.38.079
12896;170760;34.80;376;03.41.38.079
12900;170760;34.80;377;03.41.38.079
12896;170766;34.80;378;03.41.38.090
12912;170758;34.80;379;03.41.38.090
12892;170760;34.80;380;03.41.38.090
12892;170758;34.80;381;03.41.38.090
12912;170763;34.80;382;03.41.38.090
12896;170754;34.80;383;03.41.38.090
12900;170755;34.80;384;03.41.38.090
12888;170751;34.80;385;03.41.38.090
12912;170753;34.80;386;03.41.38.090
12924;170755;34.80;387;03.41.38.090
12928;170756;34.80;388;03.41.38.090
12928;170752;34.80;389;03.41.38.090
12884;170751;34.80;390;03.41.38.090
12912;170743;34.80;391;03.41.38.101
12944;170737;34.80;392;03.41.38.101
12904;170730;34.80;393;03.41.38.101
12904;170746;34.80;394;03.41.38.101
12920;170744;34.80;395;03.41.38.101
12908;170738;34.80;396;03.41.38.101
12888;170748;34.80;397;03.41.38.101
12928;170733;34.80;398;03.41.38.101
12928;170732;34.80;399;03.41.38.101
12896;170738;34.80;400;03.41.38.211
12884;170734;34.80;401;03.41.38.211
12928;170723;34.80;402;03.41.38.211
12904;170733;34.80;403;03.41.38.211
12908;170725;34.80;404;03.41.38.211
12900;170728;34.80;405;03.41.38.211
12900;170734;34.80;406;03.41.38.211
12916;170729;34.80;407;03.41.38.211
12900;170721;34.80;408;03.41.38.211
12932;170732;34.80;409;03.41.38.211
12884;170730;34.80;410;03.41.38.211
12912;170725;34.80;411;03.41.38.211
12928;170727;34.80;412;03.41.38.222
12912;170728;34.80;413;03.41.38.222
12912;170729;34.80;414;03.41.38.222
12896;170726;34.80;415;03.41.38.222
12928;170730;34.80;416;03.41.38.222
12888;170734;34.80;417;03.41.38.222
12920;170732;34.80;418;03.41.38.222
12892;170737;34.80;419;03.41.38.222
12920;170735;34.80;420;03.41.38.222
12916;170732;34.80;421;03.41.38.222
12876;170734;34.80;422;03.41.38.222
12896;170731;34.80;423;03.41.38.222
12916;170738;34.80;424;03.41.38.222
12900;170740;34.80;425;03.41.38.342
12880;170734;34.80;426;03.41.38.342
12916;170739;34.80;427;03.41.38.342
12892;170737;34.80;428;03.41.38.342
12920;170734;34.80;429;03.41.38.342
12928;170748;34.80;430;03.41.38.342
12904;170742;34.80;431;03.41.38.342
12924;170741;34.80;432;03.41.38.342
12904;170745;34.80;433;03.41.38.342
12916;170744;34.80;434;03.41.38.353
12908;170745;34.80;435;03.41.38.353
12908;170744;34.80;436;03.41.38.353
12896;170734;34.80;437;03.41.38.353
12896;170740;34.80;438;03.41.38.353
12884;170740;34.80;439;03.41.38.353
12880;170750;34.80;440;03.41.38.353
12892;170746;34.80;441;03.41.38.353
12900;170741;34.80;442;03.41.38.364
12876;170742;34.80;443;03.41.38.364
12900;170757;34.80;444;03.41.38.364
12888;170756;34.80;445;03.41.38.364
12924;170750;34.80;446;03.41.38.364
12908;170752;34.80;447;03.41.38.364
12928;170757;34.80;448;03.41.38.364
12936;170765;34.80;449;03.41.38.364
12884;170770;34.80;450;03.41.38.474
12900;170763;34.80;451;03.41.38.474
12908;170762;34.80;452;03.41.38.474
12920;170772;34.80;453;03.41.38.474
12900;170763;34.80;454;03.41.38.474
12904;170757;34.80;455;03.41.38.485
12904;170770;34.80;456;03.41.38.485
12908;170766;34.80;457;03.41.38.485
12916;170771;34.80;458;03.41.38.485
12908;170761;34.80;459;03.41.38.485
12928;170770;34.80;460;03.41.38.485
12928;170772;34.80;461;03.41.38.485
12904;170773;34.80;462;03.41.38.485
12936;170774;34.80;463;03.41.38.485
12932;170775;34.80;464;03.41.38.485
12908;170772;34.80;465;03.41.38.485
12928;170776;34.80;466;03.41.38.485
12912;170771;34.80;467;03.41.38.496
12912;170773;34.80;468;03.41.38.496
12904;170776;34.80;469;03.41.38.496
12896;170766;34.80;470;03.41.38.496
12892;170761;34.80;471;03.41.38.496
12916;170756;34.80;472;03.41.38.507
12912;170755;34.80;473;03.41.38.507
12920;170746;34.80;474;03.41.38.507
12908;170749;34.80;475;03.41.38.584
12904;170743;34.80;476;03.41.38.595
12888;170739;34.80;477;03.41.38.595
12920;170734;34.80;478;03.41.38.595
12912;170741;34.80;479;03.41.38.595
12936;170728;34.80;480;03.41.38.595
12908;170725;34.80;481;03.41.38.595
12908;170711;34.80;482;03.41.38.595
12900;170713;34.80;483;03.41.38.595
12892;170710;34.80;484;03.41.38.595
12928;170700;34.80;485;03.41.38.595
12888;170698;34.80;486;03.41.38.606
12904;170697;34.80;487;03.41.38.606
12912;170693;34.80;488;03.41.38.606
12920;170695;34.80;489;03.41.38.606
12892;170678;34.80;490;03.41.38.606
12916;170686;34.80;491;03.41.38.606
12904;170678;34.80;492;03.41.38.606
12904;170676;34.80;493;03.41.38.616
12892;170678;34.80;494;03.41.38.616
12928;170674;34.80;495;03.41.38.616
12908;170673;34.80;496;03.41.38.616
12908;170676;34.80;497;03.41.38.616
12928;170668;34.80;498;03.41.38.616
12932;170664;34.80;499;03.41.38.616
12928;170661;34.80;500;03.41.38.714
12888;170667;34.80;501;03.41.38.714
12912;170664;34.80;502;03.41.38.714
12920;170665;34.80;503;03.41.38.714
12892;170655;34.80;504;03.41.38.714
12900;170652;34.80;505;03.41.38.714
12924;170662;34.80;506;03.41.38.714
12912;170663;34.80;507;03.41.38.714
12908;170671;34.80;508;03.41.38.714
12904;170664;34.80;509;03.41.38.725
12900;170661;34.80;510;03.41.38.725
12900;170666;34.80;511;03.41.38.725
12932;170663;34.80;512;03.41.38.725
12900;170664;34.80;513;03.41.38.725
12884;170673;34.80;514;03.41.38.725
12936;170674;34.80;515;03.41.38.725
12928;170673;34.80;516;03.41.38.725
12912;170665;34.80;517;03.41.38.725
12912;170665;34.80;518;03.41.38.725
12908;170664;34.80;519;03.41.38.725
12928;170665;34.80;520;03.41.38.725
12900;170673;34.80;521;03.41.38.725
12892;170666;34.80;522;03.41.38.736
12928;170667;34.80;523;03.41.38.736
12904;170670;34.80;524;03.41.38.736
12900;170666;34.80;525;03.41.38.844
12900;170664;34.80;526;03.41.38.844
12900;170664;34.80;527;03.41.38.855
12928;170666;34.80;528;03.41.38.855
12876;170656;34.80;529;03.41.38.855
12928;170664;34.80;530;03.41.38.855
12944;170662;34.80;531;03.41.38.855
12924;170663;34.80;532;03.41.38.855
12928;170666;34.80;533;03.41.38.855
12892;170663;34.80;534;03.41.38.855
12936;170662;34.80;535;03.41.38.855
12900;170671;34.80;536;03.41.38.855
12908;170663;34.80;537;03.41.38.855
12884;170659;34.80;538;03.41.38.855
12924;170666;34.80;539;03.41.38.855
12928;170667;34.80;540;03.41.38.855
12884;170660;34.80;541;03.41.38.866
12924;170664;34.80;542;03.41.38.866
12928;170659;34.80;543;03.41.38.866
12932;170661;34.80;544;03.41.38.866
12900;170658;34.80;545;03.41.38.866
12928;170665;34.80;546;03.41.38.866
12932;170664;34.80;547;03.41.38.866
12928;170658;34.80;548;03.41.38.866
12896;170657;34.80;549;03.41.38.866
12904;170660;34.80;550;03.41.38.975
12888;170660;34.80;551;03.41.38.975
12916;170667;34.80;552;03.41.38.975
12912;170660;34.80;553;03.41.38.975
12884;170671;34.80;554;03.41.38.975
12928;170672;34.80;555;03.41.38.975
12900;170672;34.80;556;03.41.38.975
12936;170666;34.80;557;03.41.38.975
12892;170667;34.80;558;03.41.38.975
12892;170672;34.80;559;03.41.38.975
12904;170669;34.80;560;03.41.38.975
12912;170664;34.80;561;03.41.38.975
12892;170666;34.80;562;03.41.38.986
12928;170665;34.80;563;03.41.38.986
12900;170662;34.80;564;03.41.38.986
12900;170668;34.80;565;03.41.38.986
12916;170673;34.80;566;03.41.38.986
12928;170672;34.80;567;03.41.38.986
12908;170682;34.80;568;03.41.38.986
12916;170674;34.80;569;03.41.38.986
12920;170676;34.80;570;03.41.38.986
12888;170685;34.80;571;03.41.38.986
12900;170683;34.80;572;03.41.38.986
12904;170678;34.80;573;03.41.38.986
12944;170696;34.80;574;03.41.38.997
12900;170686;34.80;575;03.41.39.085
12912;170686;34.80;576;03.41.39.085
12936;170685;34.80;577;03.41.39.085
12912;170690;34.80;578;03.41.39.085
12908;170695;34.80;579;03.41.39.085
12936;170698;34.80;580;03.41.39.085
12916;170703;34.80;581;03.41.39.085
12892;170696;34.80;582;03.41.39.085
12892;170688;34.80;583;03.41.39.096
12920;170698;34.80;584;03.41.39.096
12928;170701;34.80;585;03.41.39.096
12892;170702;34.80;586;03.41.39.096
12916;170699;34.80;587;03.41.39.096
12892;170697;34.80;588;03.41.39.096
12916;170703;34.80;589;03.41.39.096
12888;170689;34.80;590;03.41.39.096
12892;170706;34.80;591;03.41.39.107
12912;170703;34.80;592;03.41.39.107
12932;170710;34.80;593;03.41.39.107
12908;170710;34.80;594;03.41.39.107
12924;170708;34.80;595;03.41.39.107
12928;170710;34.80;596;03.41.39.107
12948;170713;34.80;597;03.41.39.107
12896;170703;34.80;598;03.41.39.107
12908;170713;34.80;599;03.41.39.107
12908;170711;34.80;600;03.41.39.206
12904;170708;34.80;601;03.41.39.206
12888;170707;34.80;602;03.41.39.206
12908;170701;34.80;603;03.41.39.206
12900;170710;34.80;604;03.41.39.206
12900;170718;34.80;605;03.41.39.217
12892;170709;34.80;606;03.41.39.217
12888;170719;34.80;607;03.41.39.217
12888;170724;34.80;608;03.41.39.217
12908;170725;34.80;609;03.41.39.217
12916;170720;34.80;610;03.41.39.217
12888;170726;34.80;611;03.41.39.217
12912;170727;34.80;612;03.41.39.217
12892;170726;34.80;613;03.41.39.217
12876;170724;34.80;614;03.41.39.217
12892;170731;34.80;615;03.41.39.217
12876;170730;34.80;616;03.41.39.217
12908;170722;34.80;617;03.41.39.217
12888;170730;34.80;618;03.41.39.228
12892;170739;34.80;619;03.41.39.228
12900;170736;34.80;620;03.41.39.228
12952;170741;34.80;621;03.41.39.228
12888;170738;34.80;622;03.41.39.228
12900;170721;34.80;623;03.41.39.228
12908;170729;34.80;624;03.41.39.228
12896;170732;34.80;625;03.41.39.326
12892;170722;34.80;626;03.41.39.326
12936;170718;34.80;627;03.41.39.337
12904;170712;34.80;628;03.41.39.337
12900;170709;34.80;629;03.41.39.337
12900;170710;34.80;630;03.41.39.337
12920;170699;34.80;631;03.41.39.337
12924;170697;34.80;632;03.41.39.337
12880;170692;34.80;633;03.41.39.337
12904;170688;34.80;634;03.41.39.337
12896;170691;34.80;635;03.41.39.337
12908;170690;34.80;636;03.41.39.337
12916;170691;34.80;637;03.41.39.337
12888;170683;34.80;638;03.41.39.337
12896;170676;34.80;639;03.41.39.337
12896;170673;34.80;640;03.41.39.348
12896;170669;34.80;641;03.41.39.348
12896;170673;34.80;642;03.41.39.348
12884;170673;34.80;643;03.41.39.359
12916;170666;34.80;644;03.41.39.359
12900;170664;34.80;645;03.41.39.359
12912;170671;34.80;646;03.41.39.359
12932;170665;34.80;647;03.41.39.359
12904;170667;34.80;648;03.41.39.359
12916;170664;34.80;649;03.41.39.359
12908;170660;34.80;650;03.41.39.480
12908;170667;34.80;651;03.41.39.480
12888;170657;34.80;652;03.41.39.480
12888;170666;34.80;653;03.41.39.480
12912;170663;34.80;654;03.41.39.480
12908;170664;34.80;655;03.41.39.480
12924;170659;34.80;656;03.41.39.480
12928;170663;34.80;657;03.41.39.480
12916;170669;34.80;658;03.41.39.480
12924;170670;34.80;659;03.41.39.480
12892;170665;34.80;660;03.41.39.491
12924;170663;34.80;661;03.41.39.491
12928;170661;34.80;662;03.41.39.491
12912;170666;34.80;663;03.41.39.491
12904;170665;34.80;664;03.41.39.491
12912;170664;34.80;665;03.41.39.491
12904;170673;34.80;666;03.41.39.491
12924;170671;34.80;667;03.41.39.491
12904;170687;34.80;668;03.41.39.491
12884;170672;34.80;669;03.41.39.491
12912;170685;34.80;670;03.41.39.491
12888;170678;34.80;671;03.41.39.491
12912;170680;34.80;672;03.41.39.491
12908;170686;34.80;673;03.41.39.502
12928;170678;34.80;674;03.41.39.502
12900;170692;34.80;675;03.41.39.612
12912;170696;34.80;676;03.41.39.612
12884;170682;34.80;677;03.41.39.612
12884;170680;34.80;678;03.41.39.612
12884;170693;34.80;679;03.41.39.612
12876;170685;34.80;680;03.41.39.612
12904;170692;34.80;681;03.41.39.612
12892;170696;34.80;682;03.41.39.623
12928;170684;34.80;683;03.41.39.623
12900;170694;34.80;684;03.41.39.623
12900;170708;34.80;685;03.41.39.623
12916;170695;34.80;686;03.41.39.623
12908;170699;34.80;687;03.41.39.623
12900;170689;34.80;688;03.41.39.623
12912;170691;34.80;689;03.41.39.623
12892;170693;34.80;690;03.41.39.623
12892;170695;34.80;691;03.41.39.623
12884;170689;34.80;692;03.41.39.623
12896;170698;34.80;693;03.41.39.623
12880;170703;34.80;694;03.41.39.634
12916;170704;34.80;695;03.41.39.634
12912;170698;34.80;696;03.41.39.634
12884;170706;34.80;697;03.41.39.634
12884;170704;34.80;698;03.41.39.634
12916;170708;34.80;699;03.41.39.634
12888;170708;34.80;700;03.41.39.710
12876;170708;34.80;701;03.41.39.710
12916;170705;34.80;702;03.41.39.710
12884;170706;34.80;703;03.41.39.721
12936;170712;34.80;704;03.41.39.721
12920;170711;34.80;705;03.41.39.721
12916;170705;34.80;706;03.41.39.721
12928;170708;34.80;707;03.41.39.721
12928;170720;34.80;708;03.41.39.721
12912;170713;34.80;709;03.41.39.721
12936;170711;34.80;710;03.41.39.721
12904;170710;34.80;711;03.41.39.721
12884;170717;34.80;712;03.41.39.732
12912;170713;34.80;713;03.41.39.732
12884;170715;34.80;714;03.41.39.732
12908;170711;34.80;715;03.41.39.732
12912;170719;34.80;716;03.41.39.732
12876;170717;34.80;717;03.41.39.743
12932;170720;34.80;718;03.41.39.743
12900;170726;34.80;719;03.41.39.743
12916;170727;34.80;720;03.41.39.754
12904;170712;34.80;721;03.41.39.754
12928;170726;34.80;722;03.41.39.754
12920;170724;34.80;723;03.41.39.754
12908;170728;34.80;724;03.41.39.754
12892;170720;34.80;725;03.41.39.842
12932;170738;34.80;726;03.41.39.842
12908;170730;34.80;727;03.41.39.842
12928;170730;34.80;728;03.41.39.842
12888;170732;34.80;729;03.41.39.842
12888;170734;34.80;730;03.41.39.842
12908;170737;34.80;731;03.41.39.842
12876;170736;34.80;732;03.41.39.842
12928;170740;34.80;733;03.41.39.842
12892;170747;34.80;734;03.41.39.842
12912;170743;34.80;735;03.41.39.842
12912;170745;34.80;736;03.41.39.842
12884;170742;34.80;737;03.41.39.853
12928;170744;34.80;738;03.41.39.853
12892;170744;34.80;739;03.41.39.853
12944;170756;34.80;740;03.41.39.853
12912;170755;34.80;741;03.41.39.853
12924;170752;34.80;742;03.41.39.853
12892;170755;34.80;743;03.41.39.853
12920;170759;34.80;744;03.41.39.853
12924;170766;34.80;745;03.41.39.853
12920;170770;34.80;746;03.41.39.853
12892;170767;34.80;747;03.41.39.853
12936;170767;34.80;748;03.41.39.853
12924;170764;34.80;749;03.41.39.864
12892;170766;34.80;750;03.41.39.984
12908;170761;34.80;751;03.41.39.984
12904;170772;34.80;752;03.41.39.984
12916;170772;34.80;753;03.41.39.984
12920;170774;34.80;754;03.41.39.984
12892;170773;34.80;755;03.41.39.984
12928;170780;34.80;756;03.41.39.984
12932;170784;34.80;757;03.41.39.984
12872;170777;34.80;758;03.41.39.995
12924;170776;34.80;759;03.41.39.995
12912;170778;34.80;760;03.41.39.995
12884;170777;34.80;761;03.41.39.995
12864;170784;34.80;762;03.41.39.995
12908;170780;34.80;763;03.41.39.995
12884;170795;34.80;764;03.41.39.995
12876;170786;34.80;765;03.41.39.995
12892;170790;34.80;766;03.41.39.995
12908;170784;34.80;767;03.41.40.017
12892;170792;34.80;768;03.41.40.017
12924;170794;34.80;769;03.41.40.017
12904;170795;34.80;770;03.41.40.017
12892;170804;34.80;771;03.41.40.017
12896;170806;34.80;772;03.41.40.017
12928;170811;34.80;773;03.41.40.017
12944;170808;34.80;774;03.41.40.017
12900;170810;34.80;775;03.41.40.083
12904;170812;34.80;776;03.41.40.083
12884;170812;34.80;777;03.41.40.083
12916;170813;34.80;778;03.41.40.083
12916;170815;34.80;779;03.41.40.094
12900;170810;34.80;780;03.41.40.094
12916;170808;34.80;781;03.41.40.094
12916;170814;34.80;782;03.41.40.094
12940;170816;34.80;783;03.41.40.094
12884;170806;34.80;784;03.41.40.094
12884;170803;34.80;785;03.41.40.094
12904;170795;34.80;786;03.41.40.094
12908;170790;34.80;787;03.41.40.094
12904;170788;34.80;788;03.41.40.094
12908;170787;34.80;789;03.41.40.094
12892;170785;34.80;790;03.41.40.094
12904;170782;34.80;791;03.41.40.094
12908;170792;34.80;792;03.41.40.106
12892;170776;34.80;793;03.41.40.106
12924;170767;34.80;794;03.41.40.106
12912;170773;34.80;795;03.41.40.106
12928;170770;34.80;796;03.41.40.106
12928;170772;34.80;797;03.41.40.106
12880;170767;34.80;798;03.41.40.117
12924;170767;34.80;799;03.41.40.117
12892;170761;34.80;800;03.41.40.205
12928;170759;34.80;801;03.41.40.205
12908;170754;34.80;802;03.41.40.216
12888;170746;34.80;803;03.41.40.216
12928;170751;34.80;804;03.41.40.216
12896;170750;34.80;805;03.41.40.216
12888;170756;34.80;806;03.41.40.216
12916;170747;34.80;807;03.41.40.216
12880;170743;34.80;808;03.41.40.216
12896;170751;34.80;809;03.41.40.216
12912;170742;34.80;810;03.41.40.216
12892;170739;34.80;811;03.41.40.227
12916;170740;34.80;812;03.41.40.227
12912;170742;34.80;813;03.41.40.227
12928;170741;34.80;814;03.41.40.227
12900;170739;34.80;815;03.41.40.227
12916;170736;34.80;816;03.41.40.227
12900;170740;34.80;817;03.41.40.238
12892;170739;34.80;818;03.41.40.249
12912;170737;34.80;819;03.41.40.249
12908;170734;34.80;820;03.41.40.249
12876;170738;34.80;821;03.41.40.249
12920;170734;34.80;822;03.41.40.249
12908;170736;34.80;823;03.41.40.249
12924;170735;34.80;824;03.41.40.249
12892;170738;34.80;825;03.41.40.336
12912;170738;34.80;826;03.41.40.336
12904;170734;34.80;827;03.41.40.336
12928;170740;34.80;828;03.41.40.336
12888;170741;34.80;829;03.41.40.336
12884;170748;34.80;830;03.41.40.336
12892;170747;34.80;831;03.41.40.336
12932;170743;34.80;832;03.41.40.336
12928;170743;34.80;833;03.41.40.336
12888;170742;34.80;834;03.41.40.336
12900;170749;34.80;835;03.41.40.336
12912;170739;34.80;836;03.41.40.336
12884;170746;34.80;837;03.41.40.347
12888;170738;34.80;838;03.41.40.347
12908;170733;34.80;839;03.41.40.347
12888;170746;34.80;840;03.41.40.347
12908;170738;34.80;841;03.41.40.347
12908;170744;34.80;842;03.41.40.347
12920;170739;34.80;843;03.41.40.347
12876;170737;34.80;844;03.41.40.347
12908;170744;34.80;845;03.41.40.347
12920;170740;34.80;846;03.41.40.347
12928;170740;34.80;847;03.41.40.347
12904;170742;34.80;848;03.41.40.347
12936;170738;34.80;849;03.41.40.358
12900;170739;34.80;850;03.41.40.468
12888;170735;34.80;851;03.41.40.468
12896;170733;34.80;852;03.41.40.468
12904;170735;34.80;853;03.41.40.468
12860;170732;34.80;854;03.41.40.468
12928;170743;34.80;855;03.41.40.468
12904;170742;34.80;856;03.41.40.468
12904;170745;34.80;857;03.41.40.468
12904;170746;34.80;858;03.41.40.479
12916;170746;34.80;859;03.41.40.479
12920;170745;34.80;860;03.41.40.479
12916;170745;34.80;861;03.41.40.479
12928;170754;34.80;862;03.41.40.479
12928;170744;34.80;863;03.41.40.479
12900;170749;34.80;864;03.41.40.479
12920;170751;34.80;865;03.41.40.479
12896;170747;34.80;866;03.41.40.479
12888;170751;34.80;867;03.41.40.479
12908;170751;34.80;868;03.41.40.479
12904;170755;34.80;869;03.41.40.479
12908;170759;34.80;870;03.41.40.490
12884;170757;34.80;871;03.41.40.490
12892;170763;34.80;872;03.41.40.490
12912;170762;34.80;873;03.41.40.490
12908;170765;34.80;874;03.41.40.490
12892;170769;34.80;875;03.41.40.600
12892;170778;34.80;876;03.41.40.600
12904;170764;34.80;877;03.41.40.600
12900;170775;34.80;878;03.41.40.600
12884;170781;34.80;879;03.41.40.611
12904;170769;34.80;880;03.41.40.611
12920;170775;34.80;881;03.41.40.611
12876;170771;34.80;882;03.41.40.611
12900;170774;34.80;883;03.41.40.611
12896;170777;34.80;884;03.41.40.611
12900;170776;34.80;885;03.41.40.611
12920;170782;34.80;886;03.41.40.611
12904;170782;34.80;887;03.41.40.611
12904;170779;34.80;888;03.41.40.611
12896;170784;34.80;889;03.41.40.611
12896;170789;34.80;890;03.41.40.611
12892;170792;34.80;891;03.41.40.611
12884;170782;34.80;892;03.41.40.622
12888;170786;34.80;893;03.41.40.622
12912;170789;34.80;894;03.41.40.622
12928;170792;34.80;895;03.41.40.622
12912;170795;34.80;896;03.41.40.622
12900;170786;34.80;897;03.41.40.622
12908;170787;34.80;898;03.41.40.622
12928;170799;34.80;899;03.41.40.622
12916;170791;34.80;900;03.41.40.709
12904;170794;34.80;901;03.41.40.720
12884;170798;34.80;902;03.41.40.720
12916;170792;34.80;903;03.41.40.720
12908;170795;34.80;904;03.41.40.720
12892;170800;34.80;905;03.41.40.720
12904;170793;34.80;906;03.41.40.720
12912;170793;34.80;907;03.41.40.720
12888;170797;34.80;908;03.41.40.720
12908;170803;34.80;909;03.41.40.731
12920;170806;34.80;910;03.41.40.731
12892;170798;34.80;911;03.41.40.731
12892;170800;34.80;912;03.41.40.731
12908;170813;34.80;913;03.41.40.731
12892;170816;34.80;914;03.41.40.731
12892;170811;34.80;915;03.41.40.731
12916;170815;34.80;916;03.41.40.731
12936;170819;34.80;917;03.41.40.731
12908;170817;34.80;918;03.41.40.731
12900;170819;34.80;919;03.41.40.731
12912;170812;34.80;920;03.41.40.731
12920;170815;34.80;921;03.41.40.731
12892;170823;34.80;922;03.41.40.742
12908;170819;34.80;923;03.41.40.742
12908;170816;34.80;924;03.41.40.742
12908;170821;34.80;925;03.41.40.841
12900;170824;34.80;926;03.41.40.841
12876;170831;34.80;927;03.41.40.841
12888;170821;34.80;928;03.41.40.841
12904;170816;34.80;929;03.41.40.841
12900;170815;34.80;930;03.41.40.841
12900;170835;34.80;931;03.41.40.841
12904;170826;34.80;932;03.41.40.841
12908;170825;34.80;933;03.41.40.841
12892;170829;34.80;934;03.41.40.841
12884;170821;34.80;935;03.41.40.852
12932;170831;34.80;936;03.41.40.852
12912;170821;34.80;937;03.41.40.852
12884;170818;34.80;938;03.41.40.852
12892;170825;34.80;939;03.41.40.852
12888;170826;34.80;940;03.41.40.852
12904;170823;34.80;941;03.41.40.852
12884;170813;34.80;942;03.41.40.874
12900;170819;34.80;943;03.41.40.874
12916;170808;34.80;944;03.41.40.874
12876;170803;34.80;945;03.41.40.874
12904;170794;34.80;946;03.41.40.874
12920;170793;34.80;947;03.41.40.874
12892;170790;34.80;948;03.41.40.874
12912;170794;34.80;949;03.41.40.874
12908;170779;34.80;950;03.41.40.965
12908;170781;34.80;951;03.41.40.965
12892;170764;34.80;952;03.41.40.965
12892;170763;34.80;953;03.41.40.965
12888;170761;34.80;954;03.41.40.965
12884;170754;34.80;955;03.41.40.965
12876;170757;34.80;956;03.41.40.965
12896;170756;34.80;957;03.41.40.965
12920;170752;34.80;958;03.41.40.976
12896;170740;34.80;959;03.41.40.976
12896;170745;34.80;960;03.41.40.976
12920;170735;34.80;961;03.41.40.976
12860;170738;34.80;962;03.41.40.976
12916;170732;34.80;963;03.41.40.976
12928;170727;34.80;964;03.41.40.976
12888;170728;34.80;965;03.41.40.976
12928;170733;34.80;966;03.41.40.976
12916;170725;34.80;967;03.41.40.976
12916;170721;34.80;968;03.41.40.976
12872;170725;34.80;969;03.41.40.987
12912;170727;34.80;970;03.41.40.987
12892;170722;34.80;971;03.41.40.987
12900;170718;34.80;972;03.41.40.987
12932;170712;34.80;973;03.41.40.987
12912;170718;34.80;974;03.41.40.987
12912;170714;34.80;975;03.41.41.096
12892;170717;34.80;976;03.41.41.096
12892;170716;34.80;977;03.41.41.096
12900;170722;34.80;978;03.41.41.096
12876;170724;34.80;979;03.41.41.096
12928;170717;34.80;980;03.41.41.107
12884;170716;34.80;981;03.41.41.107
12876;170723;34.80;982;03.41.41.107
12896;170727;34.80;983;03.41.41.107
12920;170717;34.80;984;03.41.41.107
12920;170730;34.80;985;03.41.41.107
12912;170725;34.80;986;03.41.41.107
12904;170724;34.80;987;03.41.41.107
12876;170722;34.80;988;03.41.41.107
12940;170731;34.80;989;03.41.41.107
12928;170723;34.80;990;03.41.41.107
12896;170732;34.80;991;03.41.41.107
12920;170720;34.80;992;03.41.41.107
12908;170732;34.80;993;03.41.41.118
12928;170734;34.80;994;03.41.41.118
12904;170731;34.80;995;03.41.41.118
12912;170726;34.80;996;03.41.41.118
12892;170733;34.80;997;03.41.41.118
12892;170734;34.80;998;03.41.41.118
12892;170732;34.80;999;03.41.41.118
12888;170732;34.84;000;03.41.41.206
12928;170738;34.84;001;03.41.41.206
12916;170740;34.84;002;03.41.41.217
12912;170737;34.84;003;03.41.41.217
12908;170734;34.84;004;03.41.41.217
12908;170740;34.84;005;03.41.41.217
12892;170734;34.84;006;03.41.41.217
12908;170731;34.84;007;03.41.41.217
12904;170733;34.84;008;03.41.41.217
12892;170736;34.84;009;03.41.41.228
12928;170734;34.84;010;03.41.41.228
12944;170733;34.84;011;03.41.41.228
12892;170730;34.84;012;03.41.41.228
12912;170738;34.84;013;03.41.41.228
12892;170730;34.84;014;03.41.41.228
12884;170734;34.84;015;03.41.41.228
12912;170730;34.84;016;03.41.41.228
12892;170730;34.84;017;03.41.41.228
12932;170716;34.84;018;03.41.41.228
12892;170722;34.84;019;03.41.41.228
12908;170723;34.84;020;03.41.41.228
12912;170724;34.84;021;03.41.41.228
12904;170718;34.84;022;03.41.41.239
12900;170730;34.84;023;03.41.41.239
12924;170724;34.84;024;03.41.41.239
12900;170720;34.84;025;03.41.41.337
12924;170725;34.84;026;03.41.41.337
12904;170727;34.84;027;03.41.41.337
12904;170726;34.84;028;03.41.41.337
12928;170722;34.84;029;03.41.41.337
12860;170728;34.84;030;03.41.41.337
12892;170731;34.84;031;03.41.41.337
12928;170733;34.84;032;03.41.41.337
12936;170730;34.84;033;03.41.41.337
12892;170736;34.84;034;03.41.41.337
12904;170737;34.84;035;03.41.41.337
12928;170735;34.84;036;03.41.41.337
12896;170739;34.84;037;03.41.41.348
12896;170737;34.84;038;03.41.41.348
12912;170731;34.84;039;03.41.41.348
12892;170741;34.84;040;03.41.41.348
12880;170746;34.84;041;03.41.41.348
12880;170745;34.84;042;03.41.41.370
12928;170746;34.84;043;03.41.41.370
12896;170748;34.84;044;03.41.41.370
12892;170746;34.84;045;03.41.41.370
12912;170743;34.84;046;03.41.41.370
12908;170744;34.84;047;03.41.41.370
12892;170747;34.84;048;03.41.41.370
12964;170746;34.84;049;03.41.41.370
12928;170753;34.84;050;03.41.41.458
12944;170747;34.84;051;03.41.41.458
12904;170752;34.84;052;03.41.41.458
12920;170754;34.84;053;03.41.41.458
12908;170752;34.84;054;03.41.41.458
12924;170771;34.84;055;03.41.41.458
12908;170769;34.84;056;03.41.41.458
12892;170768;34.84;057;03.41.41.458
12876;170765;34.84;058;03.41.41.469
12892;170771;34.84;059;03.41.41.469
12920;170765;34.84;060;03.41.41.469
12900;170766;34.84;061;03.41.41.469
12912;170770;34.84;062;03.41.41.469
12896;170768;34.84;063;03.41.41.469
12904;170770;34.84;064;03.41.41.469
12896;170769;34.84;065;03.41.41.469
12932;170778;34.84;066;03.41.41.480
12908;170774;34.84;067;03.41.41.480
12892;170771;34.84;068;03.41.41.480
12916;170782;34.84;069;03.41.41.480
12924;170779;34.84;070;03.41.41.480
12920;170783;34.84;071;03.41.41.480
12892;170789;34.84;072;03.41.41.480
12900;170790;34.84;073;03.41.41.480
12896;170784;34.84;074;03.41.41.480
12912;170792;34.84;075;03.41.41.589
12892;170789;34.84;076;03.41.41.589
12936;170785;34.84;077;03.41.41.589
12896;170787;34.84;078;03.41.41.600
12892;170794;34.84;079;03.41.41.600
12908;170789;34.84;080;03.41.41.600
12932;170785;34.84;081;03.41.41.600
12892;170793;34.84;082;03.41.41.600
12928;170793;34.84;083;03.41.41.600
12896;170787;34.84;084;03.41.41.600
12928;170790;34.84;085;03.41.41.600
12892;170796;34.84;086;03.41.41.600
12928;170798;34.84;087;03.41.41.600
12924;170803;34.84;088;03.41.41.600
12908;170797;34.84;089;03.41.41.600
12928;170799;34.84;090;03.41.41.600
12912;170807;34.84;091;03.41.41.600
12892;170801;34.84;092;03.41.41.611
12928;170803;34.84;093;03.41.41.611
12936;170801;34.84;094;03.41.41.611
12924;170803;34.84;095;03.41.41.611
12928;170807;34.84;096;03.41.41.611
12912;170805;34.84;097;03.41.41.611
12908;170816;34.84;098;03.41.41.611
12928;170815;34.84;099;03.41.41.611
12908;170812;34.80;100;03.41.41.731
12928;170814;34.80;101;03.41.41.731
12892;170812;34.80;102;03.41.41.731
12896;170813;34.80;103;03.41.41.731
12892;170811;34.80;104;03.41.41.731
12912;170813;34.80;105;03.41.41.731
12888;170808;34.80;106;03.41.41.731
12928;170803;34.80;107;03.41.41.731
12924;170805;34.80;108;03.41.41.731
12904;170799;34.80;109;03.41.41.731
12896;170802;34.80;110;03.41.41.731
12900;170793;34.80;111;03.41.41.742
12904;170782;34.80;112;03.41.41.742
12904;170780;34.80;113;03.41.41.742
12936;170773;34.80;114;03.41.41.742
12912;170784;34.80;115;03.41.41.742
12928;170766;34.80;116;03.41.41.742
12900;170761;34.80;117;03.41.41.742
12884;170765;34.80;118;03.41.41.742
12892;170760;34.80;119;03.41.41.742
12904;170763;34.80;120;03.41.41.742
12860;170754;34.80;121;03.41.41.742
12868;170744;34.80;122;03.41.41.742
12892;170744;34.80;123;03.41.41.742
12904;170738;34.80;124;03.41.41.742
12896;170735;34.80;125;03.41.41.841
12892;170733;34.80;126;03.41.41.841
12904;170731;34.80;127;03.41.41.841
12896;170723;34.80;128;03.41.41.841
12928;170727;34.80;129;03.41.41.841
12904;170721;34.80;130;03.41.41.841
12896;170721;34.80;131;03.41.41.841
12932;170715;34.80;132;03.41.41.841
12920;170716;34.80;133;03.41.41.863
12884;170717;34.80;134;03.41.41.863
12912;170721;34.80;135;03.41.41.863
12892;170713;34.80;136;03.41.41.863
12912;170709;34.80;137;03.41.41.863
12900;170712;34.80;138;03.41.41.863
12908;170709;34.80;139;03.41.41.863
12928;170715;34.80;140;03.41.41.863
12892;170698;34.80;141;03.41.41.863
12892;170703;34.80;142;03.41.41.885
12904;170711;34.80;143;03.41.41.885
12916;170703;34.80;144;03.41.41.885
12888;170704;34.80;145;03.41.41.885
12880;170694;34.80;146;03.41.41.885
12924;170705;34.80;147;03.41.41.885
12888;170697;34.80;148;03.41.41.885
12928;170700;34.80;149;03.41.41.885
12880;170700;34.84;150;03.41.41.962
12916;170698;34.84;151;03.41.41.962
12904;170704;34.84;152;03.41.41.962
12896;170701;34.84;153;03.41.41.962
12876;170700;34.84;154;03.41.41.962
12916;170701;34.84;155;03.41.41.973
12884;170701;34.84;156;03.41.41.973
12904;170697;34.84;157;03.41.41.973
12928;170707;34.84;158;03.41.41.973
12904;170708;34.84;159;03.41.41.973
12900;170710;34.84;160;03.41.41.973
12928;170710;34.84;161;03.41.41.973
12904;170710;34.84;162;03.41.41.973
12928;170713;34.84;163;03.41.41.973
12904;170711;34.84;164;03.41.41.973
12876;170714;34.84;165;03.41.41.973
12912;170713;34.84;166;03.41.41.973
12916;170723;34.84;167;03.41.41.973
12932;170719;34.84;168;03.41.41.984
12920;170726;34.84;169;03.41.41.984
12912;170729;34.84;170;03.41.41.984
12892;170718;34.84;171;03.41.41.984
12924;170717;34.84;172;03.41.41.984
12896;170715;34.84;173;03.41.41.984
12900;170711;34.84;174;03.41.41.984
d;e;f;03.41.43.255
12900;000976;34.80;175;03.41.43.386
12916;057556;34.80;176;03.41.43.386
12888;073933;34.80;177;03.41.43.386
12892;090363;34.80;178;03.41.43.386
12924;106718;34.80;179;03.41.43.386
12928;123107;34.80;180;03.41.43.386
12868;139483;34.80;181;03.41.43.386
12908;155867;34.80;182;03.41.43.386
12912;171157;34.80;183;03.41.43.397
12908;170879;34.80;184;03.41.43.397
12928;170863;34.80;185;03.41.43.397
12920;170867;34.80;186;03.41.43.397
12920;170853;34.80;187;03.41.43.397
12912;170842;34.80;188;03.41.43.397
12920;170841;34.80;189;03.41.43.397
12900;170839;34.80;190;03.41.43.397
12912;170837;34.80;191;03.41.43.397
12896;170821;34.80;192;03.41.43.397
12904;170807;34.80;193;03.41.43.397
12916;170805;34.80;194;03.41.43.397
12888;170813;34.80;195;03.41.43.408
12928;170804;34.80;196;03.41.43.408
12920;170805;34.80;197;03.41.43.408
12892;170799;34.80;198;03.41.43.408
12920;170791;34.80;199;03.41.43.408
12936;170787;34.80;200;03.41.43.507
12940;170787;34.80;201;03.41.43.507
12912;170776;34.80;202;03.41.43.507
12916;170773;34.80;203;03.41.43.507
12928;170771;34.80;204;03.41.43.507
12920;170771;34.80;205;03.41.43.507
12928;170772;34.80;206;03.41.43.507
12912;170762;34.80;207;03.41.43.507
12912;170761;34.80;208;03.41.43.507
12916;170770;34.80;209;03.41.43.518
12884;170760;34.80;210;03.41.43.518
12860;170758;34.80;211;03.41.43.518
12912;170764;34.80;212;03.41.43.518
12920;170766;34.80;213;03.41.43.518
12892;170757;34.80;214;03.41.43.518
12920;170762;34.80;215;03.41.43.518
12920;170758;34.80;216;03.41.43.518
12892;170763;34.80;217;03.41.43.518
12908;170766;34.80;218;03.41.43.518
12892;170764;34.80;219;03.41.43.518
12884;170765;34.80;220;03.41.43.518
12936;170760;34.80;221;03.41.43.518
12912;170761;34.80;222;03.41.43.529
12928;170768;34.80;223;03.41.43.529
12944;170763;34.80;224;03.41.43.529
12892;170768;34.80;225;03.41.43.639
12892;170765;34.80;226;03.41.43.639
12872;170774;34.80;227;03.41.43.639
12884;170766;34.80;228;03.41.43.639
12912;170764;34.80;229;03.41.43.639
12884;170758;34.80;230;03.41.43.639
12900;170758;34.80;231;03.41.43.649
12904;170764;34.80;232;03.41.43.649
12916;170757;34.80;233;03.41.43.649
12904;170755;34.80;234;03.41.43.649
12908;170757;34.80;235;03.41.43.649
12860;170756;34.80;236;03.41.43.649
12904;170754;34.80;237;03.41.43.649
12900;170757;34.80;238;03.41.43.649
12912;170752;34.80;239;03.41.43.649
12912;170750;34.80;240;03.41.43.649
12932;170746;34.80;241;03.41.43.649
12896;170760;34.80;242;03.41.43.649
12888;170760;34.80;243;03.41.43.649
12912;170758;34.80;244;03.41.43.660
12904;170753;34.80;245;03.41.43.660
12904;170745;34.80;246;03.41.43.660
12892;170749;34.80;247;03.41.43.660
12892;170749;34.80;248;03.41.43.660
12908;170752;34.80;249;03.41.43.660
12892;170754;34.80;250;03.41.43.759
12912;170755;34.80;251;03.41.43.759
12900;170756;34.80;252;03.41.43.770
12896;170752;34.80;253;03.41.43.770
12888;170754;34.80;254;03.41.43.770
12892;170748;34.80;255;03.41.43.770
12884;170746;34.80;256;03.41.43.770
12884;170757;34.80;257;03.41.43.770
12888;170751;34.80;258;03.41.43.770
12888;170750;34.80;259;03.41.43.770
12916;170738;34.80;260;03.41.43.770
12920;170741;34.80;261;03.41.43.770
12916;170747;34.80;262;03.41.43.770
12912;170747;34.80;263;03.41.43.770
12924;170742;34.80;264;03.41.43.770
12900;170739;34.80;265;03.41.43.781
12904;170746;34.80;266;03.41.43.781
12928;170748;34.80;267;03.41.43.781
12928;170746;34.80;268;03.41.43.781
12924;170746;34.80;269;03.41.43.781
12924;170735;34.80;270;03.41.43.781
12944;170742;34.80;271;03.41.43.781
12896;170744;34.80;272;03.41.43.781
12892;170751;34.80;273;03.41.43.781
12928;170735;34.80;274;03.41.43.781
12912;170740;34.80;275;03.41.43.880
12904;170739;34.80;276;03.41.43.880
12912;170751;34.80;277;03.41.43.880
12888;170747;34.80;278;03.41.43.880
12928;170743;34.80;279;03.41.43.880
12884;170747;34.80;280;03.41.43.880
12892;170746;34.80;281;03.41.43.880
12908;170753;34.80;282;03.41.43.880
12884;170755;34.80;283;03.41.43.891
12892;170737;34.80;284;03.41.43.891
12916;170755;34.80;285;03.41.43.891
12892;170753;34.80;286;03.41.43.891
12904;170754;34.80;287;03.41.43.891
12908;170747;34.80;288;03.41.43.891
12892;170762;34.80;289;03.41.43.891
12900;170752;34.80;290;03.41.43.891
12936;170754;34.80;291;03.41.43.891
12876;170752;34.80;292;03.41.43.913
12924;170753;34.80;293;03.41.43.913
12904;170759;34.80;294;03.41.43.913
12928;170766;34.80;295;03.41.43.913
12924;170760;34.80;296;03.41.43.913
12912;170759;34.80;297;03.41.43.913
12916;170755;34.80;298;03.41.43.913
12908;170767;34.80;299;03.41.43.913
12880;170763;34.80;300;03.41.44.001
12912;170768;34.80;301;03.41.44.001
12904;170761;34.80;302;03.41.44.001
12912;170762;34.80;303;03.41.44.001
12928;170768;34.80;304;03.41.44.001
12892;170769;34.80;305;03.41.44.001
12904;170774;34.80;306;03.41.44.001
12896;170763;34.80;307;03.41.44.001
12896;170765;34.80;308;03.41.44.001
12896;170766;34.80;309;03.41.44.013
12912;170772;34.80;310;03.41.44.013
12900;170769;34.80;311;03.41.44.013
12908;170768;34.80;312;03.41.44.013
12928;170771;34.80;313;03.41.44.013
12916;170773;34.80;314;03.41.44.013
12888;170773;34.80;315;03.41.44.013
12908;170771;34.80;316;03.41.44.013
12908;170776;34.80;317;03.41.44.034
12888;170770;34.80;318;03.41.44.034
12920;170777;34.80;319;03.41.44.034
12900;170776;34.80;320;03.41.44.034
12916;170784;34.80;321;03.41.44.034
12904;170776;34.80;322;03.41.44.034
12880;170778;34.80;323;03.41.44.034
12932;170775;34.80;324;03.41.44.034
12892;170776;34.80;325;03.41.44.122
12928;170771;34.80;326;03.41.44.122
12904;170779;34.80;327;03.41.44.122
12892;170779;34.80;328;03.41.44.122
12888;170787;34.80;329;03.41.44.122
12928;170788;34.80;330;03.41.44.133
12884;170785;34.80;331;03.41.44.133
12904;170782;34.80;332;03.41.44.133
12920;170780;34.80;333;03.41.44.133
12888;170769;34.80;334;03.41.44.133
12892;170775;34.80;335;03.41.44.133
12928;170771;34.80;336;03.41.44.133
12928;170767;34.80;337;03.41.44.133
12908;170757;34.80;338;03.41.44.133
12892;170763;34.80;339;03.41.44.133
12908;170755;34.80;340;03.41.44.133
12896;170749;34.80;341;03.41.44.133
12912;170755;34.80;342;03.41.44.133
12936;170744;34.80;343;03.41.44.144
12884;170736;34.80;344;03.41.44.144
12892;170734;34.80;345;03.41.44.144
12892;170738;34.80;346;03.41.44.144
12928;170720;34.80;347;03.41.44.144
12892;170730;34.80;348;03.41.44.144
12932;170720;34.80;349;03.41.44.144
12920;170724;34.80;350;03.41.44.265
12908;170717;34.80;351;03.41.44.265
12928;170721;34.80;352;03.41.44.265
12900;170711;34.80;353;03.41.44.265
12904;170703;34.80;354;03.41.44.265
12912;170707;34.80;355;03.41.44.265
12912;170701;34.80;356;03.41.44.265
12884;170707;34.80;357;03.41.44.265
12916;170702;34.80;358;03.41.44.265
12928;170699;34.80;359;03.41.44.265
12928;170699;34.80;360;03.41.44.265
12896;170692;34.80;361;03.41.44.265
12888;170694;34.80;362;03.41.44.265
12904;170702;34.80;363;03.41.44.265
12896;170698;34.80;364;03.41.44.276
12912;170696;34.80;365;03.41.44.276
12908;170698;34.80;366;03.41.44.276
12920;170693;34.80;367;03.41.44.276
12900;170699;34.80;368;03.41.44.276
12860;170702;34.80;369;03.41.44.276
12908;170702;34.80;370;03.41.44.276
12884;170698;34.80;371;03.41.44.276
12920;170696;34.80;372;03.41.44.276
12892;170694;34.80;373;03.41.44.276
12908;170691;34.80;374;03.41.44.276
12912;170687;34.80;375;03.41.44.395
12888;170692;34.80;376;03.41.44.395
12904;170696;34.80;377;03.41.44.395
12928;170704;34.80;378;03.41.44.395
12916;170699;34.80;379;03.41.44.395
12920;170705;34.80;380;03.41.44.395
12916;170704;34.80;381;03.41.44.395
12900;170701;34.80;382;03.41.44.395
12892;170702;34.80;383;03.41.44.395
12920;170699;34.80;384;03.41.44.406
12888;170691;34.80;385;03.41.44.406
12936;170703;34.80;386;03.41.44.406
12880;170702;34.80;387;03.41.44.406
12908;170709;34.80;388;03.41.44.406
12928;170696;34.80;389;03.41.44.406
12904;170706;34.80;390;03.41.44.406
12884;170704;34.80;391;03.41.44.406
12920;170708;34.80;392;03.41.44.406
12892;170710;34.80;393;03.41.44.406
12920;170703;34.80;394;03.41.44.406
12892;170715;34.80;395;03.41.44.406
12932;170715;34.80;396;03.41.44.406
12928;170708;34.80;397;03.41.44.417
12892;170705;34.80;398;03.41.44.417
12928;170710;34.80;399;03.41.44.417
12892;170705;34.80;400;03.41.44.505
12908;170706;34.80;401;03.41.44.505
12912;170706;34.80;402;03.41.44.505
12876;170706;34.80;403;03.41.44.505
12916;170710;34.80;404;03.41.44.505
12924;170706;34.80;405;03.41.44.515
12916;170710;34.80;406;03.41.44.515
12904;170713;34.80;407;03.41.44.515
12904;170712;34.80;408;03.41.44.515
12912;170709;34.80;409;03.41.44.515
12892;170697;34.80;410;03.41.44.515
12912;170707;34.80;411;03.41.44.515
12900;170712;34.80;412;03.41.44.526
12892;170709;34.80;413;03.41.44.526
12904;170715;34.80;414;03.41.44.526
12928;170716;34.80;415;03.41.44.526
12916;170706;34.80;416;03.41.44.526
12888;170716;34.80;417;03.41.44.526
12892;170720;34.80;418;03.41.44.526
12912;170722;34.80;419;03.41.44.526
12908;170721;34.80;420;03.41.44.526
12908;170718;34.80;421;03.41.44.526
12916;170724;34.80;422;03.41.44.526
12888;170725;34.80;423;03.41.44.526
12892;170718;34.80;424;03.41.44.526
12928;170715;34.80;425;03.41.44.625
12892;170726;34.80;426;03.41.44.636
12928;170729;34.80;427;03.41.44.636
12904;170729;34.80;428;03.41.44.636
12908;170731;34.80;429;03.41.44.636
12912;170729;34.80;430;03.41.44.636
12892;170737;34.80;431;03.41.44.636
12884;170735;34.80;432;03.41.44.636
12904;170740;34.80;433;03.41.44.636
12908;170739;34.80;434;03.41.44.636
12920;170742;34.80;435;03.41.44.636
12908;170739;34.80;436;03.41.44.636
12892;170734;34.80;437;03.41.44.636
12892;170742;34.80;438;03.41.44.636
12904;170747;34.80;439;03.41.44.647
12924;170745;34.80;440;03.41.44.647
12920;170753;34.80;441;03.41.44.647
12916;170748;34.80;442;03.41.44.647
12928;170755;34.80;443;03.41.44.647
12928;170755;34.80;444;03.41.44.647
12928;170754;34.80;445;03.41.44.647
12904;170752;34.80;446;03.41.44.647
12892;170759;34.80;447;03.41.44.647
12888;170758;34.80;448;03.41.44.647
12924;170760;34.80;449;03.41.44.647
12904;170771;34.80;450;03.41.44.756
12912;170764;34.80;451;03.41.44.756
12916;170774;34.80;452;03.41.44.756
12880;170771;34.80;453;03.41.44.756
12896;170773;34.80;454;03.41.44.756
12904;170774;34.80;455;03.41.44.756
12908;170775;34.80;456;03.41.44.756
12892;170776;34.80;457;03.41.44.756
12928;170783;34.80;458;03.41.44.756
12920;170780;34.80;459;03.41.44.767
12928;170781;34.80;460;03.41.44.767
12892;170781;34.80;461;03.41.44.767
12916;170780;34.80;462;03.41.44.767
12924;170777;34.80;463;03.41.44.767
12896;170781;34.80;464;03.41.44.767
12904;170788;34.80;465;03.41.44.767
12916;170777;34.80;466;03.41.44.767
12912;170789;34.80;467;03.41.44.767
12920;170787;34.80;468;03.41.44.767
12900;170783;34.80;469;03.41.44.767
12900;170789;34.80;470;03.41.44.767
12860;170785;34.80;471;03.41.44.767
12908;170787;34.80;472;03.41.44.778
12904;170786;34.80;473;03.41.44.778
12912;170796;34.80;474;03.41.44.778
12908;170793;34.80;475;03.41.44.931
12928;170792;34.80;476;03.41.44.931
12920;170796;34.80;477;03.41.44.931
12908;170793;34.80;478;03.41.44.942
12900;170793;34.80;479;03.41.44.942
12928;170795;34.80;480;03.41.44.942
12916;170794;34.80;481;03.41.44.942
12924;170797;34.80;482;03.41.44.942
12892;170802;34.80;483;03.41.44.942
12904;170800;34.80;484;03.41.44.942
12916;170799;34.80;485;03.41.44.942
12936;170797;34.80;486;03.41.44.942
12928;170803;34.80;487;03.41.44.942
12904;170801;34.80;488;03.41.44.942
12928;170801;34.80;489;03.41.44.942
12900;170789;34.80;490;03.41.44.952
12904;170785;34.80;491;03.41.44.952
12904;170796;34.80;492;03.41.44.952
12932;170789;34.80;493;03.41.44.952
12912;170783;34.80;494;03.41.44.952
12928;170780;34.80;495;03.41.44.952
12900;170771;34.80;496;03.41.44.952
12916;170768;34.80;497;03.41.44.952
12928;170768;34.80;498;03.41.44.952
12932;170761;34.80;499;03.41.44.952
12888;170769;34.80;500;03.41.44.996
12900;170764;34.80;501;03.41.44.996
12916;170767;34.80;502;03.41.45.007
12920;170760;34.80;503;03.41.45.007
12888;170756;34.80;504;03.41.45.007
12904;170756;34.80;505;03.41.45.007
12888;170753;34.80;506;03.41.45.007
12896;170743;34.80;507;03.41.45.007
12904;170747;34.80;508;03.41.45.018
12860;170743;34.80;509;03.41.45.018
12900;170738;34.80;510;03.41.45.029
12908;170743;34.80;511;03.41.45.029
12920;170735;34.80;512;03.41.45.029
12880;170741;34.80;513;03.41.45.029
12892;170732;34.80;514;03.41.45.029
12872;170750;34.80;515;03.41.45.029
12876;170739;34.80;516;03.41.45.029
12912;170745;34.80;517;03.41.45.029
12904;170746;34.80;518;03.41.45.029
12908;170745;34.80;519;03.41.45.029
12880;170745;34.80;520;03.41.45.029
12936;170751;34.80;521;03.41.45.029
12892;170741;34.80;522;03.41.45.029
12904;170746;34.80;523;03.41.45.040
12924;170742;34.80;524;03.41.45.040
12928;170747;34.80;525;03.41.45.128
12916;170744;34.80;526;03.41.45.128
12916;170747;34.80;527;03.41.45.128
12912;170750;34.80;528;03.41.45.128
12904;170756;34.80;529;03.41.45.128
12912;170741;34.80;530;03.41.45.128
12908;170748;34.80;531;03.41.45.128
12908;170745;34.80;532;03.41.45.128
12924;170760;34.80;533;03.41.45.128
12912;170754;34.80;534;03.41.45.128
12892;170761;34.80;535;03.41.45.128
12900;170760;34.80;536;03.41.45.139
12904;170760;34.80;537;03.41.45.139
12912;170754;34.80;538;03.41.45.139
12896;170760;34.80;539;03.41.45.139
12900;170761;34.80;540;03.41.45.139
12912;170762;34.80;541;03.41.45.139
12896;170761;34.80;542;03.41.45.139
12924;170753;34.80;543;03.41.45.139
12900;170758;34.80;544;03.41.45.139
12916;170756;34.80;545;03.41.45.139
12888;170764;34.80;546;03.41.45.139
12916;170765;34.80;547;03.41.45.139
12900;170763;34.80;548;03.41.45.139
12916;170765;34.80;549;03.41.45.150
12904;170762;34.80;550;03.41.45.271
12908;170765;34.80;551;03.41.45.271
12928;170760;34.80;552;03.41.45.271
12916;170760;34.80;553;03.41.45.271
12908;170759;34.80;554;03.41.45.271
12904;170749;34.80;555;03.41.45.271
12888;170756;34.80;556;03.41.45.282
12932;170756;34.80;557;03.41.45.282
12896;170759;34.80;558;03.41.45.304
12892;170755;34.80;559;03.41.45.304
12900;170753;34.80;560;03.41.45.304
12920;170755;34.80;561;03.41.45.304
12928;170755;34.80;562;03.41.45.304
12912;170749;34.80;563;03.41.45.304
12932;170754;34.80;564;03.41.45.315
12892;170757;34.80;565;03.41.45.315
12916;170753;34.80;566;03.41.45.315
12924;170755;34.80;567;03.41.45.315
12904;170757;34.80;568;03.41.45.315
12900;170758;34.80;569;03.41.45.315
12900;170758;34.80;570;03.41.45.315
12892;170758;34.80;571;03.41.45.315
12900;170758;34.80;572;03.41.45.315
12940;170752;34.80;573;03.41.45.315
12904;170767;34.80;574;03.41.45.315
12896;170751;34.80;575;03.41.45.402
12904;170756;34.80;576;03.41.45.402
12896;170750;34.80;577;03.41.45.402
12892;170760;34.80;578;03.41.45.413
12920;170758;34.80;579;03.41.45.413
12908;170755;34.80;580;03.41.45.413
12928;170759;34.80;581;03.41.45.413
12908;170759;34.80;582;03.41.45.413
12892;170761;34.80;583;03.41.45.413
12892;170758;34.80;584;03.41.45.413
12900;170751;34.80;585;03.41.45.413
12892;170748;34.80;586;03.41.45.413
12900;170762;34.80;587;03.41.45.413
12904;170759;34.80;588;03.41.45.413
12916;170762;34.80;589;03.41.45.413
12884;170762;34.80;590;03.41.45.413
12892;170765;34.80;591;03.41.45.424
12916;170764;34.80;592;03.41.45.424
12896;170764;34.80;593;03.41.45.424
12888;170772;34.80;594;03.41.45.424
12900;170775;34.80;595;03.41.45.424
12904;170773;34.80;596;03.41.45.424
12912;170770;34.80;597;03.41.45.424
12908;170777;34.80;598;03.41.45.424
12912;170772;34.80;599;03.41.45.424
12876;170781;34.80;600;03.41.45.545
12896;170775;34.80;601;03.41.45.545
12900;170769;34.80;602;03.41.45.545
12904;170775;34.80;603;03.41.45.545
12892;170770;34.80;604;03.41.45.545
12916;170778;34.80;605;03.41.45.545
12916;170780;34.80;606;03.41.45.545
12932;170772;34.80;607;03.41.45.545
12908;170782;34.80;608;03.41.45.567
12892;170788;34.80;609;03.41.45.567
12904;170788;34.80;610;03.41.45.567
12912;170775;34.80;611;03.41.45.567
12912;170790;34.80;612;03.41.45.567
12900;170781;34.80;613;03.41.45.567
12928;170788;34.80;614;03.41.45.567
12904;170787;34.80;615;03.41.45.567
12896;170790;34.80;616;03.41.45.567
12896;170794;34.80;617;03.41.45.578
12908;170798;34.80;618;03.41.45.578
12912;170790;34.80;619;03.41.45.578
12944;170796;34.80;620;03.41.45.578
12928;170792;34.80;621;03.41.45.578
12912;170796;34.80;622;03.41.45.578
12920;170797;34.80;623;03.41.45.578
12936;170790;34.80;624;03.41.45.578
12920;170796;34.80;625;03.41.45.633
12892;170796;34.80;626;03.41.45.633
12892;170795;34.80;627;03.41.45.633
12912;170796;34.80;628;03.41.45.633
12924;170787;34.80;629;03.41.45.633
12908;170793;34.80;630;03.41.45.633
12904;170782;34.80;631;03.41.45.633
12928;170770;34.80;632;03.41.45.633
12928;170763;34.80;633;03.41.45.644
12916;170761;34.80;634;03.41.45.644
12936;170749;34.80;635;03.41.45.644
12924;170755;34.80;636;03.41.45.644
12916;170747;34.80;637;03.41.45.644
12912;170741;34.80;638;03.41.45.644
12904;170743;34.80;639;03.41.45.644
12924;170737;34.80;640;03.41.45.644
12912;170731;34.80;641;03.41.45.644
12908;170727;34.80;642;03.41.45.666
12920;170727;34.80;643;03.41.45.666
12924;170727;34.80;644;03.41.45.666
12932;170724;34.80;645;03.41.45.666
12912;170718;34.80;646;03.41.45.666
12912;170713;34.80;647;03.41.45.666
12888;170709;34.80;648;03.41.45.666
12924;170706;34.80;649;03.41.45.666
12892;170712;34.80;650;03.41.45.753
12916;170711;34.80;651;03.41.45.753
12916;170705;34.80;652;03.41.45.753
12892;170700;34.80;653;03.41.45.753
12916;170708;34.80;654;03.41.45.753
12912;170705;34.80;655;03.41.45.753
12896;170711;34.80;656;03.41.45.764
12892;170705;34.80;657;03.41.45.764
12904;170711;34.80;658;03.41.45.764
12904;170713;34.80;659;03.41.45.764
12896;170703;34.80;660;03.41.45.764
12888;170700;34.80;661;03.41.45.764
12928;170698;34.80;662;03.41.45.764
12888;170704;34.80;663;03.41.45.764
12920;170699;34.80;664;03.41.45.764
12920;170697;34.80;665;03.41.45.764
12892;170708;34.80;666;03.41.45.764
12908;170701;34.80;667;03.41.45.764
12892;170702;34.80;668;03.41.45.775
12928;170703;34.80;669;03.41.45.775
12896;170706;34.80;670;03.41.45.775
12908;170704;34.80;671;03.41.45.775
12920;170706;34.80;672;03.41.45.775
12916;170704;34.80;673;03.41.45.775
12928;170714;34.80;674;03.41.45.775
12912;170704;34.80;675;03.41.45.885
12888;170707;34.80;676;03.41.45.896
12932;170703;34.80;677;03.41.45.896
12892;170712;34.80;678;03.41.45.896
12928;170707;34.80;679;03.41.45.896
12860;170711;34.80;680;03.41.45.896
12900;170705;34.80;681;03.41.45.896
12924;170702;34.80;682;03.41.45.896
12876;170720;34.80;683;03.41.45.896
12928;170713;34.80;684;03.41.45.896
12892;170699;34.80;685;03.41.45.896
12908;170704;34.80;686;03.41.45.896
12916;170707;34.80;687;03.41.45.896
12892;170701;34.80;688;03.41.45.896
12928;170701;34.80;689;03.41.45.907
12896;170698;34.80;690;03.41.45.907
12888;170701;34.80;691;03.41.45.907
12900;170698;34.80;692;03.41.45.907
12892;170696;34.80;693;03.41.45.907
12916;170699;34.80;694;03.41.45.907
12916;170700;34.80;695;03.41.45.907
12900;170699;34.80;696;03.41.45.907
12912;170695;34.80;697;03.41.45.907
12924;170696;34.80;698;03.41.45.907
12932;170691;34.80;699;03.41.45.907
12900;170685;34.80;700;03.41.46.028
12896;170691;34.80;701;03.41.46.028
12908;170689;34.80;702;03.41.46.028
12908;170681;34.80;703;03.41.46.028
12908;170687;34.80;704;03.41.46.028
12892;170682;34.80;705;03.41.46.028
12924;170685;34.80;706;03.41.46.028
12900;170696;34.80;707;03.41.46.028
12872;170686;34.80;708;03.41.46.028
12900;170683;34.80;709;03.41.46.028
12920;170687;34.80;710;03.41.46.039
12928;170690;34.80;711;03.41.46.039
12924;170691;34.80;712;03.41.46.039
12912;170695;34.80;713;03.41.46.039
12900;170691;34.80;714;03.41.46.039
12912;170702;34.80;715;03.41.46.039
12888;170693;34.80;716;03.41.46.039
12912;170699;34.80;717;03.41.46.039
12908;170699;34.80;718;03.41.46.039
12892;170707;34.80;719;03.41.46.039
12904;170721;34.80;720;03.41.46.039
12912;170710;34.80;721;03.41.46.039
12896;170702;34.80;722;03.41.46.039
12912;170716;34.80;723;03.41.46.050
12928;170724;34.80;724;03.41.46.050
12900;170718;34.84;725;03.41.46.126
12916;170717;34.84;726;03.41.46.126
12912;170715;34.84;727;03.41.46.126
12904;170719;34.84;728;03.41.46.126
12892;170718;34.84;729;03.41.46.126
12928;170713;34.84;730;03.41.46.126
12896;170719;34.84;731;03.41.46.126
12908;170723;34.84;732;03.41.46.126
12920;170727;34.84;733;03.41.46.148
12888;170723;34.84;734;03.41.46.148
12916;170724;34.84;735;03.41.46.148
12908;170721;34.84;736;03.41.46.148
12888;170718;34.84;737;03.41.46.148
12908;170724;34.84;738;03.41.46.148
12944;170727;34.84;739;03.41.46.148
12920;170725;34.84;740;03.41.46.159
12908;170719;34.84;741;03.41.46.159
12900;170712;34.84;742;03.41.46.159
12928;170727;34.84;743;03.41.46.159
12900;170722;34.84;744;03.41.46.159
12928;170724;34.84;745;03.41.46.159
12928;170726;34.84;746;03.41.46.159
12904;170723;34.84;747;03.41.46.159
12924;170723;34.84;748;03.41.46.159
12924;170727;34.84;749;03.41.46.159
12900;170729;34.84;750;03.41.46.247
12896;170725;34.84;751;03.41.46.247
12920;170714;34.84;752;03.41.46.247
12908;170725;34.84;753;03.41.46.258
12936;170729;34.84;754;03.41.46.258
12916;170729;34.84;755;03.41.46.258
12912;170725;34.84;756;03.41.46.258
12912;170736;34.84;757;03.41.46.258
12912;170736;34.84;758;03.41.46.258
12916;170739;34.84;759;03.41.46.258
12908;170737;34.84;760;03.41.46.258
12944;170734;34.84;761;03.41.46.258
12896;170731;34.84;762;03.41.46.258
12904;170745;34.84;763;03.41.46.258
12892;170736;34.84;764;03.41.46.258
12896;170736;34.84;765;03.41.46.258
12920;170735;34.84;766;03.41.46.269
12876;170733;34.84;767;03.41.46.269
12892;170725;34.84;768;03.41.46.269
12920;170722;34.84;769;03.41.46.269
12892;170720;34.84;770;03.41.46.281
12860;170710;34.84;771;03.41.46.281
12916;170706;34.84;772;03.41.46.281
12904;170700;34.84;773;03.41.46.281
12916;170700;34.84;774;03.41.46.281
12928;170699;34.80;775;03.41.46.390
12892;170698;34.80;776;03.41.46.390
12920;170690;34.80;777;03.41.46.390
12912;170690;34.80;778;03.41.46.390
12916;170683;34.80;779;03.41.46.390
12900;170681;34.80;780;03.41.46.390
12908;170674;34.80;781;03.41.46.390
12892;170662;34.80;782;03.41.46.390
12904;170659;34.80;783;03.41.46.390
12928;170657;34.80;784;03.41.46.390
12916;170647;34.80;785;03.41.46.390
12912;170647;34.80;786;03.41.46.390
12888;170640;34.80;787;03.41.46.401
12896;170636;34.80;788;03.41.46.401
12904;170636;34.80;789;03.41.46.401
12900;170635;34.80;790;03.41.46.401
12904;170629;34.80;791;03.41.46.401
12888;170628;34.80;792;03.41.46.401
12896;170626;34.80;793;03.41.46.401
12896;170606;34.80;794;03.41.46.401
12932;170617;34.80;795;03.41.46.401
12888;170613;34.80;796;03.41.46.401
12884;170612;34.80;797;03.41.46.401
12876;170608;34.80;798;03.41.46.401
12916;170595;34.80;799;03.41.46.401
12884;170599;34.80;800;03.41.46.521
12908;170589;34.80;801;03.41.46.521
12916;170601;34.80;802;03.41.46.521
12908;170594;34.80;803;03.41.46.521
12920;170587;34.80;804;03.41.46.521
12912;170592;34.80;805;03.41.46.521
12900;170589;34.80;806;03.41.46.521
12912;170592;34.80;807;03.41.46.521
12888;170585;34.80;808;03.41.46.532
12900;170584;34.80;809;03.41.46.532
12920;170588;34.80;810;03.41.46.532
12928;170583;34.80;811;03.41.46.532
12876;170584;34.80;812;03.41.46.532
12932;170585;34.80;813;03.41.46.532
12920;170582;34.80;814;03.41.46.532
12884;170571;34.80;815;03.41.46.532
12916;170583;34.80;816;03.41.46.532
12892;170578;34.80;817;03.41.46.532
12896;170578;34.80;818;03.41.46.532
12912;170572;34.80;819;03.41.46.532
12908;170577;34.80;820;03.41.46.532
12896;170570;34.80;821;03.41.46.543
12896;170576;34.80;822;03.41.46.543
12900;170570;34.80;823;03.41.46.543
12928;170573;34.80;824;03.41.46.543
12892;170567;34.80;825;03.41.46.631
12908;170575;34.80;826;03.41.46.631
12932;170565;34.80;827;03.41.46.631
12912;170572;34.80;828;03.41.46.631
12892;170571;34.80;829;03.41.46.631
12892;170582;34.80;830;03.41.46.642
12912;170569;34.80;831;03.41.46.642
12900;170564;34.80;832;03.41.46.642
12872;170574;34.80;833;03.41.46.652
12908;170572;34.80;834;03.41.46.652
12904;170572;34.80;835;03.41.46.652
12932;170568;34.80;836;03.41.46.652
12892;170574;34.80;837;03.41.46.652
12900;170571;34.80;838;03.41.46.663
12908;170571;34.80;839;03.41.46.663
12880;170585;34.80;840;03.41.46.663
12912;170579;34.80;841;03.41.46.663
12892;170567;34.80;842;03.41.46.663
12916;170577;34.80;843;03.41.46.663
12916;170581;34.80;844;03.41.46.663
12900;170583;34.80;845;03.41.46.663
12932;170579;34.80;846;03.41.46.663
12904;170581;34.80;847;03.41.46.663
12912;170578;34.80;848;03.41.46.663
12916;170585;34.80;849;03.41.46.663
12900;170583;34.80;850;03.41.46.751
12896;170585;34.80;851;03.41.46.762
12912;170586;34.80;852;03.41.46.762
12888;170585;34.80;853;03.41.46.762
12908;170583;34.80;854;03.41.46.762
12912;170592;34.80;855;03.41.46.762
12920;170582;34.80;856;03.41.46.762
12900;170583;34.80;857;03.41.46.762
12892;170582;34.80;858;03.41.46.762
12868;170580;34.80;859;03.41.46.762
12916;170587;34.80;860;03.41.46.762
12920;170584;34.80;861;03.41.46.762
12932;170573;34.80;862;03.41.46.762
12908;170584;34.80;863;03.41.46.762
12908;170578;34.80;864;03.41.46.773
12920;170576;34.80;865;03.41.46.773
12928;170588;34.80;866;03.41.46.773
12904;170577;34.80;867;03.41.46.773
12912;170571;34.80;868;03.41.46.773
12892;170574;34.80;869;03.41.46.773
12892;170577;34.80;870;03.41.46.773
12884;170576;34.80;871;03.41.46.773
12932;170577;34.80;872;03.41.46.773
12928;170579;34.80;873;03.41.46.773
12916;170568;34.80;874;03.41.46.773
12900;170578;34.76;875;03.41.46.883
12860;170577;34.76;876;03.41.46.883
12884;170581;34.76;877;03.41.46.883
12892;170585;34.76;878;03.41.46.883
12892;170597;34.76;879;03.41.46.883
12928;170587;34.76;880;03.41.46.883
12928;170586;34.76;881;03.41.46.883
12928;170590;34.76;882;03.41.46.883
12904;170581;34.76;883;03.41.46.894
12904;170591;34.76;884;03.41.46.894
12900;170593;34.76;885;03.41.46.894
12904;170595;34.76;886;03.41.46.894
12920;170597;34.76;887;03.41.46.894
12908;170600;34.76;888;03.41.46.894
12908;170596;34.76;889;03.41.46.894
12916;170608;34.76;890;03.41.46.894
12924;170606;34.76;891;03.41.46.894
12888;170610;34.76;892;03.41.46.894
12920;170619;34.76;893;03.41.46.894
12928;170616;34.76;894;03.41.46.905
12928;170618;34.76;895;03.41.46.905
12896;170620;34.76;896;03.41.46.905
12892;170624;34.76;897;03.41.46.905
12912;170620;34.76;898;03.41.46.905
12928;170626;34.76;899;03.41.46.905
12912;170621;34.76;900;03.41.47.015
12892;170628;34.76;901;03.41.47.015
12908;170626;34.76;902;03.41.47.015
12904;170631;34.76;903;03.41.47.015
12904;170633;34.76;904;03.41.47.015
12892;170634;34.76;905;03.41.47.015
12928;170624;34.76;906;03.41.47.015
12892;170633;34.76;907;03.41.47.025
12908;170632;34.76;908;03.41.47.025
12884;170623;34.76;909;03.41.47.025
12904;170627;34.76;910;03.41.47.025
12928;170617;34.76;911;03.41.47.025
12900;170619;34.76;912;03.41.47.025
12932;170611;34.76;913;03.41.47.025
12908;170600;34.76;914;03.41.47.025
12908;170595;34.76;915;03.41.47.025
12912;170592;34.76;916;03.41.47.025
12932;170587;34.76;917;03.41.47.025
12916;170588;34.76;918;03.41.47.025
12908;170572;34.76;919;03.41.47.025
12892;170571;34.76;920;03.41.47.036
12900;170566;34.76;921;03.41.47.036
12932;170557;34.76;922;03.41.47.036
12912;170560;34.76;923;03.41.47.036
12908;170558;34.76;924;03.41.47.036
12896;170554;34.80;925;03.41.47.124
12892;170551;34.80;926;03.41.47.124
12884;170541;34.80;927;03.41.47.124
12896;170532;34.80;928;03.41.47.124
12928;170530;34.80;929;03.41.47.135
12916;170530;34.80;930;03.41.47.135
12896;170528;34.80;931;03.41.47.135
12912;170522;34.80;932;03.41.47.135
12908;170530;34.80;933;03.41.47.146
12900;170523;34.80;934;03.41.47.146
12900;170526;34.80;935;03.41.47.146
12920;170519;34.80;936;03.41.47.157
12928;170516;34.80;937;03.41.47.157
12904;170516;34.80;938;03.41.47.157
12888;170512;34.80;939;03.41.47.157
12908;170510;34.80;940;03.41.47.157
12912;170518;34.80;941;03.41.47.157
12928;170508;34.80;942;03.41.47.157
12904;170509;34.80;943;03.41.47.157
12892;170512;34.80;944;03.41.47.157
12920;170516;34.80;945;03.41.47.157
12900;170510;34.80;946;03.41.47.157
12908;170504;34.80;947;03.41.47.157
12892;170507;34.80;948;03.41.47.157
12928;170512;34.80;949;03.41.47.168
12908;170508;34.80;950;03.41.47.256
12928;170505;34.80;951;03.41.47.256
12908;170508;34.80;952;03.41.47.256
12924;170508;34.80;953;03.41.47.256
12904;170505;34.80;954;03.41.47.256
12928;170507;34.80;955;03.41.47.256
12920;170514;34.80;956;03.41.47.256
12952;170506;34.80;957;03.41.47.256
12904;170509;34.80;958;03.41.47.256
12944;170511;34.80;959;03.41.47.256
12912;170517;34.80;960;03.41.47.256
12928;170523;34.80;961;03.41.47.256
12928;170520;34.80;962;03.41.47.267
12900;170518;34.80;963;03.41.47.267
12916;170526;34.80;964;03.41.47.267
12928;170528;34.80;965;03.41.47.267
12904;170535;34.80;966;03.41.47.267
12900;170530;34.80;967;03.41.47.267
12892;170536;34.80;968;03.41.47.267
12884;170550;34.80;969;03.41.47.267
12924;170543;34.80;970;03.41.47.267
12920;170548;34.80;971;03.41.47.267
12900;170548;34.80;972;03.41.47.267
12896;170543;34.80;973;03.41.47.267
12928;170547;34.80;974;03.41.47.267
12908;170563;34.84;975;03.41.47.377
12908;170563;34.84;976;03.41.47.377
12904;170568;34.84;977;03.41.47.377
12920;170573;34.84;978;03.41.47.377
12912;170561;34.84;979;03.41.47.377
12920;170576;34.84;980;03.41.47.377
12916;170575;34.84;981;03.41.47.377
12928;170577;34.84;982;03.41.47.377
12920;170584;34.84;983;03.41.47.377
12908;170586;34.84;984;03.41.47.388
12912;170591;34.84;985;03.41.47.388
12888;170589;34.84;986;03.41.47.388
12904;170595;34.84;987;03.41.47.388
12916;170602;34.84;988;03.41.47.388
12912;170601;34.84;989;03.41.47.388
12932;170604;34.84;990;03.41.47.388
12912;170601;34.84;991;03.41.47.388
12912;170613;34.84;992;03.41.47.388
12908;170606;34.84;993;03.41.47.388
12908;170618;34.84;994;03.41.47.388
12896;170621;34.84;995;03.41.47.388
12900;170617;34.84;996;03.41.47.388
12900;170628;34.84;997;03.41.47.398
12908;170625;34.84;998;03.41.47.398
12908;170633;34.84;999;03.41.47.398
12908;170633;34.84;000;03.41.47.508
12904;170638;34.84;001;03.41.47.508
12916;170644;34.84;002;03.41.47.508
12916;170643;34.84;003;03.41.47.508
12912;170641;34.84;004;03.41.47.508
12924;170650;34.84;005;03.41.47.508
12928;170644;34.84;006;03.41.47.519
12880;170645;34.84;007;03.41.47.519
12920;170647;34.84;008;03.41.47.519
12892;170638;34.84;009;03.41.47.519
12900;170643;34.84;010;03.41.47.519
12928;170632;34.84;011;03.41.47.519
12892;170646;34.84;012;03.41.47.519
12928;170643;34.84;013;03.41.47.519
12896;170639;34.84;014;03.41.47.519
12908;170648;34.84;015;03.41.47.519
12928;170641;34.84;016;03.41.47.519
12908;170641;34.84;017;03.41.47.519
12936;170640;34.84;018;03.41.47.530
12920;170633;34.84;019;03.41.47.530
12908;170643;34.84;020;03.41.47.530
12944;170645;34.84;021;03.41.47.530
12888;170646;34.84;022;03.41.47.530
12900;170649;34.84;023;03.41.47.530
12928;170646;34.84;024;03.41.47.530
12896;170644;34.80;025;03.41.47.651
12928;170647;34.80;026;03.41.47.662
12932;170645;34.80;027;03.41.47.662
12892;170650;34.80;028;03.41.47.662
12924;170649;34.80;029;03.41.47.662
12908;170648;34.80;030;03.41.47.662
12916;170652;34.80;031;03.41.47.662
12876;170659;34.80;032;03.41.47.662
12912;170664;34.80;033;03.41.47.662
12912;170656;34.80;034;03.41.47.662
12904;170665;34.80;035;03.41.47.662
12928;170672;34.80;036;03.41.47.662
12920;170666;34.80;037;03.41.47.662
12900;170679;34.80;038;03.41.47.662
12912;170686;34.80;039;03.41.47.673
12896;170692;34.80;040;03.41.47.673
12892;170690;34.80;041;03.41.47.673
12904;170687;34.80;042;03.41.47.673
12924;170694;34.80;043;03.41.47.673
12888;170699;34.80;044;03.41.47.673
12916;170709;34.80;045;03.41.47.673
12944;170711;34.80;046;03.41.47.673
12884;170708;34.80;047;03.41.47.673
12896;170715;34.80;048;03.41.47.673
12884;170711;34.80;049;03.41.47.673
12928;170717;34.80;050;03.41.47.761
12920;170715;34.80;051;03.41.47.761
12884;170715;34.80;052;03.41.47.761
12912;170717;34.80;053;03.41.47.761
12892;170723;34.80;054;03.41.47.761
12904;170728;34.80;055;03.41.47.761
12928;170722;34.80;056;03.41.47.761
12904;170720;34.80;057;03.41.47.761
12904;170731;34.80;058;03.41.47.771
12892;170725;34.80;059;03.41.47.771
12928;170736;34.80;060;03.41.47.771
12892;170737;34.80;061;03.41.47.771
12916;170733;34.80;062;03.41.47.771
12912;170738;34.80;063;03.41.47.771
12908;170740;34.80;064;03.41.47.771
12908;170750;34.80;065;03.41.47.771
12904;170746;34.80;066;03.41.47.771
12884;170747;34.80;067;03.41.47.793
12892;170741;34.80;068;03.41.47.793
12904;170746;34.80;069;03.41.47.793
12892;170747;34.80;070;03.41.47.793
12928;170762;34.80;071;03.41.47.793
12904;170753;34.80;072;03.41.47.793
12884;170753;34.80;073;03.41.47.793
12916;170750;34.80;074;03.41.47.793
12892;170754;34.80;075;03.41.47.881
12892;170759;34.80;076;03.41.47.881
12916;170752;34.80;077;03.41.47.881
12892;170755;34.80;078;03.41.47.881
12928;170766;34.80;079;03.41.47.881
12892;170761;34.80;080;03.41.47.881
12904;170766;34.80;081;03.41.47.881
12908;170754;34.80;082;03.41.47.892
12900;170747;34.80;083;03.41.47.892
12912;170751;34.80;084;03.41.47.892
12904;170758;34.80;085;03.41.47.892
12896;170761;34.80;086;03.41.47.892
12904;170762;34.80;087;03.41.47.892
12908;170756;34.80;088;03.41.47.892
12892;170749;34.80;089;03.41.47.892
12912;170755;34.80;090;03.41.47.892
12928;170760;34.80;091;03.41.47.892
12912;170756;34.80;092;03.41.47.892
12880;170754;34.80;093;03.41.47.892
12884;170755;34.80;094;03.41.47.892
12900;170756;34.80;095;03.41.47.903
12920;170762;34.80;096;03.41.47.903
12920;170751;34.80;097;03.41.47.903
12892;170752;34.80;098;03.41.47.903
12904;170752;34.80;099;03.41.47.903
12908;170741;34.80;100;03.41.48.001
12952;170736;34.80;101;03.41.48.001
12896;170734;34.80;102;03.41.48.001
12928;170725;34.80;103;03.41.48.012
12924;170716;34.80;104;03.41.48.012
12896;170716;34.80;105;03.41.48.012
12900;170715;34.80;106;03.41.48.012
12904;170715;34.80;107;03.41.48.012
12884;170709;34.80;108;03.41.48.012
12928;170700;34.80;109;03.41.48.012
12928;170692;34.80;110;03.41.48.012
12876;170689;34.80;111;03.41.48.012
12896;170688;34.80;112;03.41.48.023
12900;170680;34.80;113;03.41.48.023
12920;170670;34.80;114;03.41.48.023
12904;170661;34.80;115;03.41.48.023
12928;170672;34.80;116;03.41.48.023
12908;170655;34.80;117;03.41.48.023
12884;170657;34.80;118;03.41.48.023
12908;170658;34.80;119;03.41.48.023
12912;170653;34.80;120;03.41.48.023
12936;170646;34.80;121;03.41.48.023
12916;170629;34.80;122;03.41.48.023
12932;170638;34.80;123;03.41.48.023
12920;170637;34.80;124;03.41.48.023
12912;170626;34.80;125;03.41.48.132
12936;170620;34.80;126;03.41.48.132
12912;170621;34.80;127;03.41.48.132
12884;170619;34.80;128;03.41.48.132
12908;170616;34.80;129;03.41.48.132
12924;170615;34.80;130;03.41.48.132
12920;170607;34.80;131;03.41.48.132
12884;170601;34.80;132;03.41.48.132
12888;170600;34.80;133;03.41.48.143
12884;170601;34.80;134;03.41.48.143
12916;170595;34.80;135;03.41.48.143
12896;170583;34.80;136;03.41.48.143
12916;170587;34.80;137;03.41.48.143
12916;170580;34.80;138;03.41.48.143
12928;170577;34.80;139;03.41.48.143
12908;170578;34.80;140;03.41.48.143
12900;170571;34.80;141;03.41.48.143
12884;170574;34.80;142;03.41.48.143
12912;170579;34.80;143;03.41.48.143
12944;170566;34.80;144;03.41.48.154
12916;170573;34.80;145;03.41.48.154
12900;170577;34.80;146;03.41.48.154
12904;170580;34.80;147;03.41.48.154
12912;170570;34.80;148;03.41.48.154
12912;170560;34.80;149;03.41.48.154
12928;170577;34.80;150;03.41.48.253
12912;170574;34.80;151;03.41.48.253
12904;170579;34.80;152;03.41.48.253
12880;170591;34.80;153;03.41.48.253
12928;170593;34.80;154;03.41.48.253
12920;170597;34.80;155;03.41.48.253
12912;170594;34.80;156;03.41.48.253
12880;170594;34.80;157;03.41.48.263
12904;170599;34.80;158;03.41.48.263
12876;170600;34.80;159;03.41.48.263
12880;170603;34.80;160;03.41.48.263
12908;170601;34.80;161;03.41.48.263
12916;170597;34.80;162;03.41.48.263
12904;170612;34.80;163;03.41.48.263
12912;170611;34.80;164;03.41.48.274
12884;170605;34.80;165;03.41.48.274
12904;170616;34.80;166;03.41.48.274
12928;170600;34.80;167;03.41.48.274
12912;170606;34.80;168;03.41.48.274
12908;170609;34.80;169;03.41.48.274
12916;170612;34.80;170;03.41.48.274
12912;170604;34.80;171;03.41.48.274
12892;170603;34.80;172;03.41.48.274
12916;170607;34.80;173;03.41.48.274
12908;170598;34.80;174;03.41.48.274
12880;170603;34.80;175;03.41.48.373
12912;170609;34.80;176;03.41.48.373
12892;170599;34.80;177;03.41.48.373
12924;170605;34.80;178;03.41.48.384
12880;170605;34.80;179;03.41.48.384
12904;170612;34.80;180;03.41.48.384
12920;170613;34.80;181;03.41.48.384
12916;170599;34.80;182;03.41.48.384
12916;170607;34.80;183;03.41.48.384
12944;170604;34.80;184;03.41.48.384
12936;170602;34.80;185;03.41.48.384
12892;170603;34.80;186;03.41.48.384
12916;170604;34.80;187;03.41.48.384
12916;170599;34.80;188;03.41.48.384
12908;170605;34.80;189;03.41.48.384
12912;170602;34.80;190;03.41.48.384
12908;170600;34.80;191;03.41.48.394
12896;170596;34.80;192;03.41.48.394
12904;170590;34.80;193;03.41.48.394
12884;170600;34.80;194;03.41.48.394
12876;170597;34.80;195;03.41.48.394
12904;170592;34.80;196;03.41.48.394
12892;170595;34.80;197;03.41.48.394
12928;170605;34.80;198;03.41.48.394
12940;170600;34.80;199;03.41.48.394
12912;170598;34.80;200;03.41.48.504
12888;170606;34.80;201;03.41.48.504
12928;170607;34.80;202;03.41.48.504
12884;170610;34.80;203;03.41.48.504
12892;170610;34.80;204;03.41.48.504
12916;170618;34.80;205;03.41.48.504
12908;170612;34.80;206;03.41.48.504
12896;170616;34.80;207;03.41.48.504
12900;170623;34.80;208;03.41.48.515
12896;170618;34.80;209;03.41.48.515
12912;170620;34.80;210;03.41.48.515
12896;170625;34.80;211;03.41.48.515
12888;170625;34.80;212;03.41.48.515
12912;170627;34.80;213;03.41.48.515
12900;170619;34.80;214;03.41.48.515
12912;170621;34.80;215;03.41.48.515
12876;170621;34.80;216;03.41.48.515
12892;170622;34.80;217;03.41.48.515
12880;170630;34.80;218;03.41.48.515
12916;170624;34.80;219;03.41.48.515
12896;170624;34.80;220;03.41.48.526
12904;170622;34.80;221;03.41.48.526
12908;170620;34.80;222;03.41.48.526
12900;170625;34.80;223;03.41.48.526
12920;170624;34.80;224;03.41.48.526
12884;170633;34.80;225;03.41.48.647
12904;170631;34.80;226;03.41.48.647
12940;170628;34.80;227;03.41.48.647
12892;170635;34.80;228;03.41.48.647
12892;170633;34.80;229;03.41.48.647
12904;170638;34.80;230;03.41.48.647
12888;170636;34.80;231;03.41.48.647
12928;170629;34.80;232;03.41.48.647
12928;170639;34.80;233;03.41.48.658
12888;170638;34.80;234;03.41.48.658
12900;170631;34.80;235;03.41.48.658
12908;170643;34.80;236;03.41.48.658
12884;170640;34.80;237;03.41.48.658
12920;170643;34.80;238;03.41.48.658
12928;170641;34.80;239;03.41.48.658
12900;170640;34.80;240;03.41.48.658
12912;170645;34.80;241;03.41.48.658
12900;170646;34.80;242;03.41.48.658
12900;170649;34.80;243;03.41.48.658
12908;170646;34.80;244;03.41.48.658
12924;170653;34.80;245;03.41.48.669
12936;170659;34.80;246;03.41.48.669
12912;170650;34.80;247;03.41.48.669
12904;170660;34.80;248;03.41.48.669
12912;170666;34.80;249;03.41.48.669
12896;170664;34.80;250;03.41.48.778
12928;170659;34.80;251;03.41.48.778
12900;170667;34.80;252;03.41.48.778
12900;170668;34.80;253;03.41.48.778
12888;170663;34.80;254;03.41.48.789
12900;170661;34.80;255;03.41.48.789
12892;170675;34.80;256;03.41.48.789
12884;170657;34.80;257;03.41.48.789
12908;170667;34.80;258;03.41.48.789
12904;170674;34.80;259;03.41.48.789
12900;170669;34.80;260;03.41.48.789
12912;170665;34.80;261;03.41.48.789
12908;170670;34.80;262;03.41.48.789
12904;170683;34.80;263;03.41.48.789
12900;170679;34.80;264;03.41.48.789
12884;170666;34.80;265;03.41.48.789
12928;170670;34.80;266;03.41.48.789
12896;170661;34.80;267;03.41.48.832
12912;170674;34.80;268;03.41.48.832
12912;170667;34.80;269;03.41.48.843
12904;170669;34.80;270;03.41.48.843
12904;170664;34.80;271;03.41.48.843
12904;170667;34.80;272;03.41.48.843
12916;170664;34.80;273;03.41.48.843
12928;170663;34.80;274;03.41.48.843
12912;170657;34.80;275;03.41.48.887
12924;170646;34.80;276;03.41.48.887
12928;170653;34.80;277;03.41.48.887
12912;170638;34.80;278;03.41.48.887
12900;170640;34.80;279;03.41.48.887
12908;170636;34.80;280;03.41.48.887
12908;170636;34.80;281;03.41.48.887
12908;170629;34.80;282;03.41.48.887
12908;170625;34.80;283;03.41.48.887
12916;170616;34.80;284;03.41.48.898
12892;170616;34.80;285;03.41.48.898
12892;170607;34.80;286;03.41.48.898
12892;170598;34.80;287;03.41.48.898
12912;170592;34.80;288;03.41.48.898
12924;170590;34.80;289;03.41.48.898
12920;170588;34.80;290;03.41.48.898
12888;170577;34.80;291;03.41.48.898
12888;170573;34.80;292;03.41.48.920
12900;170574;34.80;293;03.41.48.920
12892;170556;34.80;294;03.41.48.920
12904;170555;34.80;295;03.41.48.920
12892;170548;34.80;296;03.41.48.920
12892;170540;34.80;297;03.41.48.920
12928;170541;34.80;298;03.41.48.920
12944;170540;34.80;299;03.41.48.920
12876;170539;34.80;300;03.41.49.008
12928;170536;34.80;301;03.41.49.008
12896;170535;34.80;302;03.41.49.008
12876;170535;34.80;303;03.41.49.008
12920;170529;34.80;304;03.41.49.008
12928;170524;34.80;305;03.41.49.008
12892;170528;34.80;306;03.41.49.008
12928;170529;34.80;307;03.41.49.008
12896;170531;34.80;308;03.41.49.008
12908;170534;34.80;309;03.41.49.019
12912;170539;34.80;310;03.41.49.019
12928;170535;34.80;311;03.41.49.019
12876;170542;34.80;312;03.41.49.019
12892;170540;34.80;313;03.41.49.019
12896;170545;34.80;314;03.41.49.019
12900;170539;34.80;315;03.41.49.019
12904;170544;34.80;316;03.41.49.019
12908;170547;34.80;317;03.41.49.019
12892;170550;34.80;318;03.41.49.019
12884;170546;34.80;319;03.41.49.019
12900;170553;34.80;320;03.41.49.019
12892;170553;34.80;321;03.41.49.019
12904;170556;34.80;322;03.41.49.030
12896;170551;34.80;323;03.41.49.030
12912;170556;34.80;324;03.41.49.030
12900;170555;34.80;325;03.41.49.150
12944;170557;34.80;326;03.41.49.150
12888;170566;34.80;327;03.41.49.150
12912;170560;34.80;328;03.41.49.150
12908;170564;34.80;329;03.41.49.150
12904;170573;34.80;330;03.41.49.161
12892;170567;34.80;331;03.41.49.161
12876;170570;34.80;332;03.41.49.161
12928;170570;34.80;333;03.41.49.161
12888;170572;34.80;334;03.41.49.161
12896;170571;34.80;335;03.41.49.161
12896;170559;34.80;336;03.41.49.161
12904;170562;34.80;337;03.41.49.161
12912;170564;34.80;338;03.41.49.161
12888;170567;34.80;339;03.41.49.161
12940;170554;34.80;340;03.41.49.161
12892;170560;34.80;341;03.41.49.161
12916;170570;34.80;342;03.41.49.183
12880;170563;34.80;343;03.41.49.183
12908;170553;34.80;344;03.41.49.183
12912;170555;34.80;345;03.41.49.183
12904;170550;34.80;346;03.41.49.183
12920;170558;34.80;347;03.41.49.194
12888;170553;34.80;348;03.41.49.194
12944;170548;34.80;349;03.41.49.194
12900;170546;34.80;350;03.41.49.271
12904;170548;34.80;351;03.41.49.271
12916;170544;34.80;352;03.41.49.281
12932;170547;34.80;353;03.41.49.281
12896;170546;34.80;354;03.41.49.281
12892;170542;34.80;355;03.41.49.281
12896;170554;34.80;356;03.41.49.281
12916;170538;34.80;357;03.41.49.281
12908;170543;34.80;358;03.41.49.281
12888;170543;34.80;359;03.41.49.281
12896;170546;34.80;360;03.41.49.281
12884;170546;34.80;361;03.41.49.281
12936;170545;34.80;362;03.41.49.281
12896;170557;34.80;363;03.41.49.281
12872;170554;34.80;364;03.41.49.292
12908;170561;34.80;365;03.41.49.292
12900;170564;34.80;366;03.41.49.292
12860;170567;34.80;367;03.41.49.292
12908;170574;34.80;368;03.41.49.292
12888;170579;34.80;369;03.41.49.292
12928;170582;34.80;370;03.41.49.292
12928;170585;34.80;371;03.41.49.292
12912;170585;34.80;372;03.41.49.292
12936;170586;34.80;373;03.41.49.292
12920;170587;34.80;374;03.41.49.292
12908;170603;34.80;375;03.41.49.380
12880;170609;34.80;376;03.41.49.380
12928;170611;34.80;377;03.41.49.380
12928;170614;34.80;378;03.41.49.380
12892;170607;34.80;379;03.41.49.380
12928;170618;34.80;380;03.41.49.380
12904;170615;34.80;381;03.41.49.380
12916;170624;34.80;382;03.41.49.380
12876;170633;34.80;383;03.41.49.391
12920;170638;34.80;384;03.41.49.391
12876;170630;34.80;385;03.41.49.391
12884;170643;34.80;386;03.41.49.391
12864;170651;34.80;387;03.41.49.391
12904;170643;34.80;388;03.41.49.391
12936;170655;34.80;389;03.41.49.391
12892;170654;34.80;390;03.41.49.391
12908;170653;34.80;391;03.41.49.391
12904;170676;34.80;392;03.41.49.413
12904;170676;34.80;393;03.41.49.413
12908;170671;34.80;394;03.41.49.413
12860;170680;34.80;395;03.41.49.413
12900;170684;34.80;396;03.41.49.413
12912;170687;34.80;397;03.41.49.413
12884;170691;34.80;398;03.41.49.413
12908;170704;34.80;399;03.41.49.413
12884;170698;34.80;400;03.41.49.500
12924;170713;34.80;401;03.41.49.500
12912;170708;34.80;402;03.41.49.500
12920;170718;34.80;403;03.41.49.500
12912;170716;34.80;404;03.41.49.500
12912;170721;34.80;405;03.41.49.500
12876;170727;34.80;406;03.41.49.511
12892;170733;34.80;407;03.41.49.511
12900;170728;34.80;408;03.41.49.511
12928;170737;34.80;409;03.41.49.511
12908;170744;34.80;410;03.41.49.511
12880;170749;34.80;411;03.41.49.511
12904;170749;34.80;412;03.41.49.511
12904;170742;34.80;413;03.41.49.511
12892;170748;34.80;414;03.41.49.511
12900;170750;34.80;415;03.41.49.511
12892;170750;34.80;416;03.41.49.511
12912;170754;34.80;417;03.41.49.511
12900;170746;34.80;418;03.41.49.511
12900;170756;34.80;419;03.41.49.522
12892;170756;34.80;420;03.41.49.522
12916;170765;34.80;421;03.41.49.522
12936;170758;34.80;422;03.41.49.522
12904;170761;34.80;423;03.41.49.522
12892;170763;34.80;424;03.41.49.522
12940;170761;34.80;425;03.41.49.642
12904;170769;34.80;426;03.41.49.642
12900;170772;34.80;427;03.41.49.642
12908;170777;34.80;428;03.41.49.642
12884;170765;34.80;429;03.41.49.642
12888;170772;34.80;430;03.41.49.642
12924;170780;34.80;431;03.41.49.642
12892;170786;34.80;432;03.41.49.642
12888;170787;34.80;433;03.41.49.642
12916;170785;34.80;434;03.41.49.642
12908;170796;34.80;435;03.41.49.642
12884;170794;34.80;436;03.41.49.642
12896;170791;34.80;437;03.41.49.652
12904;170800;34.80;438;03.41.49.652
12892;170802;34.80;439;03.41.49.652
12896;170793;34.80;440;03.41.49.652
12928;170803;34.80;441;03.41.49.652
12908;170812;34.80;442;03.41.49.652
12896;170805;34.80;443;03.41.49.652
12900;170812;34.80;444;03.41.49.652
12888;170817;34.80;445;03.41.49.652
12904;170822;34.80;446;03.41.49.652
12920;170825;34.80;447;03.41.49.652
12904;170826;34.80;448;03.41.49.652
12924;170837;34.80;449;03.41.49.652
12912;170835;34.80;450;03.41.49.773
12876;170836;34.80;451;03.41.49.773
12896;170834;34.80;452;03.41.49.773
12884;170833;34.80;453;03.41.49.773
12904;170839;34.80;454;03.41.49.773
12920;170845;34.80;455;03.41.49.773
12908;170840;34.80;456;03.41.49.773
12908;170852;34.80;457;03.41.49.773
12912;170859;34.80;458;03.41.49.773
12912;170849;34.80;459;03.41.49.784
12892;170857;34.80;460;03.41.49.784
12928;170856;34.80;461;03.41.49.784
12928;170862;34.80;462;03.41.49.784
12892;170858;34.80;463;03.41.49.784
12904;170850;34.80;464;03.41.49.784
12900;170857;34.80;465;03.41.49.784
12900;170849;34.80;466;03.41.49.784
12928;170852;34.80;467;03.41.49.784
12892;170847;34.80;468;03.41.49.784
12920;170847;34.80;469;03.41.49.784
12892;170844;34.80;470;03.41.49.784
12892;170832;34.80;471;03.41.49.795
12912;170831;34.80;472;03.41.49.795
12884;170828;34.80;473;03.41.49.795
12952;170818;34.80;474;03.41.49.795
12932;170827;34.80;475;03.41.49.882
12916;170814;34.80;476;03.41.49.882
12904;170807;34.80;477;03.41.49.882
12916;170802;34.80;478;03.41.49.882
12924;170801;34.80;479;03.41.49.882
12896;170800;34.80;480;03.41.49.882
12880;170794;34.80;481;03.41.49.893
12916;170790;34.80;482;03.41.49.893
12924;170777;34.80;483;03.41.49.904
12924;170779;34.80;484;03.41.49.904
12892;170766;34.80;485;03.41.49.904
12900;170767;34.80;486;03.41.49.904
12904;170759;34.80;487;03.41.49.904
12908;170755;34.80;488;03.41.49.915
12932;170754;34.80;489;03.41.49.915
12912;170756;34.80;490;03.41.49.915
12928;170753;34.80;491;03.41.49.915
12892;170741;34.80;492;03.41.49.915
12928;170740;34.80;493;03.41.49.915
12908;170746;34.80;494;03.41.49.915
12892;170737;34.80;495;03.41.49.915
12892;170752;34.80;496;03.41.49.915
12892;170745;34.80;497;03.41.49.915
12908;170743;34.80;498;03.41.49.915
12928;170739;34.80;499;03.41.49.915
12908;170736;34.80;500;03.41.50.002
12920;170742;34.80;501;03.41.50.013
12896;170742;34.80;502;03.41.50.013
12892;170737;34.80;503;03.41.50.013
12900;170730;34.80;504;03.41.50.013
12908;170737;34.80;505;03.41.50.013
12928;170741;34.80;506;03.41.50.013
12908;170741;34.80;507;03.41.50.013
12936;170730;34.80;508;03.41.50.013
12860;170735;34.80;509;03.41.50.013
12944;170742;34.80;510;03.41.50.024
12912;170741;34.80;511;03.41.50.024
12896;170738;34.80;512;03.41.50.024
12920;170748;34.80;513;03.41.50.024
12900;170741;34.80;514;03.41.50.024
12900;170747;34.80;515;03.41.50.024
12892;170746;34.80;516;03.41.50.024
12904;170749;34.80;517;03.41.50.046
12900;170740;34.80;518;03.41.50.046
12896;170743;34.80;519;03.41.50.046
12892;170756;34.80;520;03.41.50.046
12904;170751;34.80;521;03.41.50.046
12928;170749;34.80;522;03.41.50.046
12916;170766;34.80;523;03.41.50.046
12892;170754;34.80;524;03.41.50.046
12908;170749;34.80;525;03.41.50.134
12900;170749;34.80;526;03.41.50.134
12880;170753;34.80;527;03.41.50.134
12880;170749;34.80;528;03.41.50.134
12928;170750;34.80;529;03.41.50.134
12904;170755;34.80;530;03.41.50.134
12860;170761;34.80;531;03.41.50.134
12896;170748;34.80;532;03.41.50.134
12888;170748;34.80;533;03.41.50.134
12896;170757;34.80;534;03.41.50.134
12916;170760;34.80;535;03.41.50.145
12904;170749;34.80;536;03.41.50.145
12916;170754;34.80;537;03.41.50.145
12920;170752;34.80;538;03.41.50.145
12900;170746;34.80;539;03.41.50.145
12920;170749;34.80;540;03.41.50.145
12920;170751;34.80;541;03.41.50.145
12908;170748;34.80;542;03.41.50.156
12876;170749;34.80;543;03.41.50.156
12908;170748;34.80;544;03.41.50.156
12904;170752;34.80;545;03.41.50.156
12908;170751;34.80;546;03.41.50.156
12908;170751;34.80;547;03.41.50.156
12872;170749;34.80;548;03.41.50.156
12952;170755;34.80;549;03.41.50.156
12896;170756;34.80;550;03.41.50.265
12904;170752;34.80;551;03.41.50.265
12892;170757;34.80;552;03.41.50.265
12892;170759;34.80;553;03.41.50.265
12904;170758;34.80;554;03.41.50.265
12916;170749;34.80;555;03.41.50.265
12912;170754;34.80;556;03.41.50.276
12928;170748;34.80;557;03.41.50.276
12896;170756;34.80;558;03.41.50.276
12872;170755;34.80;559;03.41.50.276
12912;170755;34.80;560;03.41.50.276
12904;170755;34.80;561;03.41.50.276
12908;170768;34.80;562;03.41.50.276
12916;170761;34.80;563;03.41.50.276
12896;170756;34.80;564;03.41.50.276
12900;170758;34.80;565;03.41.50.276
12896;170756;34.80;566;03.41.50.276
12912;170766;34.80;567;03.41.50.276
12868;170777;34.80;568;03.41.50.276
12892;170767;34.80;569;03.41.50.287
12928;170768;34.80;570;03.41.50.287
12928;170766;34.80;571;03.41.50.287
12928;170762;34.80;572;03.41.50.287
12920;170774;34.80;573;03.41.50.287
12908;170771;34.80;574;03.41.50.287
12892;170774;34.80;575;03.41.50.375
12896;170768;34.80;576;03.41.50.375
12892;170778;34.80;577;03.41.50.375
12876;170775;34.80;578;03.41.50.386
12912;170780;34.80;579;03.41.50.386
12896;170784;34.80;580;03.41.50.386
12892;170783;34.80;581;03.41.50.386
12908;170786;34.80;582;03.41.50.386
12900;170786;34.80;583;03.41.50.397
12908;170792;34.80;584;03.41.50.397
12908;170789;34.80;585;03.41.50.397
12904;170788;34.80;586;03.41.50.408
12916;170797;34.80;587;03.41.50.408
12888;170793;34.80;588;03.41.50.408
12912;170788;34.80;589;03.41.50.408
12880;170782;34.80;590;03.41.50.408
12912;170792;34.80;591;03.41.50.408
12924;170798;34.80;592;03.41.50.408
12888;170802;34.80;593;03.41.50.408
12924;170800;34.80;594;03.41.50.408
12896;170800;34.80;595;03.41.50.408
12904;170804;34.80;596;03.41.50.408
12892;170798;34.80;597;03.41.50.408
12888;170796;34.80;598;03.41.50.408
12892;170803;34.80;599;03.41.50.419
12876;170803;34.80;600;03.41.50.518
12920;170817;34.80;601;03.41.50.518
12900;170804;34.80;602;03.41.50.518
12928;170806;34.80;603;03.41.50.518
12900;170811;34.80;604;03.41.50.518
12892;170815;34.80;605;03.41.50.518
12888;170816;34.80;606;03.41.50.518
12904;170811;34.80;607;03.41.50.518
12928;170820;34.80;608;03.41.50.540
12912;170824;34.80;609;03.41.50.540
12900;170827;34.80;610;03.41.50.540
12900;170816;34.80;611;03.41.50.540
12916;170831;34.80;612;03.41.50.540
12908;170835;34.80;613;03.41.50.540
12880;170836;34.80;614;03.41.50.540
12908;170840;34.80;615;03.41.50.540
12908;170838;34.80;616;03.41.50.540
12880;170839;34.80;617;03.41.50.540
12908;170837;34.80;618;03.41.50.540
12912;170846;34.80;619;03.41.50.540
12904;170845;34.80;620;03.41.50.551
12904;170847;34.80;621;03.41.50.551
12928;170850;34.80;622;03.41.50.551
12912;170854;34.80;623;03.41.50.551
12908;170849;34.80;624;03.41.50.551
12880;170854;34.80;625;03.41.50.627
12888;170856;34.80;626;03.41.50.627
12892;170858;34.80;627;03.41.50.627
12896;170852;34.80;628;03.41.50.627
12892;170853;34.80;629;03.41.50.627
12904;170861;34.80;630;03.41.50.627
12892;170864;34.80;631;03.41.50.627
12900;170869;34.80;632;03.41.50.627
12892;170865;34.80;633;03.41.50.627
12912;170873;34.80;634;03.41.50.638
12900;170870;34.80;635;03.41.50.638
12916;170865;34.80;636;03.41.50.638
12892;170873;34.80;637;03.41.50.638
12900;170873;34.80;638;03.41.50.638
12920;170869;34.80;639;03.41.50.638
12912;170875;34.80;640;03.41.50.638
12908;170872;34.80;641;03.41.50.638
12928;170883;34.80;642;03.41.50.638
12916;170882;34.80;643;03.41.50.638
12912;170899;34.80;644;03.41.50.638
12892;170891;34.80;645;03.41.50.649
12928;170889;34.80;646;03.41.50.649
12892;170883;34.80;647;03.41.50.649
12916;170885;34.80;648;03.41.50.649
12912;170889;34.80;649;03.41.50.649
12924;170898;34.80;650;03.41.50.759
12908;170892;34.80;651;03.41.50.759
12912;170893;34.80;652;03.41.50.759
12916;170899;34.80;653;03.41.50.759
12876;170899;34.80;654;03.41.50.759
12904;170900;34.80;655;03.41.50.770
12892;170902;34.80;656;03.41.50.770
12904;170893;34.80;657;03.41.50.770
12912;170900;34.80;658;03.41.50.770
12928;170894;34.80;659;03.41.50.770
12896;170893;34.80;660;03.41.50.770
12872;170893;34.80;661;03.41.50.770
12912;170887;34.80;662;03.41.50.770
12880;170881;34.80;663;03.41.50.781
12892;170879;34.80;664;03.41.50.781
12892;170868;34.80;665;03.41.50.781
12908;170874;34.80;666;03.41.50.781
12900;170866;34.80;667;03.41.50.781
12904;170851;34.80;668;03.41.50.781
12892;170856;34.80;669;03.41.50.781
12920;170847;34.80;670;03.41.50.781
12880;170846;34.80;671;03.41.50.781
12924;170845;34.80;672;03.41.50.781
12900;170834;34.80;673;03.41.50.781
12916;170837;34.80;674;03.41.50.781
12892;170822;34.80;675;03.41.50.891
12884;170827;34.80;676;03.41.50.902
12912;170829;34.80;677;03.41.50.902
12892;170831;34.80;678;03.41.50.902
12896;170826;34.80;679;03.41.50.902
12896;170820;34.80;680;03.41.50.902
12884;170817;34.80;681;03.41.50.902
12936;170814;34.80;682;03.41.50.902
12892;170812;34.80;683;03.41.50.902
12888;170817;34.80;684;03.41.50.902
12928;170806;34.80;685;03.41.50.902
12888;170809;34.80;686;03.41.50.902
12892;170803;34.80;687;03.41.50.902
12912;170801;34.80;688;03.41.50.902
12884;170798;34.80;689;03.41.50.913
12900;170798;34.80;690;03.41.50.913
12900;170796;34.80;691;03.41.50.913
12908;170790;34.80;692;03.41.50.913
12888;170792;34.80;693;03.41.50.913
12884;170797;34.80;694;03.41.50.913
12888;170803;34.80;695;03.41.50.913
12912;170791;34.80;696;03.41.50.913
12892;170793;34.80;697;03.41.50.913
12904;170791;34.80;698;03.41.50.913
12908;170793;34.80;699;03.41.50.913
12884;170796;34.80;700;03.41.51.011
12896;170795;34.80;701;03.41.51.011
12904;170795;34.80;702;03.41.51.011
12892;170785;34.80;703;03.41.51.011
12912;170798;34.80;704;03.41.51.011
12916;170789;34.80;705;03.41.51.011
12884;170790;34.80;706;03.41.51.011
12892;170798;34.80;707;03.41.51.011
12904;170796;34.80;708;03.41.51.022
12928;170797;34.80;709;03.41.51.022
12900;170798;34.80;710;03.41.51.022
12900;170795;34.80;711;03.41.51.022
12904;170796;34.80;712;03.41.51.022
12900;170801;34.80;713;03.41.51.022
12876;170807;34.80;714;03.41.51.022
12896;170804;34.80;715;03.41.51.022
12900;170801;34.80;716;03.41.51.022
12908;170804;34.80;717;03.41.51.033
12912;170792;34.80;718;03.41.51.033
12896;170804;34.80;719;03.41.51.033
12900;170803;34.80;720;03.41.51.033
12884;170803;34.80;721;03.41.51.033
12908;170803;34.80;722;03.41.51.033
12892;170808;34.80;723;03.41.51.033
12916;170805;34.80;724;03.41.51.033
12928;170810;34.80;725;03.41.51.132
12904;170813;34.80;726;03.41.51.132
12880;170804;34.80;727;03.41.51.132
12892;170813;34.80;728;03.41.51.132
12908;170809;34.80;729;03.41.51.132
12908;170811;34.80;730;03.41.51.132
12904;170813;34.80;731;03.41.51.143
12944;170808;34.80;732;03.41.51.143
12928;170813;34.80;733;03.41.51.143
12892;170811;34.80;734;03.41.51.143
12912;170813;34.80;735;03.41.51.143
12904;170807;34.80;736;03.41.51.143
12904;170813;34.80;737;03.41.51.143
12888;170816;34.80;738;03.41.51.143
12904;170822;34.80;739;03.41.51.143
12916;170817;34.80;740;03.41.51.143
12916;170826;34.80;741;03.41.51.143
12896;170818;34.80;742;03.41.51.143
12860;170814;34.80;743;03.41.51.143
12916;170822;34.80;744;03.41.51.154
12904;170820;34.80;745;03.41.51.154
12904;170826;34.80;746;03.41.51.154
12888;170827;34.80;747;03.41.51.154
12928;170824;34.80;748;03.41.51.154
12928;170824;34.80;749;03.41.51.154
d;e;f;03.41.52.427
12892;001014;34.80;750;03.41.52.547
12936;057577;34.80;751;03.41.52.547
12888;073916;34.80;752;03.41.52.547
12896;090297;34.80;753;03.41.52.547
12884;106714;34.80;754;03.41.52.558
12928;123112;34.80;755;03.41.52.558
12892;139466;34.80;756;03.41.52.558
12896;155850;34.80;757;03.41.52.558
12908;171576;34.80;758;03.41.52.590
12928;171301;34.80;759;03.41.52.590
12912;171298;34.80;760;03.41.52.590
12900;171302;34.80;761;03.41.52.601
12904;171289;34.80;762;03.41.52.601
12880;171295;34.80;763;03.41.52.601
12892;171289;34.80;764;03.41.52.601
12908;171279;34.80;765;03.41.52.601
12928;171281;34.80;766;03.41.52.601
12904;171286;34.80;767;03.41.52.601
12888;171281;34.80;768;03.41.52.601
12932;171286;34.80;769;03.41.52.601
12924;171282;34.80;770;03.41.52.601
12908;171273;34.80;771;03.41.52.601
12908;171281;34.80;772;03.41.52.601
12916;171275;34.80;773;03.41.52.601
12860;171278;34.80;774;03.41.52.612
12880;171277;34.80;775;03.41.52.689
12904;171276;34.80;776;03.41.52.689
12892;171274;34.80;777;03.41.52.689
12928;171274;34.80;778;03.41.52.689
12908;171281;34.80;779;03.41.52.689
12892;171276;34.80;780;03.41.52.689
12892;171276;34.80;781;03.41.52.689
12900;171279;34.80;782;03.41.52.689
12888;171276;34.80;783;03.41.52.764
12912;171280;34.80;784;03.41.52.764
12892;171269;34.80;785;03.41.52.764
12928;171269;34.80;786;03.41.52.764
12916;171266;34.80;787;03.41.52.764
12884;171251;34.80;788;03.41.52.764
12900;171257;34.80;789;03.41.52.764
12908;171253;34.80;790;03.41.52.764
12880;171245;34.80;791;03.41.52.775
12904;171235;34.80;792;03.41.52.775
12912;171232;34.80;793;03.41.52.775
12896;171233;34.80;794;03.41.52.775
12928;171222;34.80;795;03.41.52.775
12904;171218;34.80;796;03.41.52.775
12880;171208;34.80;797;03.41.52.775
12896;171212;34.80;798;03.41.52.775
12920;171209;34.80;799;03.41.52.775
12904;171201;34.80;800;03.41.52.797
12924;171201;34.80;801;03.41.52.797
12900;171187;34.80;802;03.41.52.797
12928;171188;34.80;803;03.41.52.797
12928;171182;34.80;804;03.41.52.797
12896;171177;34.80;805;03.41.52.808
12920;171169;34.80;806;03.41.52.808
12924;171166;34.80;807;03.41.52.808
12928;171167;34.80;808;03.41.52.808
12912;171173;34.80;809;03.41.52.808
12928;171173;34.80;810;03.41.52.808
12908;171157;34.80;811;03.41.52.808
12896;171156;34.80;812;03.41.52.808
12908;171160;34.80;813;03.41.52.808
12912;171166;34.80;814;03.41.52.808
12900;171156;34.80;815;03.41.52.808
12904;171155;34.80;816;03.41.52.808
12900;171162;34.80;817;03.41.52.808
12904;171149;34.80;818;03.41.52.819
12892;171151;34.80;819;03.41.52.819
12900;171139;34.80;820;03.41.52.819
12916;171152;34.80;821;03.41.52.819
12912;171146;34.80;822;03.41.52.819
12900;171145;34.80;823;03.41.52.819
12908;171143;34.80;824;03.41.52.819
12900;171147;34.80;825;03.41.52.917
12920;171149;34.80;826;03.41.52.917
12936;171141;34.80;827;03.41.52.917
12920;171134;34.80;828;03.41.52.928
12912;171139;34.80;829;03.41.52.928
12928;171142;34.80;830;03.41.52.928
12908;171145;34.80;831;03.41.52.928
12904;171134;34.80;832;03.41.52.928
12892;171140;34.80;833;03.41.52.939
12880;171145;34.80;834;03.41.52.939
12892;171139;34.80;835;03.41.52.939
12904;171142;34.80;836;03.41.52.939
12904;171151;34.80;837;03.41.52.951
12944;171148;34.80;838;03.41.52.951
12908;171144;34.80;839;03.41.52.951
12912;171134;34.80;840;03.41.52.951
12892;171137;34.80;841;03.41.52.951
12892;171147;34.80;842;03.41.52.951
12892;171139;34.80;843;03.41.52.951
12876;171149;34.80;844;03.41.52.951
12928;171138;34.80;845;03.41.52.962
12896;171140;34.80;846;03.41.52.962
12904;171137;34.80;847;03.41.52.962
12912;171135;34.80;848;03.41.52.962
12928;171139;34.80;849;03.41.52.962
12920;171136;34.80;850;03.41.53.050
12888;171139;34.80;851;03.41.53.050
12896;171135;34.80;852;03.41.53.050
12912;171137;34.80;853;03.41.53.050
12896;171134;34.80;854;03.41.53.050
12904;171124;34.80;855;03.41.53.050
12896;171130;34.80;856;03.41.53.050
12912;171135;34.80;857;03.41.53.050
12892;171135;34.80;858;03.41.53.050
12912;171125;34.80;859;03.41.53.050
12892;171124;34.80;860;03.41.53.050
12876;171129;34.80;861;03.41.53.050
12912;171124;34.80;862;03.41.53.050
12892;171120;34.80;863;03.41.53.061
12888;171122;34.80;864;03.41.53.061
12892;171117;34.80;865;03.41.53.061
12912;171117;34.80;866;03.41.53.061
12896;171122;34.80;867;03.41.53.083
12888;171130;34.80;868;03.41.53.083
12896;171126;34.80;869;03.41.53.083
12912;171122;34.80;870;03.41.53.083
12928;171118;34.80;871;03.41.53.083
12904;171116;34.80;872;03.41.53.083
12908;171115;34.80;873;03.41.53.083
12928;171120;34.80;874;03.41.53.083
12908;171124;34.80;875;03.41.53.171
12876;171123;34.80;876;03.41.53.171
12900;171126;34.80;877;03.41.53.171
12888;171121;34.80;878;03.41.53.171
12884;171118;34.80;879;03.41.53.171
12876;171114;34.80;880;03.41.53.171
12912;171115;34.80;881;03.41.53.171
12876;171126;34.80;882;03.41.53.171
12892;171126;34.80;883;03.41.53.171
12912;171119;34.80;884;03.41.53.171
12884;171113;34.80;885;03.41.53.182
12912;171116;34.80;886;03.41.53.182
12912;171125;34.80;887;03.41.53.182
12888;171124;34.80;888;03.41.53.182
12912;171125;34.80;889;03.41.53.182
12928;171135;34.80;890;03.41.53.182
12928;171134;34.80;891;03.41.53.182
12896;171127;34.80;892;03.41.53.182
12904;171130;34.80;893;03.41.53.182
12884;171125;34.80;894;03.41.53.182
12872;171131;34.80;895;03.41.53.182
12884;171141;34.80;896;03.41.53.182
12876;171123;34.80;897;03.41.53.182
12892;171134;34.80;898;03.41.53.193
12928;171138;34.80;899;03.41.53.193
12912;171136;34.80;900;03.41.53.302
12928;171147;34.80;901;03.41.53.302
12904;171145;34.80;902;03.41.53.302
12896;171134;34.80;903;03.41.53.302
12928;171139;34.80;904;03.41.53.302
12876;171140;34.80;905;03.41.53.313
12880;171147;34.80;906;03.41.53.313
12896;171141;34.80;907;03.41.53.313
12912;171129;34.80;908;03.41.53.313
12888;171154;34.80;909;03.41.53.313
12896;171143;34.80;910;03.41.53.313
12936;171153;34.80;911;03.41.53.313
12884;171151;34.80;912;03.41.53.313
12892;171145;34.80;913;03.41.53.313
12900;171150;34.80;914;03.41.53.313
12912;171143;34.80;915;03.41.53.324
12908;171146;34.80;916;03.41.53.324
12916;171150;34.80;917;03.41.53.324
12916;171154;34.80;918;03.41.53.324
12892;171159;34.80;919;03.41.53.324
12908;171155;34.80;920;03.41.53.324
12888;171155;34.80;921;03.41.53.324
12892;171161;34.80;922;03.41.53.324
12900;171162;34.80;923;03.41.53.324
12944;171162;34.80;924;03.41.53.324
12896;171153;34.80;925;03.41.53.434
12908;171163;34.80;926;03.41.53.445
12928;171168;34.80;927;03.41.53.445
12892;171165;34.80;928;03.41.53.445
12936;171165;34.80;929;03.41.53.445
12888;171167;34.80;930;03.41.53.445
