gsr; bvp; skt; skt2; Cont; time
12908;000789;33.12;075;04.07.10.145
12912;057579;33.12;076;04.07.10.145
12884;073964;33.12;077;04.07.10.145
12896;090378;33.12;078;04.07.10.145
12928;106729;33.12;079;04.07.10.145
12896;123089;33.12;080;04.07.10.145
12900;139479;33.12;081;04.07.10.145
12876;155886;33.12;082;04.07.10.145
12892;170849;33.12;083;04.07.10.167
12912;170564;33.12;084;04.07.10.167
12904;170562;33.12;085;04.07.10.167
12876;170559;33.12;086;04.07.10.167
12896;170554;33.12;087;04.07.10.167
12884;170551;33.12;088;04.07.10.167
12876;170543;33.12;089;04.07.10.167
12888;170543;33.12;090;04.07.10.167
12880;170540;33.12;091;04.07.10.167
12892;170540;33.12;092;04.07.10.178
12896;170542;33.12;093;04.07.10.178
12904;170527;33.12;094;04.07.10.178
12912;170527;33.12;095;04.07.10.178
12876;170525;33.12;096;04.07.10.178
12900;170524;33.12;097;04.07.10.178
12928;170515;33.12;098;04.07.10.178
12904;170517;33.12;099;04.07.10.178
12900;170516;33.12;100;04.07.10.277
12892;170517;33.12;101;04.07.10.277
12896;170518;33.12;102;04.07.10.277
12896;170513;33.12;103;04.07.10.277
12900;170516;33.12;104;04.07.10.277
12884;170508;33.12;105;04.07.10.288
12888;170506;33.12;106;04.07.10.288
12904;170513;33.12;107;04.07.10.288
12896;170510;33.12;108;04.07.10.288
12884;170511;33.12;109;04.07.10.288
12900;170504;33.12;110;04.07.10.288
12892;170498;33.12;111;04.07.10.288
12888;170493;33.12;112;04.07.10.299
12900;170496;33.12;113;04.07.10.299
12892;170499;33.12;114;04.07.10.299
12892;170490;33.12;115;04.07.10.299
12880;170498;33.12;116;04.07.10.299
12884;170501;33.12;117;04.07.10.299
12880;170499;33.12;118;04.07.10.299
12892;170492;33.12;119;04.07.10.299
12884;170492;33.12;120;04.07.10.299
12912;170498;33.12;121;04.07.10.299
12888;170502;33.12;122;04.07.10.299
12892;170505;33.12;123;04.07.10.299
12876;170497;33.12;124;04.07.10.299
12884;170495;33.12;125;04.07.10.397
12912;170493;33.12;126;04.07.10.408
12892;170494;33.12;127;04.07.10.408
12880;170490;33.12;128;04.07.10.408
12904;170491;33.12;129;04.07.10.408
12896;170494;33.12;130;04.07.10.408
12876;170485;33.12;131;04.07.10.408
12880;170487;33.12;132;04.07.10.408
12900;170498;33.12;133;04.07.10.408
12884;170488;33.12;134;04.07.10.408
12880;170494;33.12;135;04.07.10.408
12884;170491;33.12;136;04.07.10.408
12916;170495;33.12;137;04.07.10.408
12896;170489;33.12;138;04.07.10.419
12888;170485;33.12;139;04.07.10.419
12888;170485;33.12;140;04.07.10.419
12896;170492;33.12;141;04.07.10.419
12920;170481;33.12;142;04.07.10.419
12876;170488;33.12;143;04.07.10.419
12876;170493;33.12;144;04.07.10.419
12860;170484;33.12;145;04.07.10.419
12896;170487;33.12;146;04.07.10.419
12900;170487;33.12;147;04.07.10.419
12876;170488;33.12;148;04.07.10.419
12912;170491;33.12;149;04.07.10.419
12876;170491;33.12;150;04.07.10.539
12892;170491;33.12;151;04.07.10.539
12868;170487;33.12;152;04.07.10.539
12892;170487;33.12;153;04.07.10.539
12916;170487;33.12;154;04.07.10.539
12892;170489;33.12;155;04.07.10.539
12900;170485;33.12;156;04.07.10.539
12888;170490;33.12;157;04.07.10.539
12904;170495;33.12;158;04.07.10.539
12896;170498;33.12;159;04.07.10.539
12892;170500;33.12;160;04.07.10.550
12900;170487;33.12;161;04.07.10.550
12896;170497;33.12;162;04.07.10.550
12892;170493;33.12;163;04.07.10.550
12904;170503;33.12;164;04.07.10.550
12900;170498;33.12;165;04.07.10.550
12884;170507;33.12;166;04.07.10.550
12860;170493;33.12;167;04.07.10.550
12888;170510;33.12;168;04.07.10.550
12896;170500;33.12;169;04.07.10.550
12884;170508;33.12;170;04.07.10.550
12884;170506;33.12;171;04.07.10.550
12892;170507;33.12;172;04.07.10.550
12884;170512;33.12;173;04.07.10.561
12904;170505;33.12;174;04.07.10.561
12896;170512;33.08;175;04.07.10.671
12912;170513;33.08;176;04.07.10.671
12876;170506;33.08;177;04.07.10.671
12880;170511;33.08;178;04.07.10.671
12876;170507;33.08;179;04.07.10.671
12876;170515;33.08;180;04.07.10.671
12900;170517;33.08;181;04.07.10.682
12880;170509;33.08;182;04.07.10.682
12892;170514;33.08;183;04.07.10.682
12892;170514;33.08;184;04.07.10.682
12860;170513;33.08;185;04.07.10.682
12868;170513;33.08;186;04.07.10.682
12852;170528;33.08;187;04.07.10.682
12892;170522;33.08;188;04.07.10.682
12896;170523;33.08;189;04.07.10.682
12900;170518;33.08;190;04.07.10.682
12912;170522;33.08;191;04.07.10.682
12864;170526;33.08;192;04.07.10.682
12888;170522;33.08;193;04.07.10.693
12900;170526;33.08;194;04.07.10.693
12900;170526;33.08;195;04.07.10.693
12912;170527;33.08;196;04.07.10.693
12872;170528;33.08;197;04.07.10.693
12872;170532;33.08;198;04.07.10.693
12904;170528;33.08;199;04.07.10.693
12888;170533;33.08;200;04.07.10.758
12904;170524;33.08;201;04.07.10.758
12892;170535;33.08;202;04.07.10.758
12916;170536;33.08;203;04.07.10.769
12892;170535;33.08;204;04.07.10.769
12888;170536;33.08;205;04.07.10.769
12880;170530;33.08;206;04.07.10.769
12892;170545;33.08;207;04.07.10.769
12896;170532;33.08;208;04.07.10.769
12912;170535;33.08;209;04.07.10.769
12884;170536;33.08;210;04.07.10.769
12876;170536;33.08;211;04.07.10.769
12888;170539;33.08;212;04.07.10.769
12900;170531;33.08;213;04.07.10.769
12896;170538;33.08;214;04.07.10.769
12884;170535;33.08;215;04.07.10.769
12888;170541;33.08;216;04.07.10.770
12888;170540;33.08;217;04.07.10.781
12912;170550;33.08;218;04.07.10.781
12912;170545;33.08;219;04.07.10.781
12860;170546;33.08;220;04.07.10.781
12904;170558;33.08;221;04.07.10.781
12880;170551;33.08;222;04.07.10.781
12884;170555;33.08;223;04.07.10.781
12928;170552;33.08;224;04.07.10.781
12896;170565;33.12;225;04.07.10.891
12892;170567;33.12;226;04.07.10.891
12872;170566;33.12;227;04.07.10.891
12888;170564;33.12;228;04.07.10.891
12880;170559;33.12;229;04.07.10.891
12880;170561;33.12;230;04.07.10.891
12888;170562;33.12;231;04.07.10.891
12884;170566;33.12;232;04.07.10.891
12868;170561;33.12;233;04.07.10.891
12884;170569;33.12;234;04.07.10.891
12904;170567;33.12;235;04.07.10.891
12884;170567;33.12;236;04.07.10.891
12876;170564;33.12;237;04.07.10.891
12880;170557;33.12;238;04.07.10.901
12892;170552;33.12;239;04.07.10.901
12880;170553;33.12;240;04.07.10.901
12912;170550;33.12;241;04.07.10.901
12884;170547;33.12;242;04.07.10.901
12884;170546;33.12;243;04.07.10.901
12880;170544;33.12;244;04.07.10.901
12896;170545;33.12;245;04.07.10.901
12928;170541;33.12;246;04.07.10.901
12884;170527;33.12;247;04.07.10.901
12896;170530;33.12;248;04.07.10.901
12912;170529;33.12;249;04.07.10.901
12876;170529;33.12;250;04.07.11.022
12880;170524;33.12;251;04.07.11.022
12880;170512;33.12;252;04.07.11.022
12904;170514;33.12;253;04.07.11.022
12916;170516;33.12;254;04.07.11.022
12900;170517;33.12;255;04.07.11.022
12884;170513;33.12;256;04.07.11.022
12900;170505;33.12;257;04.07.11.022
12884;170511;33.12;258;04.07.11.033
12876;170509;33.12;259;04.07.11.033
12904;170502;33.12;260;04.07.11.033
12880;170500;33.12;261;04.07.11.033
12928;170504;33.12;262;04.07.11.033
12876;170505;33.12;263;04.07.11.033
12900;170505;33.12;264;04.07.11.033
12888;170499;33.12;265;04.07.11.033
12892;170501;33.12;266;04.07.11.033
12900;170499;33.12;267;04.07.11.033
12868;170505;33.12;268;04.07.11.033
12880;170502;33.12;269;04.07.11.033
12884;170497;33.12;270;04.07.11.033
12908;170495;33.12;271;04.07.11.044
12884;170494;33.12;272;04.07.11.044
12888;170492;33.12;273;04.07.11.044
12904;170489;33.12;274;04.07.11.044
12864;170492;33.12;275;04.07.11.154
12908;170490;33.12;276;04.07.11.154
12912;170485;33.12;277;04.07.11.154
12888;170489;33.12;278;04.07.11.154
12912;170490;33.12;279;04.07.11.164
12904;170480;33.12;280;04.07.11.164
12904;170486;33.12;281;04.07.11.164
12868;170486;33.12;282;04.07.11.164
12900;170482;33.12;283;04.07.11.164
12900;170480;33.12;284;04.07.11.164
12888;170480;33.12;285;04.07.11.164
12892;170490;33.12;286;04.07.11.164
12928;170484;33.12;287;04.07.11.164
12908;170477;33.12;288;04.07.11.164
12892;170480;33.12;289;04.07.11.164
12860;170484;33.12;290;04.07.11.164
12888;170472;33.12;291;04.07.11.164
12896;170481;33.12;292;04.07.11.175
12872;170475;33.12;293;04.07.11.175
12892;170482;33.12;294;04.07.11.175
12892;170484;33.12;295;04.07.11.175
12892;170473;33.12;296;04.07.11.175
12896;170475;33.12;297;04.07.11.175
12860;170474;33.12;298;04.07.11.175
12884;170477;33.12;299;04.07.11.175
12844;170468;33.12;300;04.07.11.263
12912;170468;33.12;301;04.07.11.274
12892;170471;33.12;302;04.07.11.274
12892;170463;33.12;303;04.07.11.274
12904;170458;33.12;304;04.07.11.274
12920;170459;33.12;305;04.07.11.274
12892;170466;33.12;306;04.07.11.274
12928;170457;33.12;307;04.07.11.274
12900;170450;33.12;308;04.07.11.285
12876;170459;33.12;309;04.07.11.285
12876;170454;33.12;310;04.07.11.285
12888;170450;33.12;311;04.07.11.285
12892;170447;33.12;312;04.07.11.285
12872;170441;33.12;313;04.07.11.285
12912;170451;33.12;314;04.07.11.285
12904;170444;33.12;315;04.07.11.285
12892;170447;33.12;316;04.07.11.285
12904;170452;33.12;317;04.07.11.285
12880;170444;33.12;318;04.07.11.296
12896;170453;33.12;319;04.07.11.296
12912;170447;33.12;320;04.07.11.296
12876;170456;33.12;321;04.07.11.296
12888;170448;33.12;322;04.07.11.296
12904;170452;33.12;323;04.07.11.296
12900;170456;33.12;324;04.07.11.296
12884;170452;33.08;325;04.07.11.395
12908;170451;33.08;326;04.07.11.395
12880;170453;33.08;327;04.07.11.395
12880;170441;33.08;328;04.07.11.395
12864;170447;33.08;329;04.07.11.395
12892;170444;33.08;330;04.07.11.395
12884;170447;33.08;331;04.07.11.395
12900;170446;33.08;332;04.07.11.395
12888;170443;33.08;333;04.07.11.417
12892;170448;33.08;334;04.07.11.417
12896;170459;33.08;335;04.07.11.417
12940;170456;33.08;336;04.07.11.417
12860;170454;33.08;337;04.07.11.417
12892;170462;33.08;338;04.07.11.417
12888;170458;33.08;339;04.07.11.417
12916;170458;33.08;340;04.07.11.417
12900;170454;33.08;341;04.07.11.417
12928;170459;33.08;342;04.07.11.428
12928;170457;33.08;343;04.07.11.428
12896;170453;33.08;344;04.07.11.428
12880;170455;33.08;345;04.07.11.428
12904;170459;33.08;346;04.07.11.428
12880;170463;33.08;347;04.07.11.428
12888;170461;33.08;348;04.07.11.428
12932;170472;33.08;349;04.07.11.428
12892;170469;33.08;350;04.07.11.516
12888;170467;33.08;351;04.07.11.516
12880;170463;33.08;352;04.07.11.516
12880;170473;33.08;353;04.07.11.516
12900;170476;33.08;354;04.07.11.516
12876;170476;33.08;355;04.07.11.527
12904;170477;33.08;356;04.07.11.527
12880;170476;33.08;357;04.07.11.527
12892;170481;33.08;358;04.07.11.527
12876;170478;33.08;359;04.07.11.527
12888;170471;33.08;360;04.07.11.527
12904;170473;33.08;361;04.07.11.527
12856;170481;33.08;362;04.07.11.527
12896;170477;33.08;363;04.07.11.527
12900;170487;33.08;364;04.07.11.527
12884;170486;33.08;365;04.07.11.527
12896;170485;33.08;366;04.07.11.527
12884;170490;33.08;367;04.07.11.527
12880;170487;33.08;368;04.07.11.537
12900;170494;33.08;369;04.07.11.537
12860;170487;33.08;370;04.07.11.537
12888;170503;33.08;371;04.07.11.537
12872;170491;33.08;372;04.07.11.537
12928;170502;33.08;373;04.07.11.537
12896;170502;33.08;374;04.07.11.537
12904;170503;33.08;375;04.07.11.658
12884;170499;33.08;376;04.07.11.658
12904;170506;33.08;377;04.07.11.658
12872;170507;33.08;378;04.07.11.669
12884;170506;33.08;379;04.07.11.669
12888;170501;33.08;380;04.07.11.669
12904;170509;33.08;381;04.07.11.669
12884;170511;33.08;382;04.07.11.669
12892;170509;33.08;383;04.07.11.669
12912;170507;33.08;384;04.07.11.669
12892;170519;33.08;385;04.07.11.669
12900;170510;33.08;386;04.07.11.669
12876;170520;33.08;387;04.07.11.669
12916;170513;33.08;388;04.07.11.669
12888;170514;33.08;389;04.07.11.669
12896;170521;33.08;390;04.07.11.680
12912;170509;33.08;391;04.07.11.680
12896;170511;33.08;392;04.07.11.680
12880;170515;33.08;393;04.07.11.680
12908;170512;33.08;394;04.07.11.680
12892;170522;33.08;395;04.07.11.680
12928;170518;33.08;396;04.07.11.680
12900;170510;33.08;397;04.07.11.680
12900;170515;33.08;398;04.07.11.680
12904;170507;33.08;399;04.07.11.680
12860;170507;33.08;400;04.07.11.768
12908;170500;33.08;401;04.07.11.768
12912;170500;33.08;402;04.07.11.768
12888;170491;33.08;403;04.07.11.768
12892;170485;33.08;404;04.07.11.768
12900;170487;33.08;405;04.07.11.768
12888;170477;33.08;406;04.07.11.768
12872;170471;33.08;407;04.07.11.768
12892;170471;33.08;408;04.07.11.801
12892;170463;33.08;409;04.07.11.801
12892;170452;33.08;410;04.07.11.801
12888;170445;33.08;411;04.07.11.801
12884;170446;33.08;412;04.07.11.801
12920;170425;33.08;413;04.07.11.801
12900;170420;33.08;414;04.07.11.801
12884;170418;33.08;415;04.07.11.801
12904;170413;33.08;416;04.07.11.801
12896;170410;33.08;417;04.07.11.801
12876;170394;33.08;418;04.07.11.801
12880;170383;33.08;419;04.07.11.801
12928;170382;33.08;420;04.07.11.812
12892;170365;33.08;421;04.07.11.812
12900;170360;33.08;422;04.07.11.812
12904;170351;33.08;423;04.07.11.812
12900;170342;33.08;424;04.07.11.812
12888;170334;33.12;425;04.07.11.889
12888;170326;33.12;426;04.07.11.889
12896;170316;33.12;427;04.07.11.889
12900;170294;33.12;428;04.07.11.889
12896;170302;33.12;429;04.07.11.889
12912;170294;33.12;430;04.07.11.889
12884;170281;33.12;431;04.07.11.889
12904;170284;33.12;432;04.07.11.889
12884;170275;33.12;433;04.07.11.889
12872;170277;33.12;434;04.07.11.900
12868;170264;33.12;435;04.07.11.900
12908;170258;33.12;436;04.07.11.900
12892;170254;33.12;437;04.07.11.900
12904;170250;33.12;438;04.07.11.900
12896;170248;33.12;439;04.07.11.900
12892;170244;33.12;440;04.07.11.900
12880;170241;33.12;441;04.07.11.900
12892;170235;33.12;442;04.07.11.900
12896;170242;33.12;443;04.07.11.900
12888;170235;33.12;444;04.07.11.900
12896;170229;33.12;445;04.07.11.900
12892;170232;33.12;446;04.07.11.900
12876;170231;33.12;447;04.07.11.910
12928;170223;33.12;448;04.07.11.910
12912;170220;33.12;449;04.07.11.910
12896;170216;33.12;450;04.07.12.008
12888;170216;33.12;451;04.07.12.008
12892;170205;33.12;452;04.07.12.008
12860;170213;33.12;453;04.07.12.019
12884;170211;33.12;454;04.07.12.019
12888;170203;33.12;455;04.07.12.019
12904;170201;33.12;456;04.07.12.019
12876;170189;33.12;457;04.07.12.019
12896;170196;33.12;458;04.07.12.019
12888;170196;33.12;459;04.07.12.019
12928;170199;33.12;460;04.07.12.019
12916;170199;33.12;461;04.07.12.019
12876;170186;33.12;462;04.07.12.019
12900;170192;33.12;463;04.07.12.019
12888;170194;33.12;464;04.07.12.019
12912;170188;33.12;465;04.07.12.019
12884;170184;33.12;466;04.07.12.019
12904;170187;33.12;467;04.07.12.030
12908;170187;33.12;468;04.07.12.030
12892;170183;33.12;469;04.07.12.030
12900;170176;33.12;470;04.07.12.030
12884;170181;33.12;471;04.07.12.030
12888;170181;33.12;472;04.07.12.030
12896;170187;33.12;473;04.07.12.030
12936;170173;33.12;474;04.07.12.030
12864;170182;33.08;475;04.07.12.161
12912;170174;33.08;476;04.07.12.161
12876;170179;33.08;477;04.07.12.161
12884;170173;33.08;478;04.07.12.161
12876;170168;33.08;479;04.07.12.161
12900;170172;33.08;480;04.07.12.161
12868;170165;33.08;481;04.07.12.161
12896;170169;33.08;482;04.07.12.161
12884;170173;33.08;483;04.07.12.161
12908;170171;33.08;484;04.07.12.161
12904;170175;33.08;485;04.07.12.161
12896;170171;33.08;486;04.07.12.172
12876;170173;33.08;487;04.07.12.172
12904;170176;33.08;488;04.07.12.172
12912;170177;33.08;489;04.07.12.172
12876;170173;33.08;490;04.07.12.172
12880;170164;33.08;491;04.07.12.172
12872;170171;33.08;492;04.07.12.172
12856;170170;33.08;493;04.07.12.172
12876;170172;33.08;494;04.07.12.172
12916;170181;33.08;495;04.07.12.172
12864;170172;33.08;496;04.07.12.172
12872;170177;33.08;497;04.07.12.172
12896;170175;33.08;498;04.07.12.172
12916;170178;33.08;499;04.07.12.183
12928;170179;33.08;500;04.07.12.293
12884;170178;33.08;501;04.07.12.293
12872;170180;33.08;502;04.07.12.293
12892;170177;33.08;503;04.07.12.293
12892;170177;33.08;504;04.07.12.293
12920;170178;33.08;505;04.07.12.293
12884;170178;33.08;506;04.07.12.293
12884;170180;33.08;507;04.07.12.293
12872;170180;33.08;508;04.07.12.293
12904;170175;33.08;509;04.07.12.304
12884;170170;33.08;510;04.07.12.304
12892;170176;33.08;511;04.07.12.304
12900;170173;33.08;512;04.07.12.304
12908;170173;33.08;513;04.07.12.304
12900;170173;33.08;514;04.07.12.304
12888;170167;33.08;515;04.07.12.304
12876;170171;33.08;516;04.07.12.304
12912;170172;33.08;517;04.07.12.304
12872;170162;33.08;518;04.07.12.304
12920;170164;33.08;519;04.07.12.304
12892;170172;33.08;520;04.07.12.304
12892;170175;33.08;521;04.07.12.304
12884;170179;33.08;522;04.07.12.315
12896;170169;33.08;523;04.07.12.315
12892;170178;33.08;524;04.07.12.315
12864;170166;33.08;525;04.07.12.391
12896;170175;33.08;526;04.07.12.391
12888;170178;33.08;527;04.07.12.391
12864;170175;33.08;528;04.07.12.391
12884;170177;33.08;529;04.07.12.402
12876;170178;33.08;530;04.07.12.402
12884;170188;33.08;531;04.07.12.402
12884;170189;33.08;532;04.07.12.402
12868;170191;33.08;533;04.07.12.402
12892;170189;33.08;534;04.07.12.402
12880;170187;33.08;535;04.07.12.402
12896;170194;33.08;536;04.07.12.402
12928;170199;33.08;537;04.07.12.412
12888;170204;33.08;538;04.07.12.412
12884;170203;33.08;539;04.07.12.412
12868;170208;33.08;540;04.07.12.412
12888;170201;33.08;541;04.07.12.412
12864;170210;33.08;542;04.07.12.423
12888;170212;33.08;543;04.07.12.423
12876;170209;33.08;544;04.07.12.423
12860;170210;33.08;545;04.07.12.434
12888;170209;33.08;546;04.07.12.434
12876;170221;33.08;547;04.07.12.434
12888;170213;33.08;548;04.07.12.434
12928;170219;33.08;549;04.07.12.434
12924;170219;33.08;550;04.07.12.521
12896;170221;33.08;551;04.07.12.521
12876;170215;33.08;552;04.07.12.521
12876;170210;33.08;553;04.07.12.521
12900;170209;33.08;554;04.07.12.521
12896;170203;33.08;555;04.07.12.521
12876;170199;33.08;556;04.07.12.521
12904;170194;33.08;557;04.07.12.521
12868;170195;33.08;558;04.07.12.521
12892;170185;33.08;559;04.07.12.521
12892;170181;33.08;560;04.07.12.532
12892;170175;33.08;561;04.07.12.532
12888;170179;33.08;562;04.07.12.532
12892;170182;33.08;563;04.07.12.532
12892;170180;33.08;564;04.07.12.532
12928;170164;33.08;565;04.07.12.532
12888;170175;33.08;566;04.07.12.532
12900;170172;33.08;567;04.07.12.532
12876;170173;33.08;568;04.07.12.532
12896;170173;33.08;569;04.07.12.532
12900;170180;33.08;570;04.07.12.532
12884;170172;33.08;571;04.07.12.532
12896;170175;33.08;572;04.07.12.532
12896;170171;33.08;573;04.07.12.543
12908;170175;33.08;574;04.07.12.543
12892;170180;33.12;575;04.07.12.652
12872;170176;33.12;576;04.07.12.652
12896;170185;33.12;577;04.07.12.652
12892;170192;33.12;578;04.07.12.652
12880;170187;33.12;579;04.07.12.652
12904;170183;33.12;580;04.07.12.652
12916;170187;33.12;581;04.07.12.652
12896;170190;33.12;582;04.07.12.663
12888;170194;33.12;583;04.07.12.663
12904;170189;33.12;584;04.07.12.663
12888;170183;33.12;585;04.07.12.663
12876;170192;33.12;586;04.07.12.663
12888;170188;33.12;587;04.07.12.663
12904;170192;33.12;588;04.07.12.663
12888;170189;33.12;589;04.07.12.663
12908;170187;33.12;590;04.07.12.663
12912;170192;33.12;591;04.07.12.663
12892;170195;33.12;592;04.07.12.663
12916;170201;33.12;593;04.07.12.663
12884;170204;33.12;594;04.07.12.663
12872;170199;33.12;595;04.07.12.663
12900;170203;33.12;596;04.07.12.674
12884;170210;33.12;597;04.07.12.674
12928;170205;33.12;598;04.07.12.674
12892;170201;33.12;599;04.07.12.674
12884;170212;33.12;600;04.07.12.762
12888;170213;33.12;601;04.07.12.762
12876;170210;33.12;602;04.07.12.762
12860;170219;33.12;603;04.07.12.762
12888;170223;33.12;604;04.07.12.773
12896;170223;33.12;605;04.07.12.773
12904;170224;33.12;606;04.07.12.773
12888;170232;33.12;607;04.07.12.773
12872;170223;33.12;608;04.07.12.784
12896;170232;33.12;609;04.07.12.784
12888;170229;33.12;610;04.07.12.784
12912;170233;33.12;611;04.07.12.784
12860;170234;33.12;612;04.07.12.795
12888;170226;33.12;613;04.07.12.795
12912;170223;33.12;614;04.07.12.795
12896;170233;33.12;615;04.07.12.795
12904;170222;33.12;616;04.07.12.795
12880;170220;33.12;617;04.07.12.795
12896;170220;33.12;618;04.07.12.795
12904;170224;33.12;619;04.07.12.795
12884;170215;33.12;620;04.07.12.795
12872;170214;33.12;621;04.07.12.795
12892;170215;33.12;622;04.07.12.795
12876;170214;33.12;623;04.07.12.795
12920;170204;33.12;624;04.07.12.795
12892;170215;33.08;625;04.07.12.894
12928;170214;33.08;626;04.07.12.894
12920;170208;33.08;627;04.07.12.894
12868;170208;33.08;628;04.07.12.894
12900;170197;33.08;629;04.07.12.894
12880;170205;33.08;630;04.07.12.894
12904;170203;33.08;631;04.07.12.894
12900;170204;33.08;632;04.07.12.894
12904;170207;33.08;633;04.07.12.894
12912;170208;33.08;634;04.07.12.894
12908;170209;33.08;635;04.07.12.894
12880;170204;33.08;636;04.07.12.894
12904;170203;33.08;637;04.07.12.894
12904;170199;33.08;638;04.07.12.905
12892;170205;33.08;639;04.07.12.905
12876;170202;33.08;640;04.07.12.905
12892;170204;33.08;641;04.07.12.905
12888;170208;33.08;642;04.07.12.905
12888;170204;33.08;643;04.07.12.905
12880;170201;33.08;644;04.07.12.905
12876;170210;33.08;645;04.07.12.905
12896;170211;33.08;646;04.07.12.905
12896;170203;33.08;647;04.07.12.905
12888;170210;33.08;648;04.07.12.905
12904;170206;33.08;649;04.07.12.905
12880;170205;33.08;650;04.07.13.013
12888;170217;33.08;651;04.07.13.013
12896;170210;33.08;652;04.07.13.013
12888;170209;33.08;653;04.07.13.013
12900;170215;33.08;654;04.07.13.013
12908;170211;33.08;655;04.07.13.013
12892;170212;33.08;656;04.07.13.013
12876;170213;33.08;657;04.07.13.013
12860;170209;33.08;658;04.07.13.024
12904;170206;33.08;659;04.07.13.024
12884;170214;33.08;660;04.07.13.024
12892;170219;33.08;661;04.07.13.024
12880;170208;33.08;662;04.07.13.024
12852;170205;33.08;663;04.07.13.024
12872;170210;33.08;664;04.07.13.024
12888;170207;33.08;665;04.07.13.024
12876;170206;33.08;666;04.07.13.024
12912;170201;33.08;667;04.07.13.024
12880;170197;33.08;668;04.07.13.024
12884;170201;33.08;669;04.07.13.024
12896;170193;33.08;670;04.07.13.024
12884;170196;33.08;671;04.07.13.035
12880;170187;33.08;672;04.07.13.035
12876;170191;33.08;673;04.07.13.035
12888;170193;33.08;674;04.07.13.035
12876;170198;33.12;675;04.07.13.156
12896;170196;33.12;676;04.07.13.156
12908;170193;33.12;677;04.07.13.156
12912;170196;33.12;678;04.07.13.156
12864;170207;33.12;679;04.07.13.167
12880;170191;33.12;680;04.07.13.167
12896;170195;33.12;681;04.07.13.167
12876;170198;33.12;682;04.07.13.167
12896;170195;33.12;683;04.07.13.167
12900;170191;33.12;684;04.07.13.167
12912;170198;33.12;685;04.07.13.167
12880;170205;33.12;686;04.07.13.167
12896;170204;33.12;687;04.07.13.167
12884;170204;33.12;688;04.07.13.167
12904;170202;33.12;689;04.07.13.167
12880;170203;33.12;690;04.07.13.167
12868;170206;33.12;691;04.07.13.167
12892;170211;33.12;692;04.07.13.178
12884;170201;33.12;693;04.07.13.178
12888;170202;33.12;694;04.07.13.178
12900;170204;33.12;695;04.07.13.178
12876;170194;33.12;696;04.07.13.178
12896;170197;33.12;697;04.07.13.178
12908;170191;33.12;698;04.07.13.178
12928;170190;33.12;699;04.07.13.178
12888;170184;33.12;700;04.07.13.397
12912;170180;33.12;701;04.07.13.397
12888;170181;33.12;702;04.07.13.397
12884;170187;33.12;703;04.07.13.397
12904;170175;33.12;704;04.07.13.397
12896;170179;33.12;705;04.07.13.397
12876;170177;33.12;706;04.07.13.397
12900;170176;33.12;707;04.07.13.397
12856;170177;33.12;708;04.07.13.430
12888;170180;33.12;709;04.07.13.430
12896;170175;33.12;710;04.07.13.430
12872;170181;33.12;711;04.07.13.430
12856;170182;33.12;712;04.07.13.430
12876;170177;33.12;713;04.07.13.430
12892;170187;33.12;714;04.07.13.430
12896;170183;33.12;715;04.07.13.430
12852;170175;33.12;716;04.07.13.430
12912;170173;33.12;717;04.07.13.441
12896;170177;33.12;718;04.07.13.441
12908;170181;33.12;719;04.07.13.441
12904;170184;33.12;720;04.07.13.441
12872;170178;33.12;721;04.07.13.441
12892;170173;33.12;722;04.07.13.441
12904;170183;33.12;723;04.07.13.441
12896;170195;33.12;724;04.07.13.441
12884;170186;33.08;725;04.07.13.518
12924;170185;33.08;726;04.07.13.518
12892;170180;33.08;727;04.07.13.518
12896;170186;33.08;728;04.07.13.518
12908;170184;33.08;729;04.07.13.518
12928;170189;33.08;730;04.07.13.518
12884;170188;33.08;731;04.07.13.529
12900;170186;33.08;732;04.07.13.529
12896;170176;33.08;733;04.07.13.529
12880;170181;33.08;734;04.07.13.529
12904;170180;33.08;735;04.07.13.529
12908;170185;33.08;736;04.07.13.529
12884;170175;33.08;737;04.07.13.529
12876;170177;33.08;738;04.07.13.529
12892;170180;33.08;739;04.07.13.529
12892;170180;33.08;740;04.07.13.529
12900;170178;33.08;741;04.07.13.529
12904;170173;33.08;742;04.07.13.529
12860;170173;33.08;743;04.07.13.529
12880;170164;33.08;744;04.07.13.540
12900;170176;33.08;745;04.07.13.540
12892;170172;33.08;746;04.07.13.540
12900;170174;33.08;747;04.07.13.540
12892;170169;33.08;748;04.07.13.540
12920;170168;33.08;749;04.07.13.540
12904;170168;33.08;750;04.07.13.638
12864;170172;33.08;751;04.07.13.638
12884;170170;33.08;752;04.07.13.649
12896;170168;33.08;753;04.07.13.649
12900;170177;33.08;754;04.07.13.649
12884;170178;33.08;755;04.07.13.649
12912;170168;33.08;756;04.07.13.649
12896;170173;33.08;757;04.07.13.649
12916;170184;33.08;758;04.07.13.649
12896;170170;33.08;759;04.07.13.649
12912;170175;33.08;760;04.07.13.649
12900;170171;33.08;761;04.07.13.649
12900;170178;33.08;762;04.07.13.649
12888;170181;33.08;763;04.07.13.649
12868;170182;33.08;764;04.07.13.649
12892;170182;33.08;765;04.07.13.660
12900;170184;33.08;766;04.07.13.660
12896;170177;33.08;767;04.07.13.660
12884;170181;33.08;768;04.07.13.660
12896;170182;33.08;769;04.07.13.660
12880;170181;33.08;770;04.07.13.660
12892;170182;33.08;771;04.07.13.660
12872;170178;33.08;772;04.07.13.660
12928;170174;33.08;773;04.07.13.660
12876;170185;33.08;774;04.07.13.660
12912;170184;33.08;775;04.07.13.781
12904;170189;33.08;776;04.07.13.781
12920;170185;33.08;777;04.07.13.781
12880;170183;33.08;778;04.07.13.781
12876;170173;33.08;779;04.07.13.781
12896;170186;33.08;780;04.07.13.781
12912;170189;33.08;781;04.07.13.781
12876;170186;33.08;782;04.07.13.781
12876;170189;33.08;783;04.07.13.781
12860;170185;33.08;784;04.07.13.781
12900;170190;33.08;785;04.07.13.781
12912;170187;33.08;786;04.07.13.781
12900;170189;33.08;787;04.07.13.792
12916;170192;33.08;788;04.07.13.792
12896;170193;33.08;789;04.07.13.792
12880;170193;33.08;790;04.07.13.792
12884;170187;33.08;791;04.07.13.792
12876;170198;33.08;792;04.07.13.792
12876;170192;33.08;793;04.07.13.792
12864;170191;33.08;794;04.07.13.792
12908;170195;33.08;795;04.07.13.792
12876;170191;33.08;796;04.07.13.792
12928;170198;33.08;797;04.07.13.792
12904;170194;33.08;798;04.07.13.792
12904;170191;33.08;799;04.07.13.803
12908;170192;33.08;800;04.07.13.890
12904;170206;33.08;801;04.07.13.890
12908;170199;33.08;802;04.07.13.890
12888;170202;33.08;803;04.07.13.890
12868;170207;33.08;804;04.07.13.890
12908;170199;33.08;805;04.07.13.890
12900;170214;33.08;806;04.07.13.890
12892;170209;33.08;807;04.07.13.890
12896;170212;33.08;808;04.07.13.901
12888;170212;33.08;809;04.07.13.901
12884;170208;33.08;810;04.07.13.901
12876;170206;33.08;811;04.07.13.901
12904;170211;33.08;812;04.07.13.901
12868;170217;33.08;813;04.07.13.901
12896;170218;33.08;814;04.07.13.901
12892;170212;33.08;815;04.07.13.912
12888;170218;33.08;816;04.07.13.912
12892;170210;33.08;817;04.07.13.912
12916;170207;33.08;818;04.07.13.912
12896;170213;33.08;819;04.07.13.912
12896;170206;33.08;820;04.07.13.912
12904;170200;33.08;821;04.07.13.912
12896;170195;33.08;822;04.07.13.912
12908;170196;33.08;823;04.07.13.912
12892;170184;33.08;824;04.07.13.912
12892;170178;33.08;825;04.07.14.011
12884;170179;33.08;826;04.07.14.011
12876;170165;33.08;827;04.07.14.011
12872;170170;33.08;828;04.07.14.011
12900;170164;33.08;829;04.07.14.022
12860;170158;33.08;830;04.07.14.022
12884;170159;33.08;831;04.07.14.022
12892;170146;33.08;832;04.07.14.022
12884;170140;33.08;833;04.07.14.022
12888;170148;33.08;834;04.07.14.022
12872;170145;33.08;835;04.07.14.022
12900;170140;33.08;836;04.07.14.022
12888;170142;33.08;837;04.07.14.022
12896;170136;33.08;838;04.07.14.022
12892;170137;33.08;839;04.07.14.022
12880;170131;33.08;840;04.07.14.022
12896;170140;33.08;841;04.07.14.033
12908;170140;33.08;842;04.07.14.033
12912;170132;33.08;843;04.07.14.033
12884;170133;33.08;844;04.07.14.033
12896;170141;33.08;845;04.07.14.033
12880;170136;33.08;846;04.07.14.033
12884;170133;33.08;847;04.07.14.033
12892;170131;33.08;848;04.07.14.033
12888;170135;33.08;849;04.07.14.033
12892;170129;33.08;850;04.07.14.142
12912;170130;33.08;851;04.07.14.142
12904;170136;33.08;852;04.07.14.142
12896;170139;33.08;853;04.07.14.142
12892;170146;33.08;854;04.07.14.142
12900;170144;33.08;855;04.07.14.142
12896;170140;33.08;856;04.07.14.142
12904;170133;33.08;857;04.07.14.142
12884;170144;33.08;858;04.07.14.142
12888;170137;33.08;859;04.07.14.142
12900;170134;33.08;860;04.07.14.142
12884;170144;33.08;861;04.07.14.142
12908;170144;33.08;862;04.07.14.142
12872;170141;33.08;863;04.07.14.153
12920;170138;33.08;864;04.07.14.153
12864;170142;33.08;865;04.07.14.153
12876;170152;33.08;866;04.07.14.153
12928;170147;33.08;867;04.07.14.153
12892;170150;33.08;868;04.07.14.153
12884;170145;33.08;869;04.07.14.153
12888;170149;33.08;870;04.07.14.153
12884;170140;33.08;871;04.07.14.153
12900;170144;33.08;872;04.07.14.153
12900;170148;33.08;873;04.07.14.153
12884;170148;33.08;874;04.07.14.153
12880;170147;33.08;875;04.07.14.274
12920;170140;33.08;876;04.07.14.274
12896;170144;33.08;877;04.07.14.274
12896;170138;33.08;878;04.07.14.274
12892;170139;33.08;879;04.07.14.274
12928;170132;33.08;880;04.07.14.274
12896;170132;33.08;881;04.07.14.274
12904;170134;33.08;882;04.07.14.274
12896;170128;33.08;883;04.07.14.274
12892;170134;33.08;884;04.07.14.285
12892;170131;33.08;885;04.07.14.285
12888;170130;33.08;886;04.07.14.285
12912;170121;33.08;887;04.07.14.285
12900;170120;33.08;888;04.07.14.285
12888;170130;33.08;889;04.07.14.285
12900;170129;33.08;890;04.07.14.285
12892;170136;33.08;891;04.07.14.285
12896;170130;33.08;892;04.07.14.285
12916;170122;33.08;893;04.07.14.285
12912;170132;33.08;894;04.07.14.285
12868;170129;33.08;895;04.07.14.285
12880;170137;33.08;896;04.07.14.285
12900;170126;33.08;897;04.07.14.296
12904;170124;33.08;898;04.07.14.296
12892;170124;33.08;899;04.07.14.296
12884;170132;33.08;900;04.07.14.417
12900;170137;33.08;901;04.07.14.417
12884;170138;33.08;902;04.07.14.417
12884;170138;33.08;903;04.07.14.417
12888;170140;33.08;904;04.07.14.428
12884;170135;33.08;905;04.07.14.428
12880;170138;33.08;906;04.07.14.428
12888;170136;33.08;907;04.07.14.428
12904;170140;33.08;908;04.07.14.428
12892;170140;33.08;909;04.07.14.428
12928;170137;33.08;910;04.07.14.428
12888;170144;33.08;911;04.07.14.428
12888;170144;33.08;912;04.07.14.428
12912;170152;33.08;913;04.07.14.428
12896;170148;33.08;914;04.07.14.428
12892;170158;33.08;915;04.07.14.428
12884;170150;33.08;916;04.07.14.428
12916;170161;33.08;917;04.07.14.438
12900;170156;33.08;918;04.07.14.438
12908;170152;33.08;919;04.07.14.438
12920;170158;33.08;920;04.07.14.438
12872;170152;33.08;921;04.07.14.438
12872;170152;33.08;922;04.07.14.438
12892;170155;33.08;923;04.07.14.438
12892;170145;33.08;924;04.07.14.438
12872;170165;33.08;925;04.07.14.570
12872;170159;33.08;926;04.07.14.570
12908;170158;33.08;927;04.07.14.570
12888;170158;33.08;928;04.07.14.570
12916;170158;33.08;929;04.07.14.570
12888;170153;33.08;930;04.07.14.570
12876;170153;33.08;931;04.07.14.570
12888;170163;33.08;932;04.07.14.570
12876;170156;33.08;933;04.07.14.581
12884;170160;33.08;934;04.07.14.581
12888;170160;33.08;935;04.07.14.581
12916;170154;33.08;936;04.07.14.581
12896;170149;33.08;937;04.07.14.581
12892;170160;33.08;938;04.07.14.581
12896;170156;33.08;939;04.07.14.581
12896;170165;33.08;940;04.07.14.581
12884;170160;33.08;941;04.07.14.581
12904;170164;33.08;942;04.07.14.581
12896;170168;33.08;943;04.07.14.581
12900;170164;33.08;944;04.07.14.581
12892;170170;33.08;945;04.07.14.592
12876;170166;33.08;946;04.07.14.592
12896;170173;33.08;947;04.07.14.592
12884;170172;33.08;948;04.07.14.592
12912;170187;33.08;949;04.07.14.592
12884;170192;33.08;950;04.07.14.647
12872;170185;33.08;951;04.07.14.647
12904;170189;33.08;952;04.07.14.647
12884;170193;33.08;953;04.07.14.647
12884;170192;33.08;954;04.07.14.647
12908;170192;33.08;955;04.07.14.647
12896;170197;33.08;956;04.07.14.647
12904;170203;33.08;957;04.07.14.647
12904;170200;33.08;958;04.07.14.647
12872;170201;33.08;959;04.07.14.658
12876;170206;33.08;960;04.07.14.658
12888;170209;33.08;961;04.07.14.658
12880;170201;33.08;962;04.07.14.658
12892;170217;33.08;963;04.07.14.658
12904;170209;33.08;964;04.07.14.658
12888;170220;33.08;965;04.07.14.658
12872;170217;33.08;966;04.07.14.658
12904;170221;33.08;967;04.07.14.680
12896;170231;33.08;968;04.07.14.680
12876;170228;33.08;969;04.07.14.680
12860;170218;33.08;970;04.07.14.680
12888;170231;33.08;971;04.07.14.680
12860;170225;33.08;972;04.07.14.680
12896;170232;33.08;973;04.07.14.680
12912;170219;33.08;974;04.07.14.680
12892;170215;33.08;975;04.07.14.768
12864;170214;33.08;976;04.07.14.768
12892;170208;33.08;977;04.07.14.768
12880;170210;33.08;978;04.07.14.768
12868;170201;33.08;979;04.07.14.768
12904;170190;33.08;980;04.07.14.768
12900;170193;33.08;981;04.07.14.768
12908;170181;33.08;982;04.07.14.768
12896;170178;33.08;983;04.07.14.779
12904;170174;33.08;984;04.07.14.779
12868;170156;33.08;985;04.07.14.779
12896;170149;33.08;986;04.07.14.779
12896;170142;33.08;987;04.07.14.779
12928;170135;33.08;988;04.07.14.779
12912;170128;33.08;989;04.07.14.779
12900;170127;33.08;990;04.07.14.779
12892;170122;33.08;991;04.07.14.779
12892;170108;33.08;992;04.07.14.779
12904;170105;33.08;993;04.07.14.779
12884;170102;33.08;994;04.07.14.779
12888;170098;33.08;995;04.07.14.790
12896;170096;33.08;996;04.07.14.790
12876;170093;33.08;997;04.07.14.790
12888;170086;33.08;998;04.07.14.790
12916;170085;33.08;999;04.07.14.790
12900;170083;33.08;000;04.07.14.899
12892;170092;33.08;001;04.07.14.899
12900;170085;33.08;002;04.07.14.899
12904;170086;33.08;003;04.07.14.899
12896;170092;33.08;004;04.07.14.910
12892;170103;33.08;005;04.07.14.910
12892;170103;33.08;006;04.07.14.910
12892;170093;33.08;007;04.07.14.910
12860;170099;33.08;008;04.07.14.910
12892;170102;33.08;009;04.07.14.910
12896;170101;33.08;010;04.07.14.910
12896;170105;33.08;011;04.07.14.910
12888;170107;33.08;012;04.07.14.910
12892;170107;33.08;013;04.07.14.910
12892;170113;33.08;014;04.07.14.910
12908;170113;33.08;015;04.07.14.910
12920;170106;33.08;016;04.07.14.910
12864;170106;33.08;017;04.07.14.921
12876;170103;33.08;018;04.07.14.921
12892;170103;33.08;019;04.07.14.921
12884;170108;33.08;020;04.07.14.921
12884;170105;33.08;021;04.07.14.921
12908;170096;33.08;022;04.07.14.921
12884;170105;33.08;023;04.07.14.921
12912;170100;33.08;024;04.07.14.921
12884;170102;33.08;025;04.07.15.020
12912;170096;33.08;026;04.07.15.020
12876;170097;33.08;027;04.07.15.020
12904;170087;33.08;028;04.07.15.020
12892;170088;33.08;029;04.07.15.020
12860;170084;33.08;030;04.07.15.020
12868;170090;33.08;031;04.07.15.020
12900;170084;33.08;032;04.07.15.020
12872;170075;33.08;033;04.07.15.041
12928;170076;33.08;034;04.07.15.041
12860;170071;33.08;035;04.07.15.041
12916;170074;33.08;036;04.07.15.041
12912;170068;33.08;037;04.07.15.041
12880;170070;33.08;038;04.07.15.041
12880;170069;33.08;039;04.07.15.041
12892;170064;33.08;040;04.07.15.041
12920;170066;33.08;041;04.07.15.041
12892;170077;33.08;042;04.07.15.052
12904;170070;33.08;043;04.07.15.052
12892;170076;33.08;044;04.07.15.052
12912;170083;33.08;045;04.07.15.052
12896;170081;33.08;046;04.07.15.052
12864;170088;33.08;047;04.07.15.052
12896;170086;33.08;048;04.07.15.052
12920;170088;33.08;049;04.07.15.052
12860;170091;33.08;050;04.07.15.140
12908;170103;33.08;051;04.07.15.140
12856;170094;33.08;052;04.07.15.140
12880;170106;33.08;053;04.07.15.140
12900;170109;33.08;054;04.07.15.140
12904;170118;33.08;055;04.07.15.140
12896;170122;33.08;056;04.07.15.140
12896;170121;33.08;057;04.07.15.140
12888;170125;33.08;058;04.07.15.151
12880;170129;33.08;059;04.07.15.151
12900;170135;33.08;060;04.07.15.151
12904;170148;33.08;061;04.07.15.151
12896;170148;33.08;062;04.07.15.151
12900;170141;33.08;063;04.07.15.151
12920;170148;33.08;064;04.07.15.151
12892;170156;33.08;065;04.07.15.151
12916;170161;33.08;066;04.07.15.151
12928;170157;33.08;067;04.07.15.151
12876;170157;33.08;068;04.07.15.151
12884;170168;33.08;069;04.07.15.151
12880;170163;33.08;070;04.07.15.151
12884;170160;33.08;071;04.07.15.161
12908;170183;33.08;072;04.07.15.161
12860;170174;33.08;073;04.07.15.161
12904;170174;33.08;074;04.07.15.161
12876;170175;33.08;075;04.07.15.282
12884;170177;33.08;076;04.07.15.282
12872;170181;33.08;077;04.07.15.282
12892;170181;33.08;078;04.07.15.282
12868;170176;33.08;079;04.07.15.293
12900;170180;33.08;080;04.07.15.293
12900;170187;33.08;081;04.07.15.293
12928;170177;33.08;082;04.07.15.293
12912;170180;33.08;083;04.07.15.293
12884;170176;33.08;084;04.07.15.293
12892;170174;33.08;085;04.07.15.293
12876;170177;33.08;086;04.07.15.293
12884;170175;33.08;087;04.07.15.293
12896;170178;33.08;088;04.07.15.304
12900;170178;33.08;089;04.07.15.304
12884;170172;33.08;090;04.07.15.304
12908;170169;33.08;091;04.07.15.304
12884;170170;33.08;092;04.07.15.315
12904;170170;33.08;093;04.07.15.315
12888;170168;33.08;094;04.07.15.315
12904;170157;33.08;095;04.07.15.315
12900;170161;33.08;096;04.07.15.326
12896;170155;33.08;097;04.07.15.326
12908;170162;33.08;098;04.07.15.326
12904;170155;33.08;099;04.07.15.326
12912;170156;33.08;100;04.07.15.414
12872;170157;33.08;101;04.07.15.414
12896;170158;33.08;102;04.07.15.414
12880;170150;33.08;103;04.07.15.414
12884;170153;33.08;104;04.07.15.414
12916;170152;33.08;105;04.07.15.414
12908;170155;33.08;106;04.07.15.414
12920;170155;33.08;107;04.07.15.414
12884;170156;33.08;108;04.07.15.414
12920;170162;33.08;109;04.07.15.414
12900;170166;33.08;110;04.07.15.414
12876;170166;33.08;111;04.07.15.414
12880;170170;33.08;112;04.07.15.425
12872;170173;33.08;113;04.07.15.425
12868;170183;33.08;114;04.07.15.425
12888;170178;33.08;115;04.07.15.425
12892;170201;33.08;116;04.07.15.425
12904;170202;33.08;117;04.07.15.425
12912;170199;33.08;118;04.07.15.425
12880;170213;33.08;119;04.07.15.425
12880;170209;33.08;120;04.07.15.425
12896;170211;33.08;121;04.07.15.425
12888;170214;33.08;122;04.07.15.425
12872;170213;33.08;123;04.07.15.425
12900;170223;33.08;124;04.07.15.425
12880;170233;33.08;125;04.07.15.545
12892;170239;33.08;126;04.07.15.545
12884;170234;33.08;127;04.07.15.545
12900;170234;33.08;128;04.07.15.545
12876;170233;33.08;129;04.07.15.545
12892;170243;33.08;130;04.07.15.545
12912;170242;33.08;131;04.07.15.545
12860;170235;33.08;132;04.07.15.545
12872;170238;33.08;133;04.07.15.545
12908;170238;33.08;134;04.07.15.545
12888;170247;33.08;135;04.07.15.556
12876;170241;33.08;136;04.07.15.556
12892;170243;33.08;137;04.07.15.556
12928;170241;33.08;138;04.07.15.556
12884;170251;33.08;139;04.07.15.556
12868;170243;33.08;140;04.07.15.556
12892;170239;33.08;141;04.07.15.556
12924;170255;33.08;142;04.07.15.556
12892;170245;33.08;143;04.07.15.556
12896;170248;33.08;144;04.07.15.556
12888;170249;33.08;145;04.07.15.556
12884;170234;33.08;146;04.07.15.556
12884;170239;33.08;147;04.07.15.556
12908;170243;33.08;148;04.07.15.567
12880;170242;33.08;149;04.07.15.567
12904;170242;33.08;150;04.07.15.644
12912;170245;33.08;151;04.07.15.644
12888;170257;33.08;152;04.07.15.644
12884;170242;33.08;153;04.07.15.644
12904;170249;33.08;154;04.07.15.644
12876;170249;33.08;155;04.07.15.655
12892;170245;33.08;156;04.07.15.655
12888;170259;33.08;157;04.07.15.655
12908;170254;33.08;158;04.07.15.655
12896;170252;33.08;159;04.07.15.655
12884;170257;33.08;160;04.07.15.655
12904;170250;33.08;161;04.07.15.655
12888;170243;33.08;162;04.07.15.655
12892;170245;33.08;163;04.07.15.655
12892;170239;33.08;164;04.07.15.666
12896;170232;33.08;165;04.07.15.666
12888;170230;33.08;166;04.07.15.666
12884;170230;33.08;167;04.07.15.666
12884;170218;33.08;168;04.07.15.666
12896;170211;33.08;169;04.07.15.666
12928;170217;33.08;170;04.07.15.666
12864;170209;33.08;171;04.07.15.677
12920;170198;33.08;172;04.07.15.677
12872;170204;33.08;173;04.07.15.677
12884;170194;33.08;174;04.07.15.677
12876;170183;33.08;175;04.07.15.764
12880;170185;33.08;176;04.07.15.764
12904;170179;33.08;177;04.07.15.775
12904;170186;33.08;178;04.07.15.775
12896;170173;33.08;179;04.07.15.775
12876;170176;33.08;180;04.07.15.775
12872;170176;33.08;181;04.07.15.775
12876;170172;33.08;182;04.07.15.775
12880;170162;33.08;183;04.07.15.775
12908;170170;33.08;184;04.07.15.775
12884;170170;33.08;185;04.07.15.775
12900;170167;33.08;186;04.07.15.775
12888;170165;33.08;187;04.07.15.775
12904;170159;33.08;188;04.07.15.775
12888;170164;33.08;189;04.07.15.786
12896;170151;33.08;190;04.07.15.786
12904;170152;33.08;191;04.07.15.786
12912;170156;33.08;192;04.07.15.786
12896;170146;33.08;193;04.07.15.786
12892;170151;33.08;194;04.07.15.786
12876;170144;33.08;195;04.07.15.786
12892;170137;33.08;196;04.07.15.786
12884;170141;33.08;197;04.07.15.786
12908;170142;33.08;198;04.07.15.786
12892;170137;33.08;199;04.07.15.786
12896;170137;33.08;200;04.07.15.907
12904;170123;33.08;201;04.07.15.907
12892;170130;33.08;202;04.07.15.907
12892;170117;33.08;203;04.07.15.907
12884;170128;33.08;204;04.07.15.907
12892;170127;33.08;205;04.07.15.907
12900;170124;33.08;206;04.07.15.907
12884;170123;33.08;207;04.07.15.907
12912;170117;33.08;208;04.07.15.907
12872;170132;33.08;209;04.07.15.907
12888;170123;33.08;210;04.07.15.907
12884;170122;33.08;211;04.07.15.918
12892;170141;33.08;212;04.07.15.918
12900;170140;33.08;213;04.07.15.918
12868;170133;33.08;214;04.07.15.918
12884;170142;33.08;215;04.07.15.918
12868;170133;33.08;216;04.07.15.918
12892;170141;33.08;217;04.07.15.918
12892;170149;33.08;218;04.07.15.918
12904;170143;33.08;219;04.07.15.918
12912;170154;33.08;220;04.07.15.918
12892;170144;33.08;221;04.07.15.918
12928;170149;33.08;222;04.07.15.918
12900;170148;33.08;223;04.07.15.918
12908;170145;33.08;224;04.07.15.929
12876;170153;33.08;225;04.07.16.017
12904;170151;33.08;226;04.07.16.017
12884;170144;33.08;227;04.07.16.017
12896;170146;33.08;228;04.07.16.017
12932;170149;33.08;229;04.07.16.017
12928;170141;33.08;230;04.07.16.017
12876;170142;33.08;231;04.07.16.017
12872;170144;33.08;232;04.07.16.017
12916;170146;33.08;233;04.07.16.039
12912;170147;33.08;234;04.07.16.039
12888;170145;33.08;235;04.07.16.039
12916;170133;33.08;236;04.07.16.039
12888;170145;33.08;237;04.07.16.039
12924;170141;33.08;238;04.07.16.039
12928;170138;33.08;239;04.07.16.050
12872;170135;33.08;240;04.07.16.050
12884;170140;33.08;241;04.07.16.050
12928;170145;33.08;242;04.07.16.050
12896;170138;33.08;243;04.07.16.050
12888;170145;33.08;244;04.07.16.050
12904;170140;33.08;245;04.07.16.050
12904;170141;33.08;246;04.07.16.050
12900;170144;33.08;247;04.07.16.050
12916;170145;33.08;248;04.07.16.050
12920;170145;33.08;249;04.07.16.050
12892;170146;33.08;250;04.07.16.147
12928;170146;33.08;251;04.07.16.147
12896;170142;33.08;252;04.07.16.147
12884;170146;33.08;253;04.07.16.158
12904;170146;33.08;254;04.07.16.158
12888;170141;33.08;255;04.07.16.158
12928;170147;33.08;256;04.07.16.158
12912;170145;33.08;257;04.07.16.158
12908;170152;33.08;258;04.07.16.169
12892;170156;33.08;259;04.07.16.169
12900;170153;33.08;260;04.07.16.180
12880;170160;33.08;261;04.07.16.180
12888;170168;33.08;262;04.07.16.180
12896;170171;33.08;263;04.07.16.180
12892;170177;33.08;264;04.07.16.180
12928;170185;33.08;265;04.07.16.180
12896;170177;33.08;266;04.07.16.180
12916;170184;33.08;267;04.07.16.180
12888;170183;33.08;268;04.07.16.180
12900;170183;33.08;269;04.07.16.180
12892;170191;33.08;270;04.07.16.180
12892;170188;33.08;271;04.07.16.180
12888;170191;33.08;272;04.07.16.180
12896;170196;33.08;273;04.07.16.191
12888;170184;33.08;274;04.07.16.191
12876;170193;33.08;275;04.07.16.268
12900;170194;33.08;276;04.07.16.268
12908;170193;33.08;277;04.07.16.268
12920;170191;33.08;278;04.07.16.268
12876;170196;33.08;279;04.07.16.268
12876;170203;33.08;280;04.07.16.268
12904;170197;33.08;281;04.07.16.268
12884;170195;33.08;282;04.07.16.268
12892;170197;33.08;283;04.07.16.268
12884;170197;33.08;284;04.07.16.268
12912;170200;33.08;285;04.07.16.268
12892;170206;33.08;286;04.07.16.268
12916;170194;33.08;287;04.07.16.279
12876;170196;33.08;288;04.07.16.279
12872;170196;33.08;289;04.07.16.279
12884;170198;33.08;290;04.07.16.279
12928;170198;33.08;291;04.07.16.279
12900;170199;33.08;292;04.07.16.279
12872;170204;33.08;293;04.07.16.279
12912;170195;33.08;294;04.07.16.279
12876;170197;33.08;295;04.07.16.279
12892;170197;33.08;296;04.07.16.279
12904;170200;33.08;297;04.07.16.279
12904;170202;33.08;298;04.07.16.279
12920;170212;33.08;299;04.07.16.279
12884;170207;33.08;300;04.07.16.400
12904;170206;33.08;301;04.07.16.400
12868;170208;33.08;302;04.07.16.400
12892;170212;33.08;303;04.07.16.400
12888;170208;33.08;304;04.07.16.400
12900;170205;33.08;305;04.07.16.400
12896;170215;33.08;306;04.07.16.411
12896;170221;33.08;307;04.07.16.411
12888;170217;33.08;308;04.07.16.411
12872;170219;33.08;309;04.07.16.411
12900;170217;33.08;310;04.07.16.411
12888;170216;33.08;311;04.07.16.411
12888;170220;33.08;312;04.07.16.411
12876;170215;33.08;313;04.07.16.411
12860;170215;33.08;314;04.07.16.411
12888;170216;33.08;315;04.07.16.411
12892;170221;33.08;316;04.07.16.411
12904;170221;33.08;317;04.07.16.422
12892;170219;33.08;318;04.07.16.422
12892;170219;33.08;319;04.07.16.422
12904;170226;33.08;320;04.07.16.422
12880;170228;33.08;321;04.07.16.422
12916;170217;33.08;322;04.07.16.422
12892;170227;33.08;323;04.07.16.422
12908;170225;33.08;324;04.07.16.422
12884;170230;33.08;325;04.07.16.531
12888;170230;33.08;326;04.07.16.531
12872;170234;33.08;327;04.07.16.531
12872;170232;33.08;328;04.07.16.531
12896;170236;33.08;329;04.07.16.542
12892;170234;33.08;330;04.07.16.542
12904;170245;33.08;331;04.07.16.542
12896;170246;33.08;332;04.07.16.542
12896;170246;33.08;333;04.07.16.542
12896;170246;33.08;334;04.07.16.542
12864;170238;33.08;335;04.07.16.542
12928;170252;33.08;336;04.07.16.542
12900;170250;33.08;337;04.07.16.542
12900;170246;33.08;338;04.07.16.542
12872;170259;33.08;339;04.07.16.542
12896;170254;33.08;340;04.07.16.542
12888;170255;33.08;341;04.07.16.542
12892;170261;33.08;342;04.07.16.553
12928;170254;33.08;343;04.07.16.553
12928;170253;33.08;344;04.07.16.553
12876;170255;33.08;345;04.07.16.553
12896;170247;33.08;346;04.07.16.553
12888;170252;33.08;347;04.07.16.553
12860;170246;33.08;348;04.07.16.553
12928;170248;33.08;349;04.07.16.553
12900;170246;33.08;350;04.07.16.674
12892;170248;33.08;351;04.07.16.674
12876;170247;33.08;352;04.07.16.674
12892;170260;33.08;353;04.07.16.674
12916;170260;33.08;354;04.07.16.674
12912;170256;33.08;355;04.07.16.674
12880;170257;33.08;356;04.07.16.674
12908;170254;33.08;357;04.07.16.674
12896;170259;33.08;358;04.07.16.684
12880;170243;33.08;359;04.07.16.684
12896;170240;33.08;360;04.07.16.684
12892;170241;33.08;361;04.07.16.684
12880;170235;33.08;362;04.07.16.684
12912;170221;33.08;363;04.07.16.684
12904;170213;33.08;364;04.07.16.684
12896;170216;33.08;365;04.07.16.684
12876;170211;33.08;366;04.07.16.684
12904;170213;33.08;367;04.07.16.684
12884;170196;33.08;368;04.07.16.684
12880;170200;33.08;369;04.07.16.684
12916;170195;33.08;370;04.07.16.684
12896;170191;33.08;371;04.07.16.684
12920;170197;33.08;372;04.07.16.695
12876;170193;33.08;373;04.07.16.695
12928;170187;33.08;374;04.07.16.695
12904;170188;33.12;375;04.07.16.771
12884;170189;33.12;376;04.07.16.771
12876;170184;33.12;377;04.07.16.771
12928;170180;33.12;378;04.07.16.771
12900;170186;33.12;379;04.07.16.771
12876;170185;33.12;380;04.07.16.771
12876;170177;33.12;381;04.07.16.771
12904;170183;33.12;382;04.07.16.771
12904;170177;33.12;383;04.07.16.771
12864;170175;33.12;384;04.07.16.782
12892;170171;33.12;385;04.07.16.782
12904;170173;33.12;386;04.07.16.782
12876;170189;33.12;387;04.07.16.782
12880;170191;33.12;388;04.07.16.782
12904;170191;33.12;389;04.07.16.782
12888;170201;33.12;390;04.07.16.782
12888;170211;33.12;391;04.07.16.782
12872;170222;33.12;392;04.07.16.782
12904;170234;33.12;393;04.07.16.782
12888;170244;33.12;394;04.07.16.782
12888;170247;33.12;395;04.07.16.782
12880;170245;33.12;396;04.07.16.793
12880;170258;33.12;397;04.07.16.793
12884;170266;33.12;398;04.07.16.793
12900;170272;33.12;399;04.07.16.793
12888;170283;33.12;400;04.07.16.891
12884;170286;33.12;401;04.07.16.891
12876;170299;33.12;402;04.07.16.891
12888;170302;33.12;403;04.07.16.891
12912;170313;33.12;404;04.07.16.891
12912;170310;33.12;405;04.07.16.902
12892;170329;33.12;406;04.07.16.902
12880;170330;33.12;407;04.07.16.902
12896;170342;33.12;408;04.07.16.902
12880;170350;33.12;409;04.07.16.902
12884;170357;33.12;410;04.07.16.902
12884;170367;33.12;411;04.07.16.902
12860;170377;33.12;412;04.07.16.902
12928;170379;33.12;413;04.07.16.902
12892;170388;33.12;414;04.07.16.902
12884;170397;33.12;415;04.07.16.902
12896;170405;33.12;416;04.07.16.902
12900;170411;33.12;417;04.07.16.913
12928;170414;33.12;418;04.07.16.913
12872;170426;33.12;419;04.07.16.913
12904;170434;33.12;420;04.07.16.913
12880;170450;33.12;421;04.07.16.913
12916;170461;33.12;422;04.07.16.913
12876;170471;33.12;423;04.07.16.913
12896;170473;33.12;424;04.07.16.913
12896;170485;33.04;425;04.07.17.033
12912;170492;33.04;426;04.07.17.033
12884;170492;33.04;427;04.07.17.033
12872;170503;33.04;428;04.07.17.033
12904;170501;33.04;429;04.07.17.033
12880;170503;33.04;430;04.07.17.033
12864;170507;33.04;431;04.07.17.033
12892;170512;33.04;432;04.07.17.033
12876;170514;33.04;433;04.07.17.033
12892;170518;33.04;434;04.07.17.033
12892;170510;33.04;435;04.07.17.033
12888;170513;33.04;436;04.07.17.033
12876;170516;33.04;437;04.07.17.044
12888;170522;33.04;438;04.07.17.044
12904;170527;33.04;439;04.07.17.044
12884;170527;33.04;440;04.07.17.044
12872;170533;33.04;441;04.07.17.044
12896;170542;33.04;442;04.07.17.044
12904;170550;33.04;443;04.07.17.044
12896;170551;33.04;444;04.07.17.044
12896;170561;33.04;445;04.07.17.044
12928;170567;33.04;446;04.07.17.044
12896;170567;33.04;447;04.07.17.044
12880;170577;33.04;448;04.07.17.044
12928;170584;33.04;449;04.07.17.044
12900;170591;33.04;450;04.07.17.142
12872;170607;33.04;451;04.07.17.142
12868;170611;33.04;452;04.07.17.142
12880;170617;33.04;453;04.07.17.142
12860;170629;33.04;454;04.07.17.142
12880;170642;33.04;455;04.07.17.142
12888;170639;33.04;456;04.07.17.142
12880;170650;33.04;457;04.07.17.142
12900;170657;33.04;458;04.07.17.153
12904;170653;33.04;459;04.07.17.153
12888;170655;33.04;460;04.07.17.153
12892;170666;33.04;461;04.07.17.153
12888;170669;33.04;462;04.07.17.153
12908;170672;33.04;463;04.07.17.153
12904;170677;33.04;464;04.07.17.153
12892;170660;33.04;465;04.07.17.153
12900;170672;33.04;466;04.07.17.153
12912;170665;33.04;467;04.07.17.164
12884;170680;33.04;468;04.07.17.164
12888;170683;33.04;469;04.07.17.164
12896;170679;33.04;470;04.07.17.164
12892;170680;33.04;471;04.07.17.164
12884;170681;33.04;472;04.07.17.164
12880;170683;33.04;473;04.07.17.164
12920;170680;33.04;474;04.07.17.164
12904;170681;33.08;475;04.07.17.263
12900;170670;33.08;476;04.07.17.263
12888;170673;33.08;477;04.07.17.263
12892;170668;33.08;478;04.07.17.263
12920;170662;33.08;479;04.07.17.263
12868;170654;33.08;480;04.07.17.274
12868;170654;33.08;481;04.07.17.274
12884;170647;33.08;482;04.07.17.274
12892;170633;33.08;483;04.07.17.274
12864;170630;33.08;484;04.07.17.274
12908;170627;33.08;485;04.07.17.274
12904;170611;33.08;486;04.07.17.274
12884;170614;33.08;487;04.07.17.274
12880;170605;33.08;488;04.07.17.274
12892;170595;33.08;489;04.07.17.274
12896;170583;33.08;490;04.07.17.274
12888;170572;33.08;491;04.07.17.274
12904;170569;33.08;492;04.07.17.295
12908;170558;33.08;493;04.07.17.295
12920;170549;33.08;494;04.07.17.295
12900;170545;33.08;495;04.07.17.295
12872;170534;33.08;496;04.07.17.306
12900;170525;33.08;497;04.07.17.306
12884;170526;33.08;498;04.07.17.306
12888;170511;33.08;499;04.07.17.306
12860;170508;33.08;500;04.07.17.383
12912;170494;33.08;501;04.07.17.394
12896;170496;33.08;502;04.07.17.394
12896;170495;33.08;503;04.07.17.394
12916;170477;33.08;504;04.07.17.394
12900;170474;33.08;505;04.07.17.394
12876;170473;33.08;506;04.07.17.394
12892;170462;33.08;507;04.07.17.394
12892;170466;33.08;508;04.07.17.394
12900;170457;33.08;509;04.07.17.394
12900;170462;33.08;510;04.07.17.394
12928;170456;33.08;511;04.07.17.394
12884;170453;33.08;512;04.07.17.394
12892;170454;33.08;513;04.07.17.405
12860;170450;33.08;514;04.07.17.405
12892;170442;33.08;515;04.07.17.405
12896;170440;33.08;516;04.07.17.405
12876;170443;33.08;517;04.07.17.405
12892;170431;33.08;518;04.07.17.416
12860;170447;33.08;519;04.07.17.416
12908;170445;33.08;520;04.07.17.416
12904;170431;33.08;521;04.07.17.416
12896;170439;33.08;522;04.07.17.416
12868;170443;33.08;523;04.07.17.416
12876;170449;33.08;524;04.07.17.416
12876;170454;33.08;525;04.07.17.523
12888;170447;33.08;526;04.07.17.523
12884;170448;33.08;527;04.07.17.523
12912;170456;33.08;528;04.07.17.523
12900;170451;33.08;529;04.07.17.523
12876;170455;33.08;530;04.07.17.523
12892;170453;33.08;531;04.07.17.534
12920;170462;33.08;532;04.07.17.534
12904;170458;33.08;533;04.07.17.534
12888;170464;33.08;534;04.07.17.534
12892;170461;33.08;535;04.07.17.534
12868;170465;33.08;536;04.07.17.534
12912;170467;33.08;537;04.07.17.534
12880;170464;33.08;538;04.07.17.534
12884;170470;33.08;539;04.07.17.534
12912;170466;33.08;540;04.07.17.534
12860;170472;33.08;541;04.07.17.534
12876;170473;33.08;542;04.07.17.534
12860;170468;33.08;543;04.07.17.534
12900;170474;33.08;544;04.07.17.545
12868;170466;33.08;545;04.07.17.545
12900;170463;33.08;546;04.07.17.545
12904;170454;33.08;547;04.07.17.545
12876;170451;33.08;548;04.07.17.545
12908;170459;33.08;549;04.07.17.545
12884;170445;33.08;550;04.07.17.676
12872;170447;33.08;551;04.07.17.676
12876;170436;33.08;552;04.07.17.687
12904;170444;33.08;553;04.07.17.687
12896;170426;33.08;554;04.07.17.687
12904;170429;33.08;555;04.07.17.687
12884;170427;33.08;556;04.07.17.687
12892;170418;33.08;557;04.07.17.687
12876;170417;33.08;558;04.07.17.698
12884;170418;33.08;559;04.07.17.698
12844;170419;33.08;560;04.07.17.698
12896;170420;33.08;561;04.07.17.698
12888;170405;33.08;562;04.07.17.698
12900;170407;33.08;563;04.07.17.698
12896;170410;33.08;564;04.07.17.698
12880;170417;33.08;565;04.07.17.698
12916;170417;33.08;566;04.07.17.698
12912;170411;33.08;567;04.07.17.698
12872;170409;33.08;568;04.07.17.698
12892;170408;33.08;569;04.07.17.698
12884;170408;33.08;570;04.07.17.698
12900;170414;33.08;571;04.07.17.698
12896;170409;33.08;572;04.07.17.710
12880;170416;33.08;573;04.07.17.710
12900;170411;33.08;574;04.07.17.710
12888;170418;33.08;575;04.07.17.776
12904;170411;33.08;576;04.07.17.776
12884;170416;33.08;577;04.07.17.776
12888;170414;33.08;578;04.07.17.776
12896;170420;33.08;579;04.07.17.776
12860;170413;33.08;580;04.07.17.776
12916;170412;33.08;581;04.07.17.776
12892;170410;33.08;582;04.07.17.776
12856;170414;33.08;583;04.07.17.787
12876;170413;33.08;584;04.07.17.787
12896;170412;33.08;585;04.07.17.787
12904;170408;33.08;586;04.07.17.787
12904;170406;33.08;587;04.07.17.787
12892;170413;33.08;588;04.07.17.787
12880;170410;33.08;589;04.07.17.787
12884;170408;33.08;590;04.07.17.787
12896;170412;33.08;591;04.07.17.787
12928;170404;33.08;592;04.07.17.787
12892;170410;33.08;593;04.07.17.798
12872;170410;33.08;594;04.07.17.798
12872;170411;33.08;595;04.07.17.798
12920;170406;33.08;596;04.07.17.798
12892;170415;33.08;597;04.07.17.798
12892;170404;33.08;598;04.07.17.798
12900;170414;33.08;599;04.07.17.798
12900;170425;33.08;600;04.07.18.018
12900;170415;33.08;601;04.07.18.018
12900;170422;33.08;602;04.07.18.018
12892;170433;33.08;603;04.07.18.018
12896;170428;33.08;604;04.07.18.018
12884;170434;33.08;605;04.07.18.018
12880;170426;33.08;606;04.07.18.028
12896;170436;33.08;607;04.07.18.028
12900;170427;33.08;608;04.07.18.028
12920;170428;33.08;609;04.07.18.028
12876;170429;33.08;610;04.07.18.028
12880;170436;33.08;611;04.07.18.028
12896;170426;33.08;612;04.07.18.028
12912;170434;33.08;613;04.07.18.028
12908;170436;33.08;614;04.07.18.028
12876;170436;33.08;615;04.07.18.028
12896;170443;33.08;616;04.07.18.028
12912;170443;33.08;617;04.07.18.028
12900;170446;33.08;618;04.07.18.028
12888;170442;33.08;619;04.07.18.039
12900;170444;33.08;620;04.07.18.039
12880;170439;33.08;621;04.07.18.039
12892;170439;33.08;622;04.07.18.039
12880;170435;33.08;623;04.07.18.039
12892;170441;33.08;624;04.07.18.039
12876;170440;33.12;625;04.07.18.138
12880;170438;33.12;626;04.07.18.138
12884;170431;33.12;627;04.07.18.149
12880;170427;33.12;628;04.07.18.149
12896;170430;33.12;629;04.07.18.149
12876;170427;33.12;630;04.07.18.149
12912;170427;33.12;631;04.07.18.149
12860;170431;33.12;632;04.07.18.149
12880;170427;33.12;633;04.07.18.149
12896;170426;33.12;634;04.07.18.149
12896;170422;33.12;635;04.07.18.149
12884;170421;33.12;636;04.07.18.149
12904;170427;33.12;637;04.07.18.149
12856;170428;33.12;638;04.07.18.149
12900;170432;33.12;639;04.07.18.149
12896;170426;33.12;640;04.07.18.160
12876;170430;33.12;641;04.07.18.160
12904;170439;33.12;642;04.07.18.160
12884;170435;33.12;643;04.07.18.160
12896;170442;33.12;644;04.07.18.160
12892;170440;33.12;645;04.07.18.160
12904;170441;33.12;646;04.07.18.160
12896;170444;33.12;647;04.07.18.160
12892;170442;33.12;648;04.07.18.160
12928;170436;33.12;649;04.07.18.160
12900;170418;33.04;650;04.07.18.160
12904;170408;33.04;651;04.07.18.171
12896;170414;33.04;652;04.07.18.171
12880;170397;33.04;653;04.07.18.171
12892;170413;33.04;654;04.07.18.171
12884;170405;33.04;655;04.07.18.171
12892;170415;33.04;656;04.07.18.171
12860;170413;33.04;657;04.07.18.171
12928;170403;33.04;658;04.07.18.171
12900;170408;33.04;659;04.07.18.171
12900;170409;33.04;660;04.07.18.171
12884;170403;33.04;661;04.07.18.171
12904;170414;33.04;662;04.07.18.171
12896;170409;33.04;663;04.07.18.171
12900;170420;33.04;664;04.07.18.182
12888;170419;33.04;665;04.07.18.182
12892;170421;33.04;666;04.07.18.182
12876;170417;33.04;667;04.07.18.182
12900;170417;33.04;668;04.07.18.182
12912;170410;33.04;669;04.07.18.182
12928;170405;33.04;670;04.07.18.182
12884;170409;33.04;671;04.07.18.182
12888;170411;33.04;672;04.07.18.182
12904;170416;33.04;673;04.07.18.182
12908;170415;33.04;674;04.07.18.182
d;e;f;04.07.19.432
12892;000978;33.12;675;04.07.19.564
12896;057566;33.12;676;04.07.19.564
12904;073922;33.12;677;04.07.19.564
12904;090301;33.12;678;04.07.19.564
12884;106713;33.12;679;04.07.19.564
12896;123107;33.12;680;04.07.19.564
12900;139490;33.12;681;04.07.19.564
12884;155853;33.12;682;04.07.19.564
12908;170897;33.12;683;04.07.19.564
12896;170617;33.12;684;04.07.19.564
12884;170607;33.12;685;04.07.19.564
12868;170602;33.12;686;04.07.19.564
12896;170592;33.12;687;04.07.19.575
12904;170583;33.12;688;04.07.19.575
12876;170569;33.12;689;04.07.19.575
12904;170568;33.12;690;04.07.19.575
12900;170556;33.12;691;04.07.19.575
12876;170547;33.12;692;04.07.19.575
12896;170551;33.12;693;04.07.19.575
12884;170533;33.12;694;04.07.19.575
12888;170526;33.12;695;04.07.19.575
12896;170529;33.12;696;04.07.19.575
12900;170529;33.12;697;04.07.19.575
12884;170531;33.12;698;04.07.19.575
12904;170527;33.12;699;04.07.19.586
12856;170523;33.04;700;04.07.19.684
12892;170525;33.04;701;04.07.19.684
12892;170533;33.04;702;04.07.19.684
12888;170527;33.04;703;04.07.19.684
12900;170524;33.04;704;04.07.19.684
12892;170527;33.04;705;04.07.19.684
12912;170535;33.04;706;04.07.19.684
12928;170525;33.04;707;04.07.19.684
12892;170537;33.04;708;04.07.19.695
12904;170535;33.04;709;04.07.19.695
12892;170533;33.04;710;04.07.19.695
12860;170528;33.04;711;04.07.19.695
12904;170530;33.04;712;04.07.19.695
12916;170537;33.04;713;04.07.19.695
12876;170534;33.04;714;04.07.19.695
12892;170538;33.04;715;04.07.19.695
12868;170538;33.04;716;04.07.19.695
12884;170533;33.04;717;04.07.19.695
12908;170538;33.04;718;04.07.19.695
12900;170540;33.04;719;04.07.19.695
12940;170532;33.04;720;04.07.19.695
12880;170534;33.04;721;04.07.19.706
12916;170535;33.04;722;04.07.19.706
12908;170534;33.04;723;04.07.19.706
12916;170530;33.04;724;04.07.19.706
12884;170535;33.04;725;04.07.19.816
12900;170540;33.04;726;04.07.19.816
12904;170531;33.04;727;04.07.19.816
12860;170535;33.04;728;04.07.19.826
12888;170539;33.04;729;04.07.19.826
12880;170536;33.04;730;04.07.19.826
12884;170532;33.04;731;04.07.19.826
12876;170525;33.04;732;04.07.19.826
12900;170523;33.04;733;04.07.19.826
12880;170523;33.04;734;04.07.19.826
12868;170514;33.04;735;04.07.19.826
12900;170511;33.04;736;04.07.19.826
12896;170506;33.04;737;04.07.19.826
12884;170499;33.04;738;04.07.19.826
12920;170488;33.04;739;04.07.19.826
12888;170489;33.04;740;04.07.19.826
12920;170483;33.04;741;04.07.19.837
12928;170475;33.04;742;04.07.19.837
12876;170477;33.04;743;04.07.19.837
12880;170457;33.04;744;04.07.19.837
12872;170465;33.04;745;04.07.19.837
12940;170466;33.04;746;04.07.19.837
12896;170455;33.04;747;04.07.19.837
12904;170452;33.04;748;04.07.19.837
12908;170443;33.04;749;04.07.19.837
12908;170436;33.08;750;04.07.19.958
12900;170438;33.08;751;04.07.19.958
12860;170441;33.08;752;04.07.19.958
12876;170432;33.08;753;04.07.19.958
12892;170436;33.08;754;04.07.19.958
12904;170421;33.08;755;04.07.19.958
12872;170421;33.08;756;04.07.19.958
12892;170409;33.08;757;04.07.19.958
12912;170421;33.08;758;04.07.19.958
12900;170416;33.08;759;04.07.19.958
12876;170414;33.08;760;04.07.19.958
12904;170415;33.08;761;04.07.19.958
12892;170409;33.08;762;04.07.19.969
12912;170416;33.08;763;04.07.19.969
12900;170406;33.08;764;04.07.19.969
12904;170410;33.08;765;04.07.19.969
12904;170407;33.08;766;04.07.19.969
12888;170403;33.08;767;04.07.19.969
12876;170396;33.08;768;04.07.19.969
12892;170396;33.08;769;04.07.19.969
12884;170397;33.08;770;04.07.19.969
12928;170399;33.08;771;04.07.19.969
12876;170391;33.08;772;04.07.19.969
12892;170401;33.08;773;04.07.19.969
12928;170394;33.08;774;04.07.19.969
12912;170393;33.08;775;04.07.20.067
12888;170398;33.08;776;04.07.20.067
12884;170397;33.08;777;04.07.20.067
12904;170389;33.08;778;04.07.20.067
12884;170394;33.08;779;04.07.20.067
12896;170386;33.08;780;04.07.20.067
12884;170387;33.08;781;04.07.20.067
12872;170383;33.08;782;04.07.20.067
12860;170393;33.08;783;04.07.20.078
12928;170391;33.08;784;04.07.20.078
12876;170392;33.08;785;04.07.20.078
12904;170389;33.08;786;04.07.20.078
12904;170397;33.08;787;04.07.20.078
12912;170386;33.08;788;04.07.20.078
12912;170392;33.08;789;04.07.20.078
12896;170396;33.08;790;04.07.20.078
12892;170404;33.08;791;04.07.20.089
12860;170395;33.08;792;04.07.20.089
12876;170402;33.08;793;04.07.20.089
12876;170392;33.08;794;04.07.20.089
12928;170391;33.08;795;04.07.20.089
12872;170393;33.08;796;04.07.20.089
12888;170382;33.08;797;04.07.20.089
12884;170385;33.08;798;04.07.20.089
12924;170394;33.08;799;04.07.20.089
12880;170390;33.04;800;04.07.20.188
12868;170392;33.04;801;04.07.20.188
12900;170395;33.04;802;04.07.20.188
12848;170398;33.04;803;04.07.20.188
12928;170400;33.04;804;04.07.20.188
12916;170398;33.04;805;04.07.20.199
12888;170401;33.04;806;04.07.20.199
12864;170399;33.04;807;04.07.20.199
12880;170393;33.04;808;04.07.20.199
12928;170399;33.04;809;04.07.20.199
12908;170406;33.04;810;04.07.20.199
12920;170406;33.04;811;04.07.20.199
12932;170400;33.04;812;04.07.20.199
12868;170404;33.04;813;04.07.20.199
12912;170401;33.04;814;04.07.20.199
12896;170400;33.04;815;04.07.20.199
12904;170401;33.04;816;04.07.20.210
12876;170409;33.04;817;04.07.20.210
12888;170399;33.04;818;04.07.20.210
12900;170411;33.04;819;04.07.20.210
12888;170408;33.04;820;04.07.20.210
12892;170409;33.04;821;04.07.20.210
12904;170403;33.04;822;04.07.20.210
12912;170403;33.04;823;04.07.20.210
12896;170407;33.04;824;04.07.20.210
12900;170412;33.04;825;04.07.20.309
12880;170413;33.04;826;04.07.20.320
12904;170420;33.04;827;04.07.20.320
12872;170417;33.04;828;04.07.20.320
12888;170422;33.04;829;04.07.20.320
12888;170419;33.04;830;04.07.20.320
12884;170428;33.04;831;04.07.20.320
12884;170435;33.04;832;04.07.20.320
12912;170426;33.04;833;04.07.20.320
12908;170428;33.04;834;04.07.20.320
12904;170429;33.04;835;04.07.20.320
12912;170440;33.04;836;04.07.20.320
12900;170438;33.04;837;04.07.20.320
12884;170437;33.04;838;04.07.20.320
12860;170447;33.04;839;04.07.20.331
12892;170441;33.04;840;04.07.20.331
12884;170443;33.04;841;04.07.20.331
12888;170441;33.04;842;04.07.20.331
12880;170440;33.04;843;04.07.20.331
12880;170447;33.04;844;04.07.20.331
12880;170454;33.04;845;04.07.20.331
12904;170454;33.04;846;04.07.20.331
12912;170449;33.04;847;04.07.20.331
12928;170460;33.04;848;04.07.20.331
12900;170451;33.04;849;04.07.20.331
12856;170453;33.08;850;04.07.20.451
12920;170457;33.08;851;04.07.20.451
12876;170460;33.08;852;04.07.20.451
12892;170457;33.08;853;04.07.20.451
12884;170467;33.08;854;04.07.20.451
12888;170470;33.08;855;04.07.20.451
12896;170471;33.08;856;04.07.20.451
12868;170477;33.08;857;04.07.20.451
12888;170480;33.08;858;04.07.20.451
12896;170473;33.08;859;04.07.20.451
12928;170468;33.08;860;04.07.20.462
12908;170474;33.08;861;04.07.20.462
12908;170488;33.08;862;04.07.20.462
12864;170480;33.08;863;04.07.20.462
12892;170476;33.08;864;04.07.20.462
12892;170477;33.08;865;04.07.20.462
12896;170480;33.08;866;04.07.20.462
12884;170482;33.08;867;04.07.20.462
12888;170485;33.08;868;04.07.20.462
12864;170478;33.08;869;04.07.20.462
12876;170490;33.08;870;04.07.20.462
12896;170489;33.08;871;04.07.20.462
12892;170487;33.08;872;04.07.20.462
12908;170489;33.08;873;04.07.20.473
12892;170488;33.08;874;04.07.20.473
12892;170482;33.08;875;04.07.20.561
12904;170487;33.08;876;04.07.20.561
12928;170490;33.08;877;04.07.20.561
12892;170489;33.08;878;04.07.20.561
12896;170484;33.08;879;04.07.20.561
12892;170485;33.08;880;04.07.20.561
12892;170479;33.08;881;04.07.20.561
12880;170481;33.08;882;04.07.20.572
12916;170475;33.08;883;04.07.20.572
12888;170474;33.08;884;04.07.20.572
12900;170471;33.08;885;04.07.20.572
12892;170475;33.08;886;04.07.20.572
12900;170457;33.08;887;04.07.20.572
12884;170465;33.08;888;04.07.20.572
12896;170458;33.08;889;04.07.20.572
12928;170452;33.08;890;04.07.20.572
12892;170445;33.08;891;04.07.20.572
12904;170450;33.08;892;04.07.20.583
12888;170439;33.08;893;04.07.20.583
12892;170433;33.08;894;04.07.20.583
12892;170435;33.08;895;04.07.20.583
12888;170424;33.08;896;04.07.20.583
12924;170427;33.08;897;04.07.20.583
12884;170426;33.08;898;04.07.20.583
12904;170425;33.08;899;04.07.20.594
12916;170417;33.04;900;04.07.20.682
12916;170423;33.04;901;04.07.20.682
12888;170411;33.04;902;04.07.20.682
12896;170409;33.04;903;04.07.20.693
12892;170410;33.04;904;04.07.20.693
12892;170400;33.04;905;04.07.20.693
12872;170401;33.04;906;04.07.20.693
12892;170403;33.04;907;04.07.20.693
12896;170406;33.04;908;04.07.20.693
12896;170401;33.04;909;04.07.20.693
12896;170404;33.04;910;04.07.20.693
12880;170409;33.04;911;04.07.20.693
12928;170402;33.04;912;04.07.20.693
12860;170410;33.04;913;04.07.20.693
12884;170401;33.04;914;04.07.20.693
12876;170396;33.04;915;04.07.20.693
12876;170401;33.04;916;04.07.20.704
12880;170401;33.04;917;04.07.20.704
12900;170400;33.04;918;04.07.20.704
12892;170402;33.04;919;04.07.20.704
12896;170393;33.04;920;04.07.20.704
12884;170395;33.04;921;04.07.20.704
12880;170395;33.04;922;04.07.20.704
12860;170398;33.04;923;04.07.20.704
12904;170399;33.04;924;04.07.20.704
12892;170405;33.04;925;04.07.20.824
12884;170398;33.04;926;04.07.20.824
12868;170403;33.04;927;04.07.20.824
12888;170398;33.04;928;04.07.20.824
12892;170399;33.04;929;04.07.20.824
12908;170403;33.04;930;04.07.20.824
12916;170396;33.04;931;04.07.20.824
12884;170406;33.04;932;04.07.20.824
12900;170414;33.04;933;04.07.20.824
12896;170405;33.04;934;04.07.20.824
12892;170404;33.04;935;04.07.20.824
12884;170406;33.04;936;04.07.20.824
12876;170404;33.04;937;04.07.20.835
12876;170400;33.04;938;04.07.20.835
12860;170404;33.04;939;04.07.20.835
12900;170407;33.04;940;04.07.20.835
12868;170404;33.04;941;04.07.20.835
12928;170404;33.04;942;04.07.20.835
12892;170409;33.04;943;04.07.20.835
12892;170414;33.04;944;04.07.20.835
12888;170405;33.04;945;04.07.20.835
12888;170399;33.04;946;04.07.20.835
12916;170407;33.04;947;04.07.20.835
12892;170403;33.04;948;04.07.20.835
12896;170407;33.04;949;04.07.20.835
12904;170406;33.04;950;04.07.20.956
12904;170404;33.04;951;04.07.20.956
12928;170398;33.04;952;04.07.20.956
12916;170404;33.04;953;04.07.20.956
12884;170403;33.04;954;04.07.20.956
12888;170407;33.04;955;04.07.20.956
12896;170398;33.04;956;04.07.20.956
12896;170397;33.04;957;04.07.20.956
12916;170411;33.04;958;04.07.20.967
12884;170402;33.04;959;04.07.20.967
12880;170402;33.04;960;04.07.20.967
12884;170413;33.04;961;04.07.20.967
12920;170411;33.04;962;04.07.20.967
12892;170411;33.04;963;04.07.20.967
12892;170407;33.04;964;04.07.20.967
12904;170408;33.04;965;04.07.20.967
12884;170417;33.04;966;04.07.20.967
12876;170412;33.04;967;04.07.20.967
12908;170417;33.04;968;04.07.20.967
12900;170404;33.04;969;04.07.20.967
12884;170412;33.04;970;04.07.20.967
12876;170411;33.04;971;04.07.20.967
12892;170405;33.04;972;04.07.20.978
12900;170417;33.04;973;04.07.20.978
12920;170413;33.04;974;04.07.20.978
12880;170418;33.04;975;04.07.21.088
12896;170418;33.04;976;04.07.21.088
12900;170425;33.04;977;04.07.21.088
12908;170419;33.04;978;04.07.21.088
12908;170423;33.04;979;04.07.21.088
12892;170426;33.04;980;04.07.21.099
12912;170433;33.04;981;04.07.21.099
12920;170435;33.04;982;04.07.21.099
12880;170427;33.04;983;04.07.21.099
12892;170443;33.04;984;04.07.21.099
12900;170432;33.04;985;04.07.21.099
12904;170438;33.04;986;04.07.21.099
12896;170442;33.04;987;04.07.21.099
12888;170446;33.04;988;04.07.21.099
12900;170443;33.04;989;04.07.21.099
12884;170454;33.04;990;04.07.21.099
12912;170451;33.04;991;04.07.21.099
12928;170452;33.04;992;04.07.21.099
12912;170463;33.04;993;04.07.21.110
12892;170459;33.04;994;04.07.21.110
12908;170466;33.04;995;04.07.21.110
12904;170463;33.04;996;04.07.21.110
12928;170468;33.04;997;04.07.21.110
12900;170468;33.04;998;04.07.21.110
12932;170477;33.04;999;04.07.21.110
12884;170473;33.04;000;04.07.21.186
12900;170481;33.04;001;04.07.21.186
12888;170489;33.04;002;04.07.21.197
12912;170487;33.04;003;04.07.21.197
12884;170493;33.04;004;04.07.21.197
12884;170490;33.04;005;04.07.21.197
12876;170498;33.04;006;04.07.21.197
12884;170505;33.04;007;04.07.21.197
12900;170510;33.04;008;04.07.21.197
12892;170508;33.04;009;04.07.21.197
12904;170506;33.04;010;04.07.21.197
12888;170515;33.04;011;04.07.21.197
12892;170515;33.04;012;04.07.21.197
12908;170512;33.04;013;04.07.21.197
12916;170512;33.04;014;04.07.21.197
12912;170520;33.04;015;04.07.21.208
12904;170525;33.04;016;04.07.21.208
12912;170533;33.04;017;04.07.21.219
12916;170522;33.04;018;04.07.21.230
12892;170523;33.04;019;04.07.21.230
12896;170527;33.04;020;04.07.21.230
12892;170532;33.04;021;04.07.21.230
12892;170533;33.04;022;04.07.21.230
12892;170536;33.04;023;04.07.21.230
12912;170532;33.04;024;04.07.21.230
12912;170535;33.04;025;04.07.21.329
12884;170541;33.04;026;04.07.21.329
12900;170532;33.04;027;04.07.21.329
12912;170536;33.04;028;04.07.21.329
12896;170536;33.04;029;04.07.21.329
12896;170546;33.04;030;04.07.21.329
12884;170542;33.04;031;04.07.21.329
12916;170549;33.04;032;04.07.21.329
12884;170551;33.04;033;04.07.21.362
12904;170546;33.04;034;04.07.21.362
12896;170552;33.04;035;04.07.21.362
12920;170551;33.04;036;04.07.21.362
12908;170550;33.04;037;04.07.21.362
12884;170555;33.04;038;04.07.21.362
12888;170555;33.04;039;04.07.21.362
12900;170558;33.04;040;04.07.21.362
12876;170554;33.04;041;04.07.21.362
12892;170550;33.04;042;04.07.21.362
12860;170556;33.04;043;04.07.21.362
12872;170560;33.04;044;04.07.21.373
12884;170567;33.04;045;04.07.21.373
12880;170552;33.04;046;04.07.21.373
12892;170556;33.04;047;04.07.21.373
12876;170565;33.04;048;04.07.21.373
12900;170561;33.04;049;04.07.21.373
12872;170562;33.04;050;04.07.21.460
12888;170552;33.04;051;04.07.21.460
12892;170568;33.04;052;04.07.21.460
12900;170564;33.04;053;04.07.21.460
12880;170571;33.04;054;04.07.21.460
12896;170575;33.04;055;04.07.21.460
12896;170564;33.04;056;04.07.21.471
12912;170565;33.04;057;04.07.21.471
12908;170566;33.04;058;04.07.21.471
12892;170562;33.04;059;04.07.21.471
12880;170566;33.04;060;04.07.21.471
12908;170569;33.04;061;04.07.21.471
12912;170567;33.04;062;04.07.21.471
12892;170574;33.04;063;04.07.21.471
12880;170576;33.04;064;04.07.21.471
12912;170569;33.04;065;04.07.21.471
12884;170568;33.04;066;04.07.21.471
12876;170565;33.04;067;04.07.21.493
12888;170557;33.04;068;04.07.21.493
12904;170555;33.04;069;04.07.21.493
12860;170545;33.04;070;04.07.21.493
12912;170544;33.04;071;04.07.21.493
12884;170544;33.04;072;04.07.21.493
12888;170537;33.04;073;04.07.21.504
12928;170531;33.04;074;04.07.21.504
12880;170525;33.04;075;04.07.21.559
12896;170521;33.04;076;04.07.21.559
12880;170512;33.04;077;04.07.21.559
12908;170513;33.04;078;04.07.21.559
12892;170506;33.04;079;04.07.21.570
12896;170498;33.04;080;04.07.21.570
12888;170491;33.04;081;04.07.21.570
12892;170490;33.04;082;04.07.21.570
12928;170479;33.04;083;04.07.21.581
12900;170474;33.04;084;04.07.21.581
12900;170478;33.04;085;04.07.21.592
12908;170472;33.04;086;04.07.21.592
12880;170471;33.04;087;04.07.21.592
12904;170459;33.04;088;04.07.21.592
12908;170461;33.04;089;04.07.21.592
12880;170452;33.04;090;04.07.21.592
12900;170454;33.04;091;04.07.21.592
12908;170458;33.04;092;04.07.21.592
12900;170452;33.04;093;04.07.21.592
12888;170453;33.04;094;04.07.21.592
12892;170442;33.04;095;04.07.21.592
12888;170447;33.04;096;04.07.21.592
12904;170445;33.04;097;04.07.21.592
12932;170447;33.04;098;04.07.21.592
12932;170435;33.04;099;04.07.21.603
12904;170443;33.04;100;04.07.21.723
12904;170443;33.04;101;04.07.21.723
12904;170440;33.04;102;04.07.21.723
12896;170438;33.04;103;04.07.21.723
12900;170437;33.04;104;04.07.21.723
12876;170440;33.04;105;04.07.21.723
12924;170426;33.04;106;04.07.21.723
12928;170427;33.04;107;04.07.21.723
12904;170431;33.04;108;04.07.21.734
12892;170432;33.04;109;04.07.21.734
12888;170427;33.04;110;04.07.21.734
12888;170429;33.04;111;04.07.21.734
12912;170420;33.04;112;04.07.21.734
12896;170427;33.04;113;04.07.21.734
12892;170429;33.04;114;04.07.21.734
12860;170423;33.04;115;04.07.21.734
12872;170418;33.04;116;04.07.21.734
12888;170419;33.04;117;04.07.21.734
12888;170426;33.04;118;04.07.21.734
12896;170428;33.04;119;04.07.21.745
12888;170429;33.04;120;04.07.21.745
12888;170426;33.04;121;04.07.21.745
12912;170432;33.04;122;04.07.21.745
12904;170436;33.04;123;04.07.21.745
12876;170432;33.04;124;04.07.21.745
12916;170430;33.04;125;04.07.21.811
12904;170424;33.04;126;04.07.21.811
12896;170429;33.04;127;04.07.21.811
12888;170428;33.04;128;04.07.21.811
12884;170424;33.04;129;04.07.21.811
12896;170421;33.04;130;04.07.21.811
12860;170415;33.04;131;04.07.21.811
12908;170419;33.04;132;04.07.21.811
12912;170406;33.04;133;04.07.21.822
12884;170412;33.04;134;04.07.21.822
12928;170405;33.04;135;04.07.21.822
12872;170405;33.04;136;04.07.21.822
12892;170395;33.04;137;04.07.21.822
12928;170396;33.04;138;04.07.21.822
12900;170403;33.04;139;04.07.21.822
12884;170392;33.04;140;04.07.21.822
12880;170388;33.04;141;04.07.21.822
12892;170383;33.04;142;04.07.21.822
12928;170391;33.04;143;04.07.21.822
12896;170388;33.04;144;04.07.21.822
12896;170375;33.04;145;04.07.21.822
12912;170388;33.04;146;04.07.21.833
12892;170381;33.04;147;04.07.21.833
12876;170370;33.04;148;04.07.21.833
12928;170374;33.04;149;04.07.21.833
12904;170376;33.04;150;04.07.21.943
12872;170369;33.04;151;04.07.21.943
12868;170369;33.04;152;04.07.21.943
12852;170362;33.04;153;04.07.21.943
12880;170368;33.04;154;04.07.21.954
12908;170369;33.04;155;04.07.21.954
12880;170369;33.04;156;04.07.21.954
12900;170367;33.04;157;04.07.21.954
12908;170363;33.04;158;04.07.21.954
12916;170365;33.04;159;04.07.21.954
12884;170365;33.04;160;04.07.21.954
12876;170361;33.04;161;04.07.21.954
12892;170366;33.04;162;04.07.21.954
12876;170374;33.04;163;04.07.21.954
12892;170364;33.04;164;04.07.21.954
12884;170367;33.04;165;04.07.21.954
12888;170369;33.04;166;04.07.21.954
12888;170374;33.04;167;04.07.21.965
12876;170376;33.04;168;04.07.21.965
12908;170368;33.04;169;04.07.21.965
12912;170370;33.04;170;04.07.21.965
12908;170381;33.04;171;04.07.21.965
12896;170374;33.04;172;04.07.21.965
12928;170382;33.04;173;04.07.21.965
12924;170382;33.04;174;04.07.21.965
12884;170381;33.04;175;04.07.22.074
12860;170382;33.04;176;04.07.22.085
12880;170381;33.04;177;04.07.22.085
12896;170385;33.04;178;04.07.22.085
12944;170393;33.04;179;04.07.22.085
12876;170387;33.04;180;04.07.22.085
12904;170393;33.04;181;04.07.22.085
12888;170379;33.04;182;04.07.22.085
12912;170392;33.04;183;04.07.22.085
12876;170398;33.04;184;04.07.22.085
12916;170388;33.04;185;04.07.22.085
12892;170393;33.04;186;04.07.22.085
12904;170397;33.04;187;04.07.22.085
12892;170400;33.04;188;04.07.22.085
12892;170407;33.04;189;04.07.22.096
12904;170410;33.04;190;04.07.22.096
12884;170403;33.04;191;04.07.22.096
12888;170411;33.04;192;04.07.22.096
12896;170406;33.04;193;04.07.22.096
12904;170414;33.04;194;04.07.22.096
12884;170409;33.04;195;04.07.22.096
12904;170404;33.04;196;04.07.22.096
12892;170415;33.04;197;04.07.22.096
12908;170413;33.04;198;04.07.22.096
12904;170413;33.04;199;04.07.22.096
12888;170417;33.04;200;04.07.22.194
12892;170424;33.04;201;04.07.22.194
12884;170420;33.04;202;04.07.22.194
12912;170427;33.04;203;04.07.22.194
12880;170425;33.04;204;04.07.22.194
12892;170421;33.04;205;04.07.22.194
12928;170421;33.04;206;04.07.22.194
12884;170425;33.04;207;04.07.22.194
12896;170436;33.04;208;04.07.22.205
12908;170430;33.04;209;04.07.22.205
12888;170435;33.04;210;04.07.22.205
12892;170434;33.04;211;04.07.22.205
12896;170426;33.04;212;04.07.22.205
12904;170422;33.04;213;04.07.22.205
12892;170427;33.04;214;04.07.22.205
12880;170434;33.04;215;04.07.22.205
12892;170431;33.04;216;04.07.22.216
12884;170427;33.04;217;04.07.22.216
12892;170426;33.04;218;04.07.22.216
12904;170431;33.04;219;04.07.22.216
12920;170423;33.04;220;04.07.22.216
12908;170429;33.04;221;04.07.22.216
12912;170434;33.04;222;04.07.22.216
12896;170433;33.04;223;04.07.22.216
12920;170444;33.04;224;04.07.22.216
12900;170446;33.04;225;04.07.22.315
12884;170437;33.04;226;04.07.22.315
12888;170449;33.04;227;04.07.22.315
12880;170440;33.04;228;04.07.22.315
12868;170446;33.04;229;04.07.22.315
12896;170448;33.04;230;04.07.22.315
12908;170448;33.04;231;04.07.22.326
12904;170448;33.04;232;04.07.22.326
12936;170448;33.04;233;04.07.22.326
12860;170458;33.04;234;04.07.22.326
12884;170455;33.04;235;04.07.22.326
12884;170459;33.04;236;04.07.22.326
12884;170461;33.04;237;04.07.22.326
12920;170464;33.04;238;04.07.22.326
12892;170467;33.04;239;04.07.22.326
12892;170469;33.04;240;04.07.22.337
12884;170463;33.04;241;04.07.22.337
12860;170475;33.04;242;04.07.22.337
12896;170469;33.04;243;04.07.22.337
12888;170474;33.04;244;04.07.22.337
12912;170472;33.04;245;04.07.22.337
12884;170470;33.04;246;04.07.22.337
12872;170466;33.04;247;04.07.22.337
12904;170469;33.04;248;04.07.22.337
12916;170473;33.04;249;04.07.22.337
12892;170388;33.04;250;04.07.22.578
12920;170376;33.04;251;04.07.22.578
12884;170368;33.04;252;04.07.22.578
12884;170373;33.04;253;04.07.22.578
12900;170365;33.04;254;04.07.22.578
12900;170363;33.04;255;04.07.22.578
12888;170368;33.04;256;04.07.22.578
12896;170366;33.04;257;04.07.22.578
12876;170363;33.04;258;04.07.22.578
12896;170362;33.04;259;04.07.22.578
12896;170361;33.04;260;04.07.22.578
12876;170356;33.04;261;04.07.22.589
12880;170345;33.04;262;04.07.22.589
12908;170361;33.04;263;04.07.22.589
12908;170350;33.04;264;04.07.22.589
12884;170350;33.04;265;04.07.22.589
12888;170351;33.04;266;04.07.22.589
12880;170347;33.04;267;04.07.22.589
12880;170347;33.04;268;04.07.22.589
12892;170350;33.04;269;04.07.22.589
12892;170344;33.04;270;04.07.22.589
12900;170342;33.04;271;04.07.22.589
12888;170346;33.04;272;04.07.22.589
12920;170341;33.04;273;04.07.22.589
12928;170351;33.04;274;04.07.22.600
12892;170341;33.04;275;04.07.22.688
12908;170341;33.04;276;04.07.22.688
12904;170339;33.04;277;04.07.22.688
12888;170332;33.04;278;04.07.22.688
12896;170337;33.04;279;04.07.22.688
12912;170327;33.04;280;04.07.22.688
12912;170322;33.04;281;04.07.22.688
12900;170317;33.04;282;04.07.22.688
12884;170320;33.04;283;04.07.22.699
12872;170309;33.04;284;04.07.22.699
12896;170298;33.04;285;04.07.22.699
12888;170295;33.04;286;04.07.22.699
12876;170285;33.04;287;04.07.22.699
12892;170286;33.04;288;04.07.22.699
12904;170275;33.04;289;04.07.22.699
12916;170268;33.04;290;04.07.22.710
12900;170254;33.04;291;04.07.22.710
12888;170246;33.04;292;04.07.22.710
12912;170244;33.04;293;04.07.22.710
12876;170225;33.04;294;04.07.22.710
12892;170224;33.04;295;04.07.22.710
12904;170209;33.04;296;04.07.22.710
12888;170203;33.04;297;04.07.22.710
12896;170194;33.04;298;04.07.22.710
12928;170179;33.04;299;04.07.22.710
12928;170181;33.04;300;04.07.22.808
12908;170165;33.04;301;04.07.22.808
12876;170156;33.04;302;04.07.22.808
12912;170163;33.04;303;04.07.22.819
12896;170148;33.04;304;04.07.22.819
12936;170147;33.04;305;04.07.22.819
12896;170149;33.04;306;04.07.22.819
12868;170139;33.04;307;04.07.22.819
12892;170138;33.04;308;04.07.22.819
12896;170131;33.04;309;04.07.22.819
12892;170126;33.04;310;04.07.22.819
12888;170119;33.04;311;04.07.22.819
12904;170127;33.04;312;04.07.22.819
12892;170120;33.04;313;04.07.22.819
12876;170113;33.04;314;04.07.22.819
12884;170104;33.04;315;04.07.22.819
12884;170101;33.04;316;04.07.22.830
12928;170105;33.04;317;04.07.22.830
12892;170090;33.04;318;04.07.22.830
12884;170095;33.04;319;04.07.22.830
12892;170090;33.04;320;04.07.22.830
12904;170084;33.04;321;04.07.22.830
12868;170076;33.04;322;04.07.22.830
12936;170075;33.04;323;04.07.22.830
12912;170081;33.04;324;04.07.22.830
12904;170072;33.04;325;04.07.22.939
12928;170069;33.04;326;04.07.22.939
12916;170071;33.04;327;04.07.22.939
12908;170069;33.04;328;04.07.22.939
12884;170069;33.04;329;04.07.22.939
12912;170071;33.04;330;04.07.22.939
12860;170074;33.04;331;04.07.22.939
12908;170069;33.04;332;04.07.22.939
12916;170084;33.04;333;04.07.22.950
12900;170080;33.04;334;04.07.22.950
12888;170079;33.04;335;04.07.22.950
12892;170089;33.04;336;04.07.22.950
12904;170087;33.04;337;04.07.22.950
12900;170086;33.04;338;04.07.22.950
12876;170086;33.04;339;04.07.22.950
12924;170087;33.04;340;04.07.22.950
12872;170090;33.04;341;04.07.22.950
12856;170089;33.04;342;04.07.22.950
12896;170101;33.04;343;04.07.22.950
12908;170098;33.04;344;04.07.22.950
12888;170104;33.04;345;04.07.22.961
12872;170097;33.04;346;04.07.22.961
12888;170105;33.04;347;04.07.22.961
12888;170105;33.04;348;04.07.22.961
12912;170106;33.04;349;04.07.22.961
12916;170109;33.08;350;04.07.23.071
12896;170122;33.08;351;04.07.23.071
12892;170115;33.08;352;04.07.23.071
12888;170114;33.08;353;04.07.23.071
12876;170118;33.08;354;04.07.23.071
12884;170118;33.08;355;04.07.23.071
12912;170115;33.08;356;04.07.23.071
12896;170130;33.08;357;04.07.23.071
12880;170122;33.08;358;04.07.23.074
12888;170119;33.08;359;04.07.23.074
12904;170124;33.08;360;04.07.23.074
12888;170129;33.08;361;04.07.23.074
12896;170131;33.08;362;04.07.23.085
12884;170129;33.08;363;04.07.23.085
12900;170139;33.08;364;04.07.23.085
12892;170137;33.08;365;04.07.23.085
12872;170142;33.08;366;04.07.23.085
12884;170143;33.08;367;04.07.23.085
12892;170148;33.08;368;04.07.23.085
12912;170153;33.08;369;04.07.23.085
12892;170149;33.08;370;04.07.23.085
12860;170147;33.08;371;04.07.23.085
12888;170164;33.08;372;04.07.23.085
12880;170148;33.08;373;04.07.23.085
12928;170159;33.08;374;04.07.23.096
12876;170156;33.08;375;04.07.23.205
12896;170165;33.08;376;04.07.23.205
12900;170158;33.08;377;04.07.23.205
12896;170170;33.08;378;04.07.23.205
12884;170171;33.08;379;04.07.23.205
12888;170173;33.08;380;04.07.23.205
12884;170175;33.08;381;04.07.23.205
12900;170180;33.08;382;04.07.23.205
12904;170179;33.08;383;04.07.23.216
12888;170189;33.08;384;04.07.23.216
12892;170179;33.08;385;04.07.23.216
12908;170191;33.08;386;04.07.23.216
12892;170191;33.08;387;04.07.23.216
12872;170193;33.08;388;04.07.23.216
12900;170194;33.08;389;04.07.23.216
12900;170197;33.08;390;04.07.23.216
12912;170198;33.08;391;04.07.23.216
12896;170202;33.08;392;04.07.23.216
12868;170203;33.08;393;04.07.23.216
12920;170211;33.08;394;04.07.23.216
12896;170216;33.08;395;04.07.23.216
12876;170210;33.08;396;04.07.23.227
12872;170212;33.08;397;04.07.23.227
12884;170209;33.08;398;04.07.23.227
12924;170215;33.08;399;04.07.23.227
12900;170209;33.04;400;04.07.23.315
12868;170205;33.04;401;04.07.23.315
12884;170201;33.04;402;04.07.23.315
12888;170201;33.04;403;04.07.23.315
12896;170204;33.04;404;04.07.23.326
12884;170197;33.04;405;04.07.23.326
12896;170200;33.04;406;04.07.23.326
12904;170203;33.04;407;04.07.23.326
12904;170199;33.04;408;04.07.23.326
12876;170192;33.04;409;04.07.23.326
12892;170184;33.04;410;04.07.23.326
12876;170189;33.04;411;04.07.23.337
12884;170178;33.04;412;04.07.23.337
12880;170176;33.04;413;04.07.23.337
12892;170180;33.04;414;04.07.23.337
12904;170182;33.04;415;04.07.23.337
12888;170189;33.04;416;04.07.23.337
12888;170192;33.04;417;04.07.23.337
12892;170180;33.04;418;04.07.23.337
12896;170180;33.04;419;04.07.23.337
12904;170185;33.04;420;04.07.23.337
12868;170188;33.04;421;04.07.23.337
12884;170179;33.04;422;04.07.23.348
12900;170182;33.04;423;04.07.23.348
12920;170193;33.04;424;04.07.23.348
12928;170186;33.04;425;04.07.23.436
12860;170187;33.04;426;04.07.23.447
12876;170188;33.04;427;04.07.23.447
12884;170188;33.04;428;04.07.23.447
12888;170192;33.04;429;04.07.23.447
12912;170190;33.04;430;04.07.23.447
12876;170187;33.04;431;04.07.23.447
12916;170196;33.04;432;04.07.23.447
12864;170195;33.04;433;04.07.23.447
12896;170189;33.04;434;04.07.23.447
12892;170201;33.04;435;04.07.23.447
12884;170193;33.04;436;04.07.23.447
12884;170190;33.04;437;04.07.23.458
12892;170203;33.04;438;04.07.23.458
12896;170201;33.04;439;04.07.23.458
12896;170188;33.04;440;04.07.23.458
12888;170197;33.04;441;04.07.23.458
12888;170200;33.04;442;04.07.23.458
12884;170201;33.04;443;04.07.23.458
12900;170197;33.04;444;04.07.23.458
12872;170199;33.04;445;04.07.23.458
12912;170196;33.04;446;04.07.23.458
12884;170196;33.04;447;04.07.23.458
12884;170194;33.04;448;04.07.23.458
12904;170196;33.04;449;04.07.23.458
12892;170205;33.04;450;04.07.23.569
12892;170204;33.04;451;04.07.23.569
12888;170202;33.04;452;04.07.23.569
12892;170200;33.04;453;04.07.23.569
12880;170206;33.04;454;04.07.23.569
12860;170206;33.04;455;04.07.23.569
12884;170204;33.04;456;04.07.23.569
12912;170206;33.04;457;04.07.23.569
12900;170205;33.04;458;04.07.23.569
12912;170204;33.04;459;04.07.23.569
12908;170197;33.04;460;04.07.23.569
12884;170202;33.04;461;04.07.23.569
12880;170203;33.04;462;04.07.23.580
12876;170200;33.04;463;04.07.23.580
12896;170195;33.04;464;04.07.23.580
12908;170186;33.04;465;04.07.23.580
12928;170189;33.04;466;04.07.23.580
12900;170196;33.04;467;04.07.23.580
12900;170194;33.04;468;04.07.23.580
12888;170197;33.04;469;04.07.23.580
12896;170193;33.04;470;04.07.23.580
12904;170198;33.04;471;04.07.23.580
12900;170196;33.04;472;04.07.23.580
12876;170192;33.04;473;04.07.23.580
12912;170204;33.04;474;04.07.23.580
12904;170192;33.04;475;04.07.23.701
12860;170194;33.04;476;04.07.23.701
12900;170189;33.04;477;04.07.23.701
12892;170186;33.04;478;04.07.23.701
12868;170188;33.04;479;04.07.23.701
12860;170189;33.04;480;04.07.23.701
12892;170192;33.04;481;04.07.23.701
12884;170197;33.04;482;04.07.23.701
12860;170189;33.04;483;04.07.23.712
12880;170194;33.04;484;04.07.23.712
12864;170189;33.04;485;04.07.23.712
12856;170189;33.04;486;04.07.23.712
12888;170189;33.04;487;04.07.23.712
12892;170189;33.04;488;04.07.23.712
12900;170194;33.04;489;04.07.23.712
12908;170191;33.04;490;04.07.23.712
12868;170193;33.04;491;04.07.23.712
12908;170189;33.04;492;04.07.23.712
12912;170196;33.04;493;04.07.23.712
12900;170196;33.04;494;04.07.23.712
12896;170193;33.04;495;04.07.23.712
12880;170200;33.04;496;04.07.23.723
12916;170196;33.04;497;04.07.23.723
12892;170196;33.04;498;04.07.23.723
12904;170203;33.04;499;04.07.23.723
12928;170205;33.04;500;04.07.23.811
12892;170209;33.04;501;04.07.23.811
12876;170199;33.04;502;04.07.23.811
12904;170200;33.04;503;04.07.23.811
12896;170208;33.04;504;04.07.23.811
12920;170208;33.04;505;04.07.23.822
12900;170202;33.04;506;04.07.23.822
12860;170202;33.04;507;04.07.23.822
12928;170203;33.04;508;04.07.23.822
12912;170202;33.04;509;04.07.23.822
12860;170207;33.04;510;04.07.23.822
12884;170211;33.04;511;04.07.23.822
12876;170208;33.04;512;04.07.23.833
12876;170204;33.04;513;04.07.23.833
12904;170207;33.04;514;04.07.23.833
12888;170200;33.04;515;04.07.23.833
12900;170196;33.04;516;04.07.23.833
12880;170199;33.04;517;04.07.23.833
12912;170198;33.04;518;04.07.23.833
12936;170204;33.04;519;04.07.23.833
12896;170200;33.04;520;04.07.23.833
12900;170190;33.04;521;04.07.23.833
12904;170195;33.04;522;04.07.23.833
12932;170192;33.04;523;04.07.23.833
12892;170187;33.04;524;04.07.23.833
12920;170184;33.04;525;04.07.23.931
12928;170192;33.04;526;04.07.23.942
12920;170185;33.04;527;04.07.23.942
12916;170182;33.04;528;04.07.23.942
12904;170182;33.04;529;04.07.23.942
12892;170190;33.04;530;04.07.23.942
12888;170181;33.04;531;04.07.23.942
12904;170184;33.04;532;04.07.23.942
12896;170186;33.04;533;04.07.23.942
12928;170183;33.04;534;04.07.23.942
12928;170181;33.04;535;04.07.23.942
12904;170185;33.04;536;04.07.23.942
12928;170183;33.04;537;04.07.23.942
12896;170181;33.04;538;04.07.23.942
12920;170186;33.04;539;04.07.23.953
12892;170184;33.04;540;04.07.23.953
12912;170181;33.04;541;04.07.23.953
12892;170175;33.04;542;04.07.23.953
12888;170179;33.04;543;04.07.23.953
12920;170183;33.04;544;04.07.23.953
12912;170178;33.04;545;04.07.23.953
12920;170188;33.04;546;04.07.23.953
12912;170181;33.04;547;04.07.23.953
12892;170180;33.04;548;04.07.23.953
12896;170185;33.04;549;04.07.23.953
12904;170181;33.04;550;04.07.24.073
12916;170187;33.04;551;04.07.24.073
12904;170183;33.04;552;04.07.24.073
12888;170187;33.04;553;04.07.24.073
12904;170187;33.04;554;04.07.24.073
12912;170187;33.04;555;04.07.24.073
12900;170188;33.04;556;04.07.24.073
12904;170197;33.04;557;04.07.24.073
12892;170203;33.04;558;04.07.24.073
12896;170208;33.04;559;04.07.24.073
12928;170201;33.04;560;04.07.24.084
12920;170198;33.04;561;04.07.24.084
12888;170195;33.04;562;04.07.24.084
12880;170192;33.04;563;04.07.24.084
12884;170195;33.04;564;04.07.24.084
12916;170193;33.04;565;04.07.24.084
12900;170189;33.04;566;04.07.24.084
12904;170186;33.04;567;04.07.24.084
12920;170181;33.04;568;04.07.24.084
12916;170173;33.04;569;04.07.24.084
12908;170170;33.04;570;04.07.24.084
12884;170167;33.04;571;04.07.24.084
12896;170173;33.04;572;04.07.24.084
12904;170167;33.04;573;04.07.24.095
12908;170161;33.04;574;04.07.24.095
12900;170160;33.04;575;04.07.24.194
12884;170159;33.04;576;04.07.24.194
12860;170150;33.04;577;04.07.24.194
12860;170145;33.04;578;04.07.24.194
12864;170143;33.04;579;04.07.24.194
12868;170143;33.04;580;04.07.24.194
12872;170135;33.04;581;04.07.24.194
12892;170145;33.04;582;04.07.24.205
12896;170144;33.04;583;04.07.24.205
12900;170141;33.04;584;04.07.24.205
12880;170147;33.04;585;04.07.24.205
12904;170138;33.04;586;04.07.24.205
12860;170136;33.04;587;04.07.24.205
12892;170140;33.04;588;04.07.24.205
12884;170138;33.04;589;04.07.24.205
12880;170148;33.04;590;04.07.24.205
12912;170140;33.04;591;04.07.24.205
12876;170146;33.04;592;04.07.24.205
12888;170148;33.04;593;04.07.24.205
12896;170149;33.04;594;04.07.24.216
12852;170152;33.04;595;04.07.24.216
12880;170146;33.04;596;04.07.24.216
12900;170147;33.04;597;04.07.24.216
12884;170154;33.04;598;04.07.24.216
12920;170160;33.04;599;04.07.24.216
12896;170149;33.04;600;04.07.24.326
12904;170160;33.04;601;04.07.24.326
12876;170158;33.04;602;04.07.24.337
12896;170155;33.04;603;04.07.24.337
12888;170155;33.04;604;04.07.24.337
12892;170156;33.04;605;04.07.24.337
12900;170157;33.04;606;04.07.24.337
12884;170158;33.04;607;04.07.24.337
12880;170161;33.04;608;04.07.24.337
12896;170165;33.04;609;04.07.24.337
12904;170163;33.04;610;04.07.24.337
12884;170165;33.04;611;04.07.24.337
12904;170169;33.04;612;04.07.24.337
12880;170172;33.04;613;04.07.24.337
12904;170177;33.04;614;04.07.24.337
12896;170184;33.04;615;04.07.24.348
12900;170188;33.04;616;04.07.24.348
12936;170182;33.04;617;04.07.24.348
12908;170191;33.04;618;04.07.24.348
12912;170185;33.04;619;04.07.24.348
12892;170187;33.04;620;04.07.24.348
12872;170190;33.04;621;04.07.24.348
12904;170189;33.04;622;04.07.24.348
12896;170184;33.04;623;04.07.24.348
12904;170191;33.04;624;04.07.24.348
12892;170192;33.04;625;04.07.24.446
12896;170193;33.04;626;04.07.24.446
12904;170195;33.04;627;04.07.24.446
12900;170206;33.04;628;04.07.24.446
12920;170195;33.04;629;04.07.24.446
12908;170201;33.04;630;04.07.24.446
12880;170212;33.04;631;04.07.24.446
12876;170210;33.04;632;04.07.24.446
12900;170215;33.04;633;04.07.24.479
12888;170213;33.04;634;04.07.24.479
12900;170216;33.04;635;04.07.24.479
12880;170209;33.04;636;04.07.24.479
12900;170214;33.04;637;04.07.24.479
12892;170226;33.04;638;04.07.24.479
12912;170223;33.04;639;04.07.24.479
12860;170225;33.04;640;04.07.24.479
12892;170224;33.04;641;04.07.24.479
12876;170231;33.04;642;04.07.24.479
12904;170228;33.04;643;04.07.24.479
12876;170233;33.04;644;04.07.24.490
12908;170245;33.04;645;04.07.24.490
12872;170244;33.04;646;04.07.24.490
12876;170245;33.04;647;04.07.24.490
12888;170255;33.04;648;04.07.24.490
12912;170259;33.04;649;04.07.24.490
12888;170269;33.04;650;04.07.24.567
12888;170267;33.04;651;04.07.24.567
12876;170264;33.04;652;04.07.24.567
12864;170272;33.04;653;04.07.24.567
12908;170287;33.04;654;04.07.24.567
12888;170284;33.04;655;04.07.24.567
12876;170292;33.04;656;04.07.24.567
12904;170302;33.04;657;04.07.24.567
12904;170299;33.04;658;04.07.24.578
12892;170303;33.04;659;04.07.24.578
12880;170305;33.04;660;04.07.24.578
12884;170306;33.04;661;04.07.24.578
12888;170303;33.04;662;04.07.24.578
12888;170312;33.04;663;04.07.24.578
12876;170315;33.04;664;04.07.24.578
12884;170321;33.04;665;04.07.24.578
12900;170320;33.04;666;04.07.24.578
12892;170322;33.04;667;04.07.24.589
12904;170328;33.04;668;04.07.24.589
12912;170333;33.04;669;04.07.24.589
12892;170336;33.04;670;04.07.24.589
12904;170330;33.04;671;04.07.24.589
12884;170332;33.04;672;04.07.24.589
12900;170333;33.04;673;04.07.24.589
12936;170337;33.04;674;04.07.24.589
12880;170346;33.04;675;04.07.24.698
12892;170350;33.04;676;04.07.24.698
12876;170348;33.04;677;04.07.24.698
12904;170356;33.04;678;04.07.24.698
12884;170353;33.04;679;04.07.24.709
12896;170366;33.04;680;04.07.24.709
12900;170368;33.04;681;04.07.24.709
12876;170375;33.04;682;04.07.24.709
12876;170384;33.04;683;04.07.24.709
12892;170385;33.04;684;04.07.24.709
12888;170395;33.04;685;04.07.24.709
12880;170402;33.04;686;04.07.24.709
12904;170395;33.04;687;04.07.24.709
12912;170401;33.04;688;04.07.24.709
12892;170406;33.04;689;04.07.24.709
12876;170404;33.04;690;04.07.24.709
12892;170417;33.04;691;04.07.24.709
12904;170419;33.04;692;04.07.24.721
12876;170423;33.04;693;04.07.24.721
12872;170428;33.04;694;04.07.24.721
12908;170427;33.04;695;04.07.24.721
12900;170429;33.04;696;04.07.24.721
12908;170428;33.04;697;04.07.24.721
12900;170437;33.04;698;04.07.24.721
12892;170446;33.04;699;04.07.24.721
12888;170441;33.04;700;04.07.24.830
12888;170438;33.04;701;04.07.24.841
12876;170434;33.04;702;04.07.24.841
12896;170439;33.04;703;04.07.24.841
12900;170447;33.04;704;04.07.24.841
12884;170439;33.04;705;04.07.24.841
12876;170446;33.04;706;04.07.24.841
12884;170441;33.04;707;04.07.24.841
12928;170450;33.04;708;04.07.24.841
12888;170444;33.04;709;04.07.24.852
12876;170453;33.04;710;04.07.24.852
12928;170454;33.04;711;04.07.24.852
12888;170452;33.04;712;04.07.24.852
12908;170452;33.04;713;04.07.24.852
12912;170454;33.04;714;04.07.24.852
12884;170451;33.04;715;04.07.24.852
12880;170456;33.04;716;04.07.24.852
12892;170460;33.04;717;04.07.24.852
12880;170447;33.04;718;04.07.24.852
12892;170448;33.04;719;04.07.24.852
12860;170456;33.04;720;04.07.24.852
12872;170448;33.04;721;04.07.24.863
12888;170443;33.04;722;04.07.24.863
12880;170445;33.04;723;04.07.24.863
12896;170441;33.04;724;04.07.24.863
12888;170444;33.04;725;04.07.24.940
12920;170436;33.04;726;04.07.24.940
12884;170427;33.04;727;04.07.24.940
12880;170430;33.04;728;04.07.24.940
12900;170427;33.04;729;04.07.24.940
12912;170427;33.04;730;04.07.24.940
12912;170423;33.04;731;04.07.24.940
12880;170420;33.04;732;04.07.24.940
12912;170417;33.04;733;04.07.24.951
12908;170414;33.04;734;04.07.24.951
12908;170409;33.04;735;04.07.24.951
12896;170421;33.04;736;04.07.24.951
12876;170406;33.04;737;04.07.24.951
12904;170409;33.04;738;04.07.24.951
12888;170413;33.04;739;04.07.24.951
12908;170411;33.04;740;04.07.24.951
12888;170410;33.04;741;04.07.24.951
12888;170414;33.04;742;04.07.24.973
12876;170407;33.04;743;04.07.24.973
12892;170403;33.04;744;04.07.24.973
12904;170400;33.04;745;04.07.24.973
12900;170396;33.04;746;04.07.24.973
12876;170392;33.04;747;04.07.24.973
12876;170403;33.04;748;04.07.24.973
12868;170396;33.04;749;04.07.24.973
12872;170391;33.04;750;04.07.25.061
12896;170381;33.04;751;04.07.25.061
12888;170390;33.04;752;04.07.25.061
12892;170381;33.04;753;04.07.25.061
12884;170378;33.04;754;04.07.25.061
12876;170374;33.04;755;04.07.25.061
12888;170372;33.04;756;04.07.25.072
12876;170358;33.04;757;04.07.25.072
12912;170361;33.04;758;04.07.25.072
12860;170354;33.04;759;04.07.25.072
12896;170350;33.04;760;04.07.25.072
12892;170344;33.04;761;04.07.25.072
12896;170328;33.04;762;04.07.25.072
12896;170317;33.04;763;04.07.25.072
12880;170318;33.04;764;04.07.25.072
12912;170320;33.04;765;04.07.25.072
12896;170300;33.04;766;04.07.25.072
12912;170295;33.04;767;04.07.25.083
12876;170291;33.04;768;04.07.25.083
12884;170285;33.04;769;04.07.25.083
12892;170279;33.04;770;04.07.25.083
12900;170278;33.04;771;04.07.25.083
12900;170261;33.04;772;04.07.25.083
12908;170253;33.04;773;04.07.25.083
12876;170240;33.04;774;04.07.25.094
12884;170229;33.04;775;04.07.25.197
12900;170222;33.04;776;04.07.25.197
12884;170207;33.04;777;04.07.25.197
12928;170204;33.04;778;04.07.25.197
12912;170189;33.04;779;04.07.25.197
12868;170175;33.04;780;04.07.25.197
12912;170168;33.04;781;04.07.25.197
12904;170156;33.04;782;04.07.25.197
12884;170153;33.04;783;04.07.25.197
12892;170131;33.04;784;04.07.25.208
12888;170129;33.04;785;04.07.25.208
12872;170116;33.04;786;04.07.25.208
12880;170102;33.04;787;04.07.25.208
12896;170102;33.04;788;04.07.25.208
12880;170093;33.04;789;04.07.25.208
12900;170088;33.04;790;04.07.25.208
12856;170084;33.04;791;04.07.25.208
12912;170080;33.04;792;04.07.25.208
12880;170062;33.04;793;04.07.25.208
12896;170054;33.04;794;04.07.25.208
12904;170045;33.04;795;04.07.25.208
12880;170037;33.04;796;04.07.25.208
12892;170033;33.04;797;04.07.25.219
12892;170016;33.04;798;04.07.25.219
12888;170021;33.04;799;04.07.25.219
12892;170009;33.04;800;04.07.25.329
12876;170008;33.04;801;04.07.25.329
12892;170004;33.04;802;04.07.25.329
12884;169989;33.04;803;04.07.25.329
12888;169990;33.04;804;04.07.25.329
12896;169986;33.04;805;04.07.25.340
12884;169976;33.04;806;04.07.25.340
12916;169963;33.04;807;04.07.25.340
12884;169961;33.04;808;04.07.25.340
12896;169949;33.04;809;04.07.25.340
12880;169951;33.04;810;04.07.25.340
12868;169943;33.04;811;04.07.25.340
12900;169937;33.04;812;04.07.25.340
12928;169929;33.04;813;04.07.25.340
12884;169914;33.04;814;04.07.25.340
12912;169909;33.04;815;04.07.25.340
12912;169903;33.04;816;04.07.25.340
12892;169901;33.04;817;04.07.25.340
12888;169887;33.04;818;04.07.25.351
12872;169884;33.04;819;04.07.25.351
12884;169877;33.04;820;04.07.25.351
12888;169862;33.04;821;04.07.25.351
12888;169860;33.04;822;04.07.25.351
12912;169859;33.04;823;04.07.25.351
12876;169851;33.04;824;04.07.25.351
12896;169853;33.04;825;04.07.25.438
12876;169839;33.04;826;04.07.25.449
12884;169844;33.04;827;04.07.25.449
12880;169848;33.04;828;04.07.25.449
12896;169851;33.04;829;04.07.25.449
12880;169851;33.04;830;04.07.25.449
12908;169844;33.04;831;04.07.25.449
12900;169847;33.04;832;04.07.25.449
12880;169847;33.04;833;04.07.25.460
12904;169845;33.04;834;04.07.25.471
12912;169855;33.04;835;04.07.25.471
12892;169851;33.04;836;04.07.25.471
12880;169845;33.04;837;04.07.25.471
12876;169854;33.04;838;04.07.25.471
12924;169850;33.04;839;04.07.25.471
12896;169861;33.04;840;04.07.25.471
12884;169863;33.04;841;04.07.25.471
12928;169855;33.04;842;04.07.25.471
12880;169859;33.04;843;04.07.25.471
12892;169862;33.04;844;04.07.25.471
12884;169868;33.04;845;04.07.25.471
12884;169856;33.04;846;04.07.25.471
12900;169867;33.04;847;04.07.25.482
12884;169864;33.04;848;04.07.25.482
12916;169874;33.04;849;04.07.25.482
12884;169872;33.04;850;04.07.25.581
12876;169876;33.04;851;04.07.25.581
12896;169880;33.04;852;04.07.25.581
12868;169879;33.04;853;04.07.25.581
12888;169892;33.04;854;04.07.25.581
12912;169891;33.04;855;04.07.25.581
12892;169891;33.04;856;04.07.25.581
12888;169890;33.04;857;04.07.25.581
12900;169891;33.04;858;04.07.25.603
12928;169900;33.04;859;04.07.25.603
12888;169902;33.04;860;04.07.25.603
12908;169898;33.04;861;04.07.25.603
12900;169901;33.04;862;04.07.25.603
12928;169904;33.04;863;04.07.25.603
12892;169898;33.04;864;04.07.25.603
12900;169906;33.04;865;04.07.25.603
12892;169902;33.04;866;04.07.25.603
12916;169894;33.04;867;04.07.25.603
12912;169895;33.04;868;04.07.25.614
12872;169896;33.04;869;04.07.25.614
12872;169890;33.04;870;04.07.25.614
12928;169892;33.04;871;04.07.25.614
12888;169894;33.04;872;04.07.25.614
12868;169888;33.04;873;04.07.25.614
12912;169889;33.04;874;04.07.25.614
12872;169894;33.04;875;04.07.25.690
12880;169888;33.04;876;04.07.25.690
12900;169885;33.04;877;04.07.25.690
12892;169888;33.04;878;04.07.25.690
12912;169888;33.04;879;04.07.25.690
12892;169889;33.04;880;04.07.25.701
12860;169892;33.04;881;04.07.25.701
12888;169891;33.04;882;04.07.25.701
12892;169892;33.04;883;04.07.25.701
12892;169892;33.04;884;04.07.25.701
12872;169895;33.04;885;04.07.25.701
12912;169900;33.04;886;04.07.25.701
12884;169897;33.04;887;04.07.25.701
12896;169913;33.04;888;04.07.25.701
12900;169912;33.04;889;04.07.25.701
12912;169909;33.04;890;04.07.25.701
12892;169909;33.04;891;04.07.25.701
12888;169914;33.04;892;04.07.25.701
12896;169921;33.04;893;04.07.25.712
12884;169927;33.04;894;04.07.25.712
12892;169924;33.04;895;04.07.25.712
12876;169919;33.04;896;04.07.25.712
12904;169927;33.04;897;04.07.25.712
12904;169930;33.04;898;04.07.25.712
12892;169944;33.04;899;04.07.25.712
12896;169948;33.04;900;04.07.25.832
12900;169946;33.04;901;04.07.25.843
12892;169958;33.04;902;04.07.25.843
12928;169953;33.04;903;04.07.25.843
12880;169968;33.04;904;04.07.25.843
12900;169957;33.04;905;04.07.25.843
12904;169957;33.04;906;04.07.25.843
12856;169970;33.04;907;04.07.25.843
12892;169954;33.04;908;04.07.25.843
12928;169957;33.04;909;04.07.25.843
12916;169962;33.04;910;04.07.25.854
12888;169963;33.04;911;04.07.25.854
12880;169970;33.04;912;04.07.25.854
12896;169965;33.04;913;04.07.25.854
12896;169968;33.04;914;04.07.25.854
12896;169976;33.04;915;04.07.25.854
12904;169975;33.04;916;04.07.25.854
12876;169984;33.04;917;04.07.25.865
12884;169993;33.04;918;04.07.25.876
12904;169988;33.04;919;04.07.25.876
12884;170004;33.04;920;04.07.25.876
12884;170001;33.04;921;04.07.25.876
12888;170004;33.04;922;04.07.25.876
12880;170007;33.04;923;04.07.25.876
12912;170013;33.04;924;04.07.25.876
12888;170011;33.04;925;04.07.25.963
12900;170012;33.04;926;04.07.25.963
12888;170018;33.04;927;04.07.25.963
12892;170021;33.04;928;04.07.25.963
12912;170025;33.04;929;04.07.25.963
12904;170023;33.04;930;04.07.25.963
12884;170027;33.04;931;04.07.25.963
12900;170037;33.04;932;04.07.25.963
12880;170045;33.04;933;04.07.25.963
12896;170042;33.04;934;04.07.25.963
12892;170045;33.04;935;04.07.25.963
12904;170043;33.04;936;04.07.25.974
12876;170046;33.04;937;04.07.25.974
12892;170045;33.04;938;04.07.25.974
12892;170056;33.04;939;04.07.25.974
12912;170054;33.04;940;04.07.25.974
12912;170055;33.04;941;04.07.25.974
12896;170062;33.04;942;04.07.25.974
12912;170065;33.04;943;04.07.25.974
12908;170063;33.04;944;04.07.25.974
12872;170067;33.04;945;04.07.25.974
12900;170065;33.04;946;04.07.25.974
12896;170080;33.04;947;04.07.25.985
12904;170082;33.04;948;04.07.25.985
12900;170078;33.04;949;04.07.25.985
12904;170081;33.00;950;04.07.26.062
12896;170086;33.00;951;04.07.26.062
12920;170096;33.00;952;04.07.26.062
12916;170086;33.00;953;04.07.26.062
12908;170091;33.00;954;04.07.26.062
12896;170095;33.00;955;04.07.26.062
12884;170099;33.00;956;04.07.26.062
12888;170099;33.00;957;04.07.26.073
12900;170096;33.00;958;04.07.26.095
12928;170094;33.00;959;04.07.26.095
12880;170086;33.00;960;04.07.26.095
12860;170088;33.00;961;04.07.26.095
12892;170083;33.00;962;04.07.26.095
12900;170070;33.00;963;04.07.26.095
12904;170061;33.00;964;04.07.26.095
12912;170063;33.00;965;04.07.26.106
12904;170052;33.00;966;04.07.26.106
12888;170046;33.00;967;04.07.26.106
12880;170054;33.00;968;04.07.26.106
12876;170039;33.00;969;04.07.26.106
12900;170035;33.00;970;04.07.26.106
12860;170033;33.00;971;04.07.26.106
12884;170036;33.00;972;04.07.26.106
12880;170043;33.00;973;04.07.26.106
12940;170033;33.00;974;04.07.26.106
12896;170051;33.00;975;04.07.26.183
12888;170036;33.00;976;04.07.26.183
12872;170039;33.00;977;04.07.26.183
12912;170042;33.00;978;04.07.26.194
12900;170042;33.00;979;04.07.26.194
12888;170050;33.00;980;04.07.26.194
12884;170053;33.00;981;04.07.26.194
12884;170054;33.00;982;04.07.26.194
12904;170059;33.00;983;04.07.26.194
12908;170057;33.00;984;04.07.26.194
12904;170062;33.00;985;04.07.26.194
12928;170057;33.00;986;04.07.26.194
12876;170065;33.00;987;04.07.26.194
12904;170064;33.00;988;04.07.26.194
12880;170059;33.00;989;04.07.26.194
12912;170056;33.00;990;04.07.26.194
12912;170054;33.00;991;04.07.26.205
12876;170046;33.00;992;04.07.26.205
12904;170037;33.00;993;04.07.26.205
12908;170043;33.00;994;04.07.26.205
12860;170036;33.00;995;04.07.26.205
12912;170028;33.00;996;04.07.26.205
12904;170022;33.00;997;04.07.26.205
12868;170020;33.00;998;04.07.26.205
12892;170008;33.00;999;04.07.26.205
12884;170000;33.04;000;04.07.26.325
12896;169995;33.04;001;04.07.26.325
12904;169997;33.04;002;04.07.26.325
12896;169999;33.04;003;04.07.26.325
12892;169995;33.04;004;04.07.26.325
12880;169997;33.04;005;04.07.26.325
12936;169992;33.04;006;04.07.26.325
12900;169998;33.04;007;04.07.26.325
12892;170002;33.04;008;04.07.26.325
12880;170013;33.04;009;04.07.26.325
12884;170011;33.04;010;04.07.26.325
12876;170017;33.04;011;04.07.26.325
12880;170029;33.04;012;04.07.26.336
12896;170045;33.04;013;04.07.26.336
12912;170042;33.04;014;04.07.26.336
12912;170056;33.04;015;04.07.26.336
12888;170067;33.04;016;04.07.26.336
12864;170074;33.04;017;04.07.26.336
12908;170083;33.04;018;04.07.26.336
12892;170088;33.04;019;04.07.26.336
12872;170100;33.04;020;04.07.26.336
12908;170101;33.04;021;04.07.26.336
12880;170111;33.04;022;04.07.26.336
12876;170119;33.04;023;04.07.26.336
12892;170123;33.04;024;04.07.26.347
12892;170125;33.04;025;04.07.26.468
12928;170132;33.04;026;04.07.26.468
12912;170135;33.04;027;04.07.26.468
12872;170137;33.04;028;04.07.26.468
12896;170140;33.04;029;04.07.26.468
12892;170146;33.04;030;04.07.26.468
12884;170148;33.04;031;04.07.26.468
12896;170146;33.04;032;04.07.26.468
12884;170152;33.04;033;04.07.26.479
12884;170152;33.04;034;04.07.26.479
12908;170156;33.04;035;04.07.26.479
12896;170144;33.04;036;04.07.26.479
12880;170157;33.04;037;04.07.26.479
12884;170144;33.04;038;04.07.26.479
12896;170147;33.04;039;04.07.26.479
12888;170142;33.04;040;04.07.26.479
12896;170146;33.04;041;04.07.26.479
12904;170148;33.04;042;04.07.26.479
12888;170138;33.04;043;04.07.26.479
12860;170149;33.04;044;04.07.26.479
12900;170151;33.04;045;04.07.26.479
12864;170145;33.04;046;04.07.26.490
12892;170145;33.04;047;04.07.26.490
12908;170144;33.04;048;04.07.26.490
12928;170133;33.04;049;04.07.26.490
12884;170129;33.04;050;04.07.26.567
12892;170140;33.04;051;04.07.26.567
12896;170134;33.04;052;04.07.26.567
12880;170129;33.04;053;04.07.26.567
12908;170129;33.04;054;04.07.26.567
12872;170124;33.04;055;04.07.26.578
12884;170134;33.04;056;04.07.26.578
12884;170127;33.04;057;04.07.26.578
12888;170126;33.04;058;04.07.26.578
12860;170129;33.04;059;04.07.26.578
12884;170129;33.04;060;04.07.26.578
12888;170126;33.04;061;04.07.26.578
12900;170120;33.04;062;04.07.26.578
12908;170129;33.04;063;04.07.26.578
12880;170129;33.04;064;04.07.26.578
12892;170135;33.04;065;04.07.26.578
12896;170138;33.04;066;04.07.26.578
12900;170138;33.04;067;04.07.26.589
12912;170139;33.04;068;04.07.26.589
12888;170145;33.04;069;04.07.26.589
12884;170144;33.04;070;04.07.26.589
12888;170158;33.04;071;04.07.26.589
12880;170166;33.04;072;04.07.26.600
12880;170161;33.04;073;04.07.26.600
12928;170171;33.04;074;04.07.26.600
12908;170176;33.04;075;04.07.26.687
12880;170189;33.04;076;04.07.26.698
12876;170190;33.04;077;04.07.26.698
12908;170192;33.04;078;04.07.26.698
12896;170195;33.04;079;04.07.26.698
12904;170197;33.04;080;04.07.26.698
12888;170204;33.04;081;04.07.26.698
12888;170207;33.04;082;04.07.26.698
12892;170205;33.04;083;04.07.26.698
12884;170216;33.04;084;04.07.26.698
12884;170225;33.04;085;04.07.26.698
12908;170221;33.04;086;04.07.26.698
12900;170236;33.04;087;04.07.26.698
12904;170234;33.04;088;04.07.26.698
12876;170235;33.04;089;04.07.26.709
12872;170235;33.04;090;04.07.26.709
12872;170244;33.04;091;04.07.26.709
12892;170239;33.04;092;04.07.26.709
12908;170244;33.04;093;04.07.26.709
12908;170237;33.04;094;04.07.26.709
12904;170241;33.04;095;04.07.26.709
12912;170249;33.04;096;04.07.26.709
12892;170248;33.04;097;04.07.26.709
12900;170244;33.04;098;04.07.26.709
12892;170236;33.04;099;04.07.26.709
12896;170244;33.04;100;04.07.26.819
12896;170253;33.04;101;04.07.26.819
12884;170255;33.04;102;04.07.26.819
12892;170251;33.04;103;04.07.26.819
12904;170250;33.04;104;04.07.26.819
12892;170254;33.04;105;04.07.26.819
12912;170255;33.04;106;04.07.26.819
12888;170261;33.04;107;04.07.26.819
12884;170253;33.04;108;04.07.26.819
12880;170255;33.04;109;04.07.26.819
12892;170263;33.04;110;04.07.26.830
12904;170257;33.04;111;04.07.26.830
12916;170258;33.04;112;04.07.26.830
12916;170258;33.04;113;04.07.26.830
12892;170261;33.04;114;04.07.26.830
12892;170268;33.04;115;04.07.26.830
12892;170271;33.04;116;04.07.26.830
12892;170268;33.04;117;04.07.26.830
12884;170270;33.04;118;04.07.26.830
12888;170270;33.04;119;04.07.26.830
12888;170278;33.04;120;04.07.26.830
12900;170275;33.04;121;04.07.26.830
12928;170280;33.04;122;04.07.26.830
12884;170291;33.04;123;04.07.26.841
12880;170278;33.04;124;04.07.26.841
12896;170288;33.04;125;04.07.26.951
12892;170286;33.04;126;04.07.26.951
12880;170286;33.04;127;04.07.26.951
12872;170284;33.04;128;04.07.26.951
12888;170290;33.04;129;04.07.26.951
12892;170288;33.04;130;04.07.26.951
12892;170296;33.04;131;04.07.26.962
12900;170291;33.04;132;04.07.26.962
12896;170298;33.04;133;04.07.26.962
12868;170292;33.04;134;04.07.26.962
12884;170286;33.04;135;04.07.26.962
12892;170296;33.04;136;04.07.26.962
12904;170300;33.04;137;04.07.26.962
12888;170296;33.04;138;04.07.26.962
12884;170305;33.04;139;04.07.26.962
12928;170307;33.04;140;04.07.26.962
12876;170302;33.04;141;04.07.26.962
12892;170308;33.04;142;04.07.26.962
12904;170306;33.04;143;04.07.26.962
12884;170314;33.04;144;04.07.26.973
12884;170306;33.04;145;04.07.26.973
12880;170306;33.04;146;04.07.26.973
12896;170319;33.04;147;04.07.26.973
12880;170309;33.04;148;04.07.26.973
12928;170312;33.04;149;04.07.26.973
12872;170301;33.04;150;04.07.27.192
12892;170300;33.04;151;04.07.27.192
12892;170308;33.04;152;04.07.27.192
12896;170302;33.04;153;04.07.27.192
12896;170305;33.04;154;04.07.27.192
12880;170304;33.04;155;04.07.27.192
12880;170300;33.04;156;04.07.27.192
12868;170298;33.04;157;04.07.27.192
12888;170290;33.04;158;04.07.27.192
12904;170287;33.04;159;04.07.27.192
12864;170298;33.04;160;04.07.27.192
12884;170284;33.04;161;04.07.27.192
12852;170284;33.04;162;04.07.27.203
12900;170283;33.04;163;04.07.27.203
12892;170282;33.04;164;04.07.27.203
12904;170280;33.04;165;04.07.27.203
12892;170276;33.04;166;04.07.27.203
12892;170280;33.04;167;04.07.27.203
12900;170269;33.04;168;04.07.27.203
12892;170277;33.04;169;04.07.27.203
12872;170260;33.04;170;04.07.27.203
12900;170264;33.04;171;04.07.27.203
12876;170267;33.04;172;04.07.27.203
12884;170260;33.04;173;04.07.27.203
12892;170258;33.04;174;04.07.27.214
d;e;f;04.07.28.496
12892;000894;33.00;175;04.07.28.606
12908;057537;33.00;176;04.07.28.606
12912;073921;33.00;177;04.07.28.606
12892;090321;33.00;178;04.07.28.606
12852;106725;33.00;179;04.07.28.606
12904;123120;33.00;180;04.07.28.606
12892;139516;33.00;181;04.07.28.606
12904;155839;33.00;182;04.07.28.606
12896;170796;33.00;183;04.07.28.617
12892;170527;33.00;184;04.07.28.617
12872;170512;33.00;185;04.07.28.617
12884;170507;33.00;186;04.07.28.617
12892;170511;33.00;187;04.07.28.617
12896;170509;33.00;188;04.07.28.617
12896;170519;33.00;189;04.07.28.617
12892;170517;33.00;190;04.07.28.617
12888;170515;33.00;191;04.07.28.628
12924;170527;33.00;192;04.07.28.628
12928;170528;33.00;193;04.07.28.628
12892;170535;33.00;194;04.07.28.628
12904;170543;33.00;195;04.07.28.628
12876;170553;33.00;196;04.07.28.628
12888;170550;33.00;197;04.07.28.628
12892;170552;33.00;198;04.07.28.628
12932;170563;33.00;199;04.07.28.628
12880;170562;33.00;200;04.07.28.726
12892;170560;33.00;201;04.07.28.726
12888;170562;33.00;202;04.07.28.726
12896;170574;33.00;203;04.07.28.726
12892;170569;33.00;204;04.07.28.726
12872;170569;33.00;205;04.07.28.737
12892;170571;33.00;206;04.07.28.737
12888;170576;33.00;207;04.07.28.737
12896;170569;33.00;208;04.07.28.737
12900;170574;33.00;209;04.07.28.737
12916;170572;33.00;210;04.07.28.737
12916;170555;33.00;211;04.07.28.737
12876;170559;33.00;212;04.07.28.737
12904;170561;33.00;213;04.07.28.737
12892;170549;33.00;214;04.07.28.737
12916;170551;33.00;215;04.07.28.737
12896;170555;33.00;216;04.07.28.737
12880;170553;33.00;217;04.07.28.737
12912;170551;33.00;218;04.07.28.748
12880;170540;33.00;219;04.07.28.748
12880;170550;33.00;220;04.07.28.748
12892;170540;33.00;221;04.07.28.748
12884;170534;33.00;222;04.07.28.748
12900;170535;33.00;223;04.07.28.748
12904;170538;33.00;224;04.07.28.748
12876;170529;33.00;225;04.07.28.847
12888;170526;33.00;226;04.07.28.858
12908;170514;33.00;227;04.07.28.858
12932;170519;33.00;228;04.07.28.858
12896;170504;33.00;229;04.07.28.858
12912;170503;33.00;230;04.07.28.858
12892;170499;33.00;231;04.07.28.858
12912;170482;33.00;232;04.07.28.858
12888;170481;33.00;233;04.07.28.858
12892;170470;33.00;234;04.07.28.858
12896;170467;33.00;235;04.07.28.858
12900;170458;33.00;236;04.07.28.858
12892;170449;33.00;237;04.07.28.858
12884;170444;33.00;238;04.07.28.858
12880;170438;33.00;239;04.07.28.869
12892;170433;33.00;240;04.07.28.869
12904;170429;33.00;241;04.07.28.869
12908;170412;33.00;242;04.07.28.869
12904;170412;33.00;243;04.07.28.869
12908;170407;33.00;244;04.07.28.869
12912;170398;33.00;245;04.07.28.869
12892;170395;33.00;246;04.07.28.869
12892;170393;33.00;247;04.07.28.869
12892;170384;33.00;248;04.07.28.869
12896;170387;33.00;249;04.07.28.869
12892;170377;33.00;250;04.07.28.990
12884;170376;33.00;251;04.07.28.990
12904;170375;33.00;252;04.07.28.990
12888;170372;33.00;253;04.07.28.990
12876;170369;33.00;254;04.07.28.990
12892;170368;33.00;255;04.07.28.990
12892;170371;33.00;256;04.07.28.990
12896;170374;33.00;257;04.07.28.990
12900;170373;33.00;258;04.07.28.990
12904;170369;33.00;259;04.07.28.990
12868;170369;33.00;260;04.07.29.001
12896;170372;33.00;261;04.07.29.001
12892;170373;33.00;262;04.07.29.001
12888;170378;33.00;263;04.07.29.001
12884;170369;33.00;264;04.07.29.001
12916;170378;33.00;265;04.07.29.001
12868;170368;33.00;266;04.07.29.001
12876;170372;33.00;267;04.07.29.001
12900;170368;33.00;268;04.07.29.001
12876;170364;33.00;269;04.07.29.001
12892;170363;33.00;270;04.07.29.001
12888;170359;33.00;271;04.07.29.001
12900;170352;33.00;272;04.07.29.001
12864;170346;33.00;273;04.07.29.012
12860;170343;33.00;274;04.07.29.012
12896;170337;33.00;275;04.07.29.121
12852;170338;33.00;276;04.07.29.121
12884;170332;33.00;277;04.07.29.121
12904;170332;33.00;278;04.07.29.121
12888;170335;33.00;279;04.07.29.121
12884;170330;33.00;280;04.07.29.121
12892;170338;33.00;281;04.07.29.132
12904;170341;33.00;282;04.07.29.132
12924;170328;33.00;283;04.07.29.132
12888;170338;33.00;284;04.07.29.132
12892;170343;33.00;285;04.07.29.132
12904;170340;33.00;286;04.07.29.132
12908;170333;33.00;287;04.07.29.132
12928;170347;33.00;288;04.07.29.132
12896;170348;33.00;289;04.07.29.143
12896;170351;33.00;290;04.07.29.143
12884;170353;33.00;291;04.07.29.143
12904;170347;33.00;292;04.07.29.143
12872;170352;33.00;293;04.07.29.143
12884;170348;33.00;294;04.07.29.143
12916;170341;33.00;295;04.07.29.143
12868;170331;33.00;296;04.07.29.143
12916;170345;33.00;297;04.07.29.143
12892;170332;33.00;298;04.07.29.143
12912;170324;33.00;299;04.07.29.143
12872;170330;33.00;300;04.07.29.253
12896;170330;33.00;301;04.07.29.253
12892;170331;33.00;302;04.07.29.253
12900;170318;33.00;303;04.07.29.264
12892;170315;33.00;304;04.07.29.264
12884;170318;33.00;305;04.07.29.264
12888;170307;33.00;306;04.07.29.264
12880;170308;33.00;307;04.07.29.264
12900;170300;33.00;308;04.07.29.264
12892;170295;33.00;309;04.07.29.264
12880;170286;33.00;310;04.07.29.264
12880;170286;33.00;311;04.07.29.264
12888;170280;33.00;312;04.07.29.264
12888;170285;33.00;313;04.07.29.264
12904;170265;33.00;314;04.07.29.264
12896;170269;33.00;315;04.07.29.264
12904;170271;33.00;316;04.07.29.275
12904;170271;33.00;317;04.07.29.275
12884;170269;33.00;318;04.07.29.275
12896;170268;33.00;319;04.07.29.275
12888;170265;33.00;320;04.07.29.275
12888;170264;33.00;321;04.07.29.275
12904;170256;33.00;322;04.07.29.275
12896;170257;33.00;323;04.07.29.275
12896;170262;33.00;324;04.07.29.275
12860;170257;33.04;325;04.07.29.363
12892;170251;33.04;326;04.07.29.363
12904;170260;33.04;327;04.07.29.363
12888;170256;33.04;328;04.07.29.363
12884;170259;33.04;329;04.07.29.363
12880;170253;33.04;330;04.07.29.363
12888;170255;33.04;331;04.07.29.363
12892;170251;33.04;332;04.07.29.363
12876;170254;33.04;333;04.07.29.363
12876;170246;33.04;334;04.07.29.363
12892;170246;33.04;335;04.07.29.363
12892;170246;33.04;336;04.07.29.363
12892;170238;33.04;337;04.07.29.374
12916;170246;33.04;338;04.07.29.374
12888;170242;33.04;339;04.07.29.374
12880;170235;33.04;340;04.07.29.374
12908;170235;33.04;341;04.07.29.374
12928;170234;33.04;342;04.07.29.374
12892;170231;33.04;343;04.07.29.374
12868;170231;33.04;344;04.07.29.374
12896;170226;33.04;345;04.07.29.374
12868;170217;33.04;346;04.07.29.374
12876;170206;33.04;347;04.07.29.374
12896;170204;33.04;348;04.07.29.374
12924;170203;33.04;349;04.07.29.385
12860;170186;33.04;350;04.07.29.483
12904;170188;33.04;351;04.07.29.483
12912;170183;33.04;352;04.07.29.483
12912;170173;33.04;353;04.07.29.483
12896;170170;33.04;354;04.07.29.483
12888;170165;33.04;355;04.07.29.483
12912;170155;33.04;356;04.07.29.483
12928;170161;33.04;357;04.07.29.483
12896;170143;33.04;358;04.07.29.494
12896;170151;33.04;359;04.07.29.494
12888;170145;33.04;360;04.07.29.494
12900;170143;33.04;361;04.07.29.494
12892;170142;33.04;362;04.07.29.494
12880;170138;33.04;363;04.07.29.494
12872;170135;33.04;364;04.07.29.494
12892;170139;33.04;365;04.07.29.494
12876;170140;33.04;366;04.07.29.494
12900;170145;33.04;367;04.07.29.505
12884;170143;33.04;368;04.07.29.505
12880;170155;33.04;369;04.07.29.505
12868;170159;33.04;370;04.07.29.505
12880;170155;33.04;371;04.07.29.505
12872;170164;33.04;372;04.07.29.505
12880;170170;33.04;373;04.07.29.505
12884;170169;33.04;374;04.07.29.505
12872;170182;33.04;375;04.07.29.615
12880;170183;33.04;376;04.07.29.615
12920;170186;33.04;377;04.07.29.615
12884;170179;33.04;378;04.07.29.615
12888;170186;33.04;379;04.07.29.615
12904;170186;33.04;380;04.07.29.626
12904;170194;33.04;381;04.07.29.626
12908;170193;33.04;382;04.07.29.626
12876;170197;33.04;383;04.07.29.626
12880;170199;33.04;384;04.07.29.626
12892;170188;33.04;385;04.07.29.626
12888;170187;33.04;386;04.07.29.626
12888;170193;33.04;387;04.07.29.626
12892;170181;33.04;388;04.07.29.626
12884;170184;33.04;389;04.07.29.626
12904;170181;33.04;390;04.07.29.626
12900;170182;33.04;391;04.07.29.626
12880;170178;33.04;392;04.07.29.626
12884;170181;33.04;393;04.07.29.637
12904;170184;33.04;394;04.07.29.637
12896;170175;33.04;395;04.07.29.637
12892;170178;33.04;396;04.07.29.637
12900;170180;33.04;397;04.07.29.637
12892;170180;33.04;398;04.07.29.637
12920;170179;33.04;399;04.07.29.637
12884;170176;33.04;400;04.07.29.725
12876;170165;33.04;401;04.07.29.736
12892;170172;33.04;402;04.07.29.736
12872;170166;33.04;403;04.07.29.736
12884;170154;33.04;404;04.07.29.736
12892;170154;33.04;405;04.07.29.736
