gsr; bvp; skt; skt2; Cont; time
12896;168977;33.12;491;04.12.54.336
12904;168971;33.12;492;04.12.54.336
12860;168977;33.12;493;04.12.54.336
12904;168972;33.12;494;04.12.54.336
12900;168968;33.12;495;04.12.54.336
12908;168965;33.12;496;04.12.54.336
12896;168973;33.12;497;04.12.54.336
12880;168968;33.12;498;04.12.54.336
12916;168974;33.12;499;04.12.54.336
12876;168975;33.12;500;04.12.54.336
12892;168978;33.12;501;04.12.54.336
12888;168977;33.12;502;04.12.54.336
12892;168967;33.12;503;04.12.54.336
12876;168973;33.12;504;04.12.54.336
12896;168973;33.12;505;04.12.54.347
12884;168960;33.12;506;04.12.54.347
12872;168967;33.12;507;04.12.54.347
12868;168970;33.12;508;04.12.54.347
12900;168976;33.12;509;04.12.54.347
12880;168980;33.12;510;04.12.54.347
12860;168973;33.12;511;04.12.54.347
12856;168977;33.12;512;04.12.54.347
12876;168981;33.12;513;04.12.54.347
12852;168979;33.12;514;04.12.54.347
12884;168981;33.12;515;04.12.54.347
12868;168977;33.12;516;04.12.54.347
12872;168973;33.12;517;04.12.54.347
12896;168977;33.12;518;04.12.54.358
12888;168979;33.12;519;04.12.54.358
12860;168972;33.12;520;04.12.54.358
12892;168978;33.12;521;04.12.54.358
12884;168982;33.12;522;04.12.54.358
12876;168977;33.12;523;04.12.54.358
12904;168986;33.12;524;04.12.54.358
12896;168987;33.12;525;04.12.54.434
12888;168968;33.12;526;04.12.54.445
12868;168989;33.12;527;04.12.54.445
12876;168982;33.12;528;04.12.54.445
12904;168981;33.12;529;04.12.54.445
12860;168985;33.12;530;04.12.54.445
12900;168981;33.12;531;04.12.54.445
12896;168978;33.12;532;04.12.54.445
12860;168984;33.12;533;04.12.54.445
12884;168988;33.12;534;04.12.54.445
12896;168992;33.12;535;04.12.54.445
12880;168989;33.12;536;04.12.54.456
12888;168988;33.12;537;04.12.54.456
12880;168996;33.12;538;04.12.54.456
12884;168992;33.12;539;04.12.54.456
12876;168995;33.12;540;04.12.54.456
12900;168990;33.12;541;04.12.54.456
12912;168995;33.12;542;04.12.54.456
12900;168994;33.12;543;04.12.54.456
12880;168999;33.12;544;04.12.54.468
12888;168997;33.12;545;04.12.54.468
12884;168998;33.12;546;04.12.54.468
12876;169005;33.12;547;04.12.54.468
12884;169005;33.12;548;04.12.54.468
12928;169007;33.12;549;04.12.54.468
12872;169002;33.12;550;04.12.54.566
12872;169000;33.12;551;04.12.54.566
12904;169007;33.12;552;04.12.54.566
12884;169003;33.12;553;04.12.54.566
12884;169015;33.12;554;04.12.54.566
12884;169019;33.12;555;04.12.54.566
12892;169011;33.12;556;04.12.54.566
12896;169004;33.12;557;04.12.54.566
12880;169012;33.12;558;04.12.54.566
12892;169006;33.12;559;04.12.54.577
12892;169018;33.12;560;04.12.54.577
12884;169009;33.12;561;04.12.54.577
12904;169022;33.12;562;04.12.54.577
12900;169017;33.12;563;04.12.54.577
12904;169018;33.12;564;04.12.54.577
12888;169021;33.12;565;04.12.54.577
12896;169023;33.12;566;04.12.54.577
12896;169023;33.12;567;04.12.54.598
12928;169026;33.12;568;04.12.54.598
12884;169029;33.12;569;04.12.54.598
12868;169028;33.12;570;04.12.54.598
12900;169024;33.12;571;04.12.54.598
12856;169038;33.12;572;04.12.54.598
12868;169033;33.12;573;04.12.54.598
12892;169031;33.12;574;04.12.54.598
12868;169034;33.16;575;04.12.54.686
12884;169035;33.16;576;04.12.54.686
12896;169031;33.16;577;04.12.54.686
12860;169042;33.16;578;04.12.54.686
12880;169047;33.16;579;04.12.54.686
12876;169050;33.16;580;04.12.54.686
12860;169043;33.16;581;04.12.54.686
12912;169045;33.16;582;04.12.54.697
12920;169049;33.16;583;04.12.54.697
12872;169054;33.16;584;04.12.54.697
12860;169052;33.16;585;04.12.54.697
12868;169049;33.16;586;04.12.54.697
12844;169051;33.16;587;04.12.54.697
12892;169056;33.16;588;04.12.54.697
12860;169063;33.16;589;04.12.54.697
12880;169060;33.16;590;04.12.54.697
12880;169061;33.16;591;04.12.54.697
12880;169055;33.16;592;04.12.54.697
12852;169055;33.16;593;04.12.54.697
12864;169055;33.16;594;04.12.54.697
12888;169064;33.16;595;04.12.54.708
12876;169055;33.16;596;04.12.54.708
12872;169057;33.16;597;04.12.54.708
12860;169055;33.16;598;04.12.54.708
12896;169065;33.16;599;04.12.54.708
12888;169071;33.16;600;04.12.54.818
12896;169070;33.16;601;04.12.54.818
12872;169069;33.16;602;04.12.54.818
12876;169079;33.16;603;04.12.54.820
12880;169072;33.16;604;04.12.54.820
12868;169075;33.16;605;04.12.54.821
12904;169082;33.16;606;04.12.54.824
12896;169079;33.16;607;04.12.54.824
12892;169078;33.16;608;04.12.54.835
12912;169081;33.16;609;04.12.54.835
12888;169072;33.16;610;04.12.54.835
12892;169083;33.16;611;04.12.54.835
12876;169074;33.16;612;04.12.54.835
12860;169073;33.16;613;04.12.54.835
12884;169078;33.16;614;04.12.54.835
12880;169091;33.16;615;04.12.54.835
12896;169097;33.16;616;04.12.54.835
12880;169090;33.16;617;04.12.54.835
12896;169088;33.16;618;04.12.54.846
12884;169093;33.16;619;04.12.54.846
12888;169101;33.16;620;04.12.54.846
12876;169091;33.16;621;04.12.54.846
12884;169092;33.16;622;04.12.54.846
12912;169097;33.16;623;04.12.54.846
12892;169094;33.16;624;04.12.54.846
12872;169102;33.12;625;04.12.54.934
12884;169102;33.12;626;04.12.54.934
12888;169112;33.12;627;04.12.54.934
12884;169101;33.12;628;04.12.54.934
12884;169107;33.12;629;04.12.54.934
12896;169104;33.12;630;04.12.54.934
12896;169108;33.12;631;04.12.54.945
12876;169109;33.12;632;04.12.54.945
12876;169107;33.12;633;04.12.54.945
12872;169118;33.12;634;04.12.54.945
12880;169117;33.12;635;04.12.54.945
12876;169120;33.12;636;04.12.54.945
12868;169115;33.12;637;04.12.54.945
12884;169116;33.12;638;04.12.54.945
12908;169110;33.12;639;04.12.54.956
12876;169109;33.12;640;04.12.54.956
12904;169112;33.12;641;04.12.54.956
12876;169109;33.12;642;04.12.54.956
12888;169105;33.12;643;04.12.54.956
12896;169103;33.12;644;04.12.54.956
12880;169095;33.12;645;04.12.54.956
12896;169092;33.12;646;04.12.54.956
12884;169086;33.12;647;04.12.54.956
12900;169076;33.12;648;04.12.54.956
12892;169071;33.12;649;04.12.54.956
12876;169076;33.12;650;04.12.55.054
12876;169072;33.12;651;04.12.55.054
12864;169068;33.12;652;04.12.55.054
12876;169065;33.12;653;04.12.55.065
12880;169061;33.12;654;04.12.55.065
12876;169049;33.12;655;04.12.55.065
12876;169049;33.12;656;04.12.55.065
12888;169050;33.12;657;04.12.55.065
12848;169048;33.12;658;04.12.55.065
12896;169036;33.12;659;04.12.55.065
12904;169034;33.12;660;04.12.55.065
12872;169036;33.12;661;04.12.55.065
12892;169027;33.12;662;04.12.55.065
12872;169029;33.12;663;04.12.55.065
12904;169025;33.12;664;04.12.55.065
12888;169023;33.12;665;04.12.55.065
12888;169027;33.12;666;04.12.55.076
12876;169018;33.12;667;04.12.55.076
12880;169019;33.12;668;04.12.55.076
12892;169021;33.12;669;04.12.55.076
12892;169010;33.12;670;04.12.55.076
12896;169007;33.12;671;04.12.55.076
12884;169007;33.12;672;04.12.55.076
12912;169010;33.12;673;04.12.55.076
12884;169011;33.12;674;04.12.55.076
12864;169016;33.16;675;04.12.55.186
12880;169011;33.16;676;04.12.55.186
12860;169007;33.16;677;04.12.55.186
12880;169012;33.16;678;04.12.55.186
12880;169015;33.16;679;04.12.55.186
12896;169015;33.16;680;04.12.55.186
12872;169012;33.16;681;04.12.55.186
12868;169008;33.16;682;04.12.55.186
12876;169013;33.16;683;04.12.55.186
12892;169016;33.16;684;04.12.55.186
12884;169009;33.16;685;04.12.55.186
12896;169013;33.16;686;04.12.55.186
12896;169016;33.16;687;04.12.55.186
12876;169006;33.16;688;04.12.55.197
12884;169011;33.16;689;04.12.55.197
12872;169028;33.16;690;04.12.55.197
12896;169020;33.16;691;04.12.55.197
12876;169012;33.16;692;04.12.55.197
12852;169009;33.16;693;04.12.55.197
12888;169014;33.16;694;04.12.55.197
12884;169018;33.16;695;04.12.55.197
12892;169016;33.16;696;04.12.55.197
12884;169019;33.16;697;04.12.55.197
12892;169006;33.16;698;04.12.55.197
12892;169013;33.16;699;04.12.55.197
12880;169010;33.16;700;04.12.55.318
12884;169008;33.16;701;04.12.55.318
12892;169009;33.16;702;04.12.55.318
12884;169013;33.16;703;04.12.55.318
12884;169009;33.16;704;04.12.55.318
12892;169010;33.16;705;04.12.55.318
12896;169014;33.16;706;04.12.55.318
12900;169006;33.16;707;04.12.55.318
12912;169013;33.16;708;04.12.55.329
12884;169014;33.16;709;04.12.55.329
12912;169001;33.16;710;04.12.55.329
12880;169015;33.16;711;04.12.55.329
12856;169011;33.16;712;04.12.55.329
12872;169011;33.16;713;04.12.55.329
12912;169006;33.16;714;04.12.55.329
12884;169008;33.16;715;04.12.55.329
12888;169008;33.16;716;04.12.55.329
12896;169011;33.16;717;04.12.55.329
12872;169009;33.16;718;04.12.55.329
12876;169004;33.16;719;04.12.55.329
12908;169000;33.16;720;04.12.55.329
12900;169005;33.16;721;04.12.55.339
12904;169006;33.16;722;04.12.55.339
12912;169009;33.16;723;04.12.55.339
12892;169009;33.16;724;04.12.55.339
12888;169013;33.12;725;04.12.55.438
12888;169008;33.12;726;04.12.55.438
12896;169025;33.12;727;04.12.55.438
12892;169017;33.12;728;04.12.55.449
12888;169019;33.12;729;04.12.55.449
12880;169023;33.12;730;04.12.55.449
12892;169019;33.12;731;04.12.55.449
12900;169024;33.12;732;04.12.55.449
12896;169022;33.12;733;04.12.55.449
12884;169020;33.12;734;04.12.55.449
12868;169021;33.12;735;04.12.55.449
12888;169023;33.12;736;04.12.55.449
12880;169025;33.12;737;04.12.55.449
12896;169025;33.12;738;04.12.55.449
12876;169026;33.12;739;04.12.55.460
12908;169029;33.12;740;04.12.55.460
12888;169038;33.12;741;04.12.55.460
12896;169030;33.12;742;04.12.55.460
12888;169029;33.12;743;04.12.55.460
12900;169034;33.12;744;04.12.55.460
12888;169034;33.12;745;04.12.55.460
12872;169039;33.12;746;04.12.55.460
12896;169050;33.12;747;04.12.55.460
12904;169042;33.12;748;04.12.55.460
12900;169039;33.12;749;04.12.55.460
12876;169045;33.12;750;04.12.55.559
12864;169048;33.12;751;04.12.55.570
12888;169057;33.12;752;04.12.55.570
12916;169052;33.12;753;04.12.55.570
12872;169053;33.12;754;04.12.55.570
12896;169049;33.12;755;04.12.55.570
12880;169053;33.12;756;04.12.55.570
12884;169048;33.12;757;04.12.55.570
12860;169059;33.12;758;04.12.55.570
12884;169055;33.12;759;04.12.55.570
12888;169044;33.12;760;04.12.55.581
12892;169054;33.12;761;04.12.55.581
12880;169057;33.12;762;04.12.55.581
12884;169050;33.12;763;04.12.55.581
12892;169051;33.12;764;04.12.55.581
12872;169053;33.12;765;04.12.55.581
12868;169059;33.12;766;04.12.55.581
12892;169067;33.12;767;04.12.55.581
12880;169059;33.12;768;04.12.55.592
12904;169064;33.12;769;04.12.55.592
12896;169069;33.12;770;04.12.55.592
12896;169072;33.12;771;04.12.55.592
12912;169069;33.12;772;04.12.55.592
12896;169071;33.12;773;04.12.55.592
12900;169066;33.12;774;04.12.55.592
12852;169074;33.12;775;04.12.55.690
12888;169075;33.12;776;04.12.55.690
12896;169073;33.12;777;04.12.55.690
12928;169077;33.12;778;04.12.55.690
12884;169080;33.12;779;04.12.55.690
12892;169080;33.12;780;04.12.55.690
12912;169079;33.12;781;04.12.55.690
12860;169087;33.12;782;04.12.55.690
12896;169082;33.12;783;04.12.55.690
12884;169078;33.12;784;04.12.55.690
12872;169079;33.12;785;04.12.55.701
12884;169079;33.12;786;04.12.55.701
12864;169080;33.12;787;04.12.55.701
12880;169085;33.12;788;04.12.55.701
12872;169081;33.12;789;04.12.55.701
12876;169087;33.12;790;04.12.55.701
12860;169089;33.12;791;04.12.55.701
12884;169089;33.12;792;04.12.55.701
12884;169094;33.12;793;04.12.55.701
12896;169096;33.12;794;04.12.55.701
12908;169101;33.12;795;04.12.55.701
12932;169103;33.12;796;04.12.55.701
12904;169096;33.12;797;04.12.55.701
12904;169100;33.12;798;04.12.55.712
12896;169101;33.12;799;04.12.55.712
12880;169099;33.12;800;04.12.55.810
12900;169106;33.12;801;04.12.55.810
12872;169113;33.12;802;04.12.55.810
12904;169112;33.12;803;04.12.55.810
12888;169111;33.12;804;04.12.55.810
12868;169112;33.12;805;04.12.55.820
12868;169115;33.12;806;04.12.55.820
12876;169118;33.12;807;04.12.55.820
12908;169114;33.12;808;04.12.55.820
12928;169120;33.12;809;04.12.55.820
12872;169120;33.12;810;04.12.55.820
12892;169123;33.12;811;04.12.55.820
12896;169127;33.12;812;04.12.55.820
12884;169117;33.12;813;04.12.55.820
12888;169117;33.12;814;04.12.55.820
12880;169118;33.12;815;04.12.55.820
12876;169124;33.12;816;04.12.55.820
12884;169125;33.12;817;04.12.55.831
12888;169126;33.12;818;04.12.55.831
12892;169121;33.12;819;04.12.55.831
12896;169121;33.12;820;04.12.55.831
12888;169119;33.12;821;04.12.55.831
12892;169121;33.12;822;04.12.55.831
12892;169111;33.12;823;04.12.55.831
12892;169113;33.12;824;04.12.55.831
12888;169103;33.12;825;04.12.55.962
12888;169099;33.12;826;04.12.55.962
12860;169105;33.12;827;04.12.55.962
12868;169092;33.12;828;04.12.55.962
12888;169089;33.12;829;04.12.55.962
12872;169088;33.12;830;04.12.55.962
12904;169083;33.12;831;04.12.55.962
12860;169084;33.12;832;04.12.55.962
12892;169074;33.12;833;04.12.55.962
12876;169082;33.12;834;04.12.55.962
12900;169074;33.12;835;04.12.55.962
12896;169066;33.12;836;04.12.55.962
12900;169063;33.12;837;04.12.55.962
12884;169066;33.12;838;04.12.55.973
12896;169062;33.12;839;04.12.55.973
12860;169061;33.12;840;04.12.55.973
12912;169062;33.12;841;04.12.55.973
12896;169054;33.12;842;04.12.55.973
12864;169053;33.12;843;04.12.55.973
12880;169047;33.12;844;04.12.55.973
12888;169049;33.12;845;04.12.55.973
12884;169051;33.12;846;04.12.55.973
12908;169042;33.12;847;04.12.55.973
12884;169037;33.12;848;04.12.55.973
12896;169042;33.12;849;04.12.55.973
12844;169043;33.12;850;04.12.56.061
12904;169047;33.12;851;04.12.56.061
12896;169035;33.12;852;04.12.56.061
12860;169040;33.12;853;04.12.56.061
12876;169043;33.12;854;04.12.56.061
12872;169044;33.12;855;04.12.56.061
12892;169044;33.12;856;04.12.56.061
12900;169039;33.12;857;04.12.56.061
12908;169044;33.12;858;04.12.56.094
12896;169041;33.12;859;04.12.56.094
12908;169044;33.12;860;04.12.56.094
12872;169039;33.12;861;04.12.56.094
12888;169042;33.12;862;04.12.56.094
12896;169040;33.12;863;04.12.56.094
12892;169035;33.12;864;04.12.56.094
12860;169038;33.12;865;04.12.56.094
12868;169034;33.12;866;04.12.56.094
12896;169035;33.12;867;04.12.56.094
12872;169036;33.12;868;04.12.56.106
12896;169036;33.12;869;04.12.56.106
12868;169039;33.12;870;04.12.56.106
12888;169042;33.12;871;04.12.56.106
12880;169032;33.12;872;04.12.56.106
12892;169037;33.12;873;04.12.56.106
12892;169045;33.12;874;04.12.56.106
12888;169041;33.12;875;04.12.56.184
12872;169036;33.12;876;04.12.56.184
12884;169046;33.12;877;04.12.56.184
12876;169041;33.12;878;04.12.56.184
12876;169043;33.12;879;04.12.56.184
12900;169039;33.12;880;04.12.56.184
12884;169042;33.12;881;04.12.56.184
12888;169042;33.12;882;04.12.56.184
12872;169040;33.12;883;04.12.56.195
12888;169040;33.12;884;04.12.56.195
12896;169048;33.12;885;04.12.56.195
12892;169045;33.12;886;04.12.56.195
12868;169043;33.12;887;04.12.56.195
12896;169036;33.12;888;04.12.56.195
12904;169047;33.12;889;04.12.56.195
12884;169034;33.12;890;04.12.56.195
12896;169041;33.12;891;04.12.56.195
12872;169039;33.12;892;04.12.56.195
12896;169042;33.12;893;04.12.56.195
12880;169045;33.12;894;04.12.56.195
12892;169048;33.12;895;04.12.56.195
12876;169040;33.12;896;04.12.56.206
12892;169052;33.12;897;04.12.56.206
12888;169043;33.12;898;04.12.56.206
12872;169047;33.12;899;04.12.56.206
12880;169052;33.12;900;04.12.56.325
12888;169050;33.12;901;04.12.56.325
12876;169044;33.12;902;04.12.56.336
12892;169042;33.12;903;04.12.56.336
12896;169052;33.12;904;04.12.56.336
12884;169049;33.12;905;04.12.56.336
12904;169052;33.12;906;04.12.56.336
12880;169049;33.12;907;04.12.56.336
12888;169057;33.12;908;04.12.56.336
12896;169061;33.12;909;04.12.56.336
12876;169061;33.12;910;04.12.56.336
12876;169059;33.12;911;04.12.56.336
12868;169050;33.12;912;04.12.56.336
12896;169058;33.12;913;04.12.56.336
12888;169063;33.12;914;04.12.56.336
12896;169064;33.12;915;04.12.56.336
12876;169061;33.12;916;04.12.56.347
12872;169068;33.12;917;04.12.56.358
12884;169064;33.12;918;04.12.56.369
12904;169071;33.12;919;04.12.56.369
12912;169074;33.12;920;04.12.56.369
12912;169075;33.12;921;04.12.56.369
12928;169075;33.12;922;04.12.56.369
12892;169075;33.12;923;04.12.56.369
12904;169076;33.12;924;04.12.56.369
12884;169089;33.12;925;04.12.56.468
12860;169075;33.12;926;04.12.56.468
12880;169084;33.12;927;04.12.56.468
12900;169078;33.12;928;04.12.56.468
12900;169076;33.12;929;04.12.56.468
12900;169083;33.12;930;04.12.56.468
12888;169086;33.12;931;04.12.56.468
12868;169079;33.12;932;04.12.56.468
12916;169091;33.12;933;04.12.56.479
12884;169090;33.12;934;04.12.56.479
12876;169090;33.12;935;04.12.56.479
12900;169091;33.12;936;04.12.56.479
12880;169092;33.12;937;04.12.56.479
12876;169086;33.12;938;04.12.56.479
12872;169088;33.12;939;04.12.56.479
12912;169088;33.12;940;04.12.56.479
12864;169095;33.12;941;04.12.56.479
12880;169100;33.12;942;04.12.56.490
12872;169096;33.12;943;04.12.56.490
12908;169100;33.12;944;04.12.56.490
12896;169097;33.12;945;04.12.56.490
12872;169101;33.12;946;04.12.56.490
12844;169104;33.12;947;04.12.56.490
12908;169104;33.12;948;04.12.56.490
12908;169107;33.12;949;04.12.56.490
12912;169109;33.12;950;04.12.56.566
12888;169104;33.12;951;04.12.56.566
12884;169111;33.12;952;04.12.56.566
12868;169106;33.12;953;04.12.56.566
12880;169105;33.12;954;04.12.56.566
12888;169113;33.12;955;04.12.56.566
12896;169108;33.12;956;04.12.56.566
12908;169106;33.12;957;04.12.56.577
12888;169119;33.12;958;04.12.56.588
12896;169125;33.12;959;04.12.56.588
12888;169120;33.12;960;04.12.56.588
12888;169120;33.12;961;04.12.56.588
12884;169128;33.12;962;04.12.56.588
12880;169130;33.12;963;04.12.56.588
12892;169125;33.12;964;04.12.56.588
12892;169126;33.12;965;04.12.56.599
12892;169123;33.12;966;04.12.56.599
12896;169133;33.12;967;04.12.56.599
12912;169124;33.12;968;04.12.56.599
12884;169136;33.12;969;04.12.56.599
12876;169134;33.12;970;04.12.56.599
12860;169141;33.12;971;04.12.56.599
12884;169136;33.12;972;04.12.56.599
12860;169134;33.12;973;04.12.56.599
12884;169138;33.12;974;04.12.56.599
12852;169139;33.12;975;04.12.56.687
12896;169136;33.12;976;04.12.56.687
12888;169137;33.12;977;04.12.56.687
12900;169133;33.12;978;04.12.56.687
12872;169124;33.12;979;04.12.56.687
12884;169125;33.12;980;04.12.56.698
12876;169105;33.12;981;04.12.56.698
12860;169113;33.12;982;04.12.56.698
12888;169108;33.12;983;04.12.56.698
12928;169106;33.12;984;04.12.56.698
12920;169105;33.12;985;04.12.56.698
12896;169100;33.12;986;04.12.56.698
12884;169099;33.12;987;04.12.56.698
12904;169090;33.12;988;04.12.56.698
12916;169093;33.12;989;04.12.56.698
12896;169089;33.12;990;04.12.56.698
12880;169083;33.12;991;04.12.56.698
12892;169082;33.12;992;04.12.56.720
12880;169072;33.12;993;04.12.56.720
12888;169068;33.12;994;04.12.56.720
12888;169080;33.12;995;04.12.56.720
12880;169073;33.12;996;04.12.56.720
12908;169080;33.12;997;04.12.56.731
12896;169078;33.12;998;04.12.56.731
12896;169076;33.12;999;04.12.56.731
12888;169073;33.12;000;04.12.56.808
12892;169071;33.12;001;04.12.56.819
12888;169068;33.12;002;04.12.56.819
12876;169070;33.12;003;04.12.56.819
12876;169066;33.12;004;04.12.56.819
12864;169076;33.12;005;04.12.56.819
12876;169061;33.12;006;04.12.56.819
12900;169062;33.12;007;04.12.56.819
12888;169063;33.12;008;04.12.56.819
12904;169074;33.12;009;04.12.56.819
12904;169073;33.12;010;04.12.56.819
12876;169070;33.12;011;04.12.56.819
12904;169075;33.12;012;04.12.56.819
12876;169069;33.12;013;04.12.56.819
12896;169071;33.12;014;04.12.56.830
12888;169064;33.12;015;04.12.56.830
12908;169071;33.12;016;04.12.56.830
12892;169063;33.12;017;04.12.56.830
12880;169068;33.12;018;04.12.56.830
12876;169073;33.12;019;04.12.56.830
12872;169074;33.12;020;04.12.56.830
12892;169075;33.12;021;04.12.56.830
12888;169078;33.12;022;04.12.56.830
12912;169071;33.12;023;04.12.56.830
12904;169083;33.12;024;04.12.56.830
12904;169079;33.12;025;04.12.56.950
12864;169086;33.12;026;04.12.56.950
12892;169083;33.12;027;04.12.56.950
12860;169077;33.12;028;04.12.56.950
12876;169082;33.12;029;04.12.56.950
12888;169079;33.12;030;04.12.56.950
12888;169078;33.12;031;04.12.56.950
12892;169087;33.12;032;04.12.56.950
12908;169086;33.12;033;04.12.56.950
12892;169087;33.12;034;04.12.56.950
12896;169093;33.12;035;04.12.56.961
12880;169083;33.12;036;04.12.56.961
12856;169090;33.12;037;04.12.56.961
12876;169081;33.12;038;04.12.56.961
12872;169074;33.12;039;04.12.56.961
12884;169080;33.12;040;04.12.56.961
12892;169082;33.12;041;04.12.56.961
12896;169084;33.12;042;04.12.56.961
12876;169073;33.12;043;04.12.56.961
12860;169081;33.12;044;04.12.56.961
12876;169080;33.12;045;04.12.56.961
12888;169088;33.12;046;04.12.56.961
12884;169086;33.12;047;04.12.56.972
12888;169075;33.12;048;04.12.56.972
12860;169072;33.12;049;04.12.56.972
12880;169075;33.12;050;04.12.57.082
12880;169078;33.12;051;04.12.57.082
12888;169078;33.12;052;04.12.57.082
12928;169083;33.12;053;04.12.57.082
12888;169084;33.12;054;04.12.57.082
12896;169077;33.12;055;04.12.57.082
12884;169082;33.12;056;04.12.57.082
12868;169078;33.12;057;04.12.57.093
12912;169085;33.12;058;04.12.57.093
12880;169082;33.12;059;04.12.57.093
12912;169089;33.12;060;04.12.57.093
12876;169091;33.12;061;04.12.57.093
12880;169085;33.12;062;04.12.57.093
12876;169094;33.12;063;04.12.57.093
12904;169089;33.12;064;04.12.57.094
12888;169098;33.12;065;04.12.57.094
12908;169093;33.12;066;04.12.57.105
12892;169098;33.12;067;04.12.57.105
12864;169090;33.12;068;04.12.57.105
12928;169101;33.12;069;04.12.57.105
12892;169105;33.12;070;04.12.57.105
12892;169097;33.12;071;04.12.57.105
12892;169100;33.12;072;04.12.57.105
12928;169096;33.12;073;04.12.57.105
12908;169107;33.12;074;04.12.57.105
12880;169103;33.12;075;04.12.57.182
12900;169105;33.12;076;04.12.57.182
12904;169102;33.12;077;04.12.57.182
12876;169102;33.12;078;04.12.57.182
12876;169113;33.12;079;04.12.57.182
12892;169104;33.12;080;04.12.57.193
12896;169112;33.12;081;04.12.57.193
12856;169107;33.12;082;04.12.57.193
12868;169111;33.12;083;04.12.57.193
12880;169109;33.12;084;04.12.57.193
12896;169108;33.12;085;04.12.57.193
12860;169114;33.12;086;04.12.57.193
12900;169117;33.12;087;04.12.57.193
12900;169117;33.12;088;04.12.57.193
12884;169117;33.12;089;04.12.57.193
12900;169119;33.12;090;04.12.57.193
12876;169126;33.12;091;04.12.57.193
12900;169121;33.12;092;04.12.57.215
12860;169126;33.12;093;04.12.57.215
12876;169119;33.12;094;04.12.57.215
12900;169114;33.12;095;04.12.57.215
12896;169124;33.12;096;04.12.57.215
12912;169127;33.12;097;04.12.57.226
12876;169128;33.12;098;04.12.57.226
12928;169121;33.12;099;04.12.57.226
12944;169129;33.12;100;04.12.57.302
12884;169129;33.12;101;04.12.57.313
12880;169126;33.12;102;04.12.57.313
12888;169133;33.12;103;04.12.57.313
12916;169137;33.12;104;04.12.57.313
12876;169137;33.12;105;04.12.57.313
12896;169137;33.12;106;04.12.57.313
12900;169142;33.12;107;04.12.57.313
12896;169133;33.12;108;04.12.57.313
12884;169139;33.12;109;04.12.57.313
12908;169144;33.12;110;04.12.57.313
12912;169150;33.12;111;04.12.57.313
12904;169147;33.12;112;04.12.57.313
12888;169146;33.12;113;04.12.57.313
12912;169142;33.12;114;04.12.57.324
12896;169152;33.12;115;04.12.57.324
12928;169149;33.12;116;04.12.57.324
12864;169148;33.12;117;04.12.57.324
12888;169150;33.12;118;04.12.57.324
12884;169145;33.12;119;04.12.57.324
12892;169140;33.12;120;04.12.57.324
12884;169152;33.12;121;04.12.57.324
12888;169139;33.12;122;04.12.57.324
12888;169140;33.12;123;04.12.57.324
12920;169138;33.12;124;04.12.57.324
12904;169138;33.12;125;04.12.57.445
12912;169129;33.12;126;04.12.57.445
12884;169136;33.12;127;04.12.57.445
12912;169121;33.12;128;04.12.57.445
12892;169123;33.12;129;04.12.57.445
12884;169111;33.12;130;04.12.57.445
12888;169116;33.12;131;04.12.57.445
12892;169101;33.12;132;04.12.57.445
12888;169101;33.12;133;04.12.57.445
12900;169099;33.12;134;04.12.57.456
12872;169089;33.12;135;04.12.57.456
12876;169095;33.12;136;04.12.57.456
12892;169085;33.12;137;04.12.57.456
12888;169084;33.12;138;04.12.57.456
12912;169089;33.12;139;04.12.57.456
12876;169085;33.12;140;04.12.57.456
12888;169083;33.12;141;04.12.57.456
12888;169079;33.12;142;04.12.57.456
12912;169083;33.12;143;04.12.57.456
12904;169075;33.12;144;04.12.57.456
12892;169081;33.12;145;04.12.57.456
12908;169082;33.12;146;04.12.57.456
12896;169074;33.12;147;04.12.57.467
12880;169074;33.12;148;04.12.57.467
12896;169065;33.12;149;04.12.57.467
12908;169069;33.12;150;04.12.57.575
12904;169064;33.12;151;04.12.57.575
12892;169069;33.12;152;04.12.57.575
12888;169065;33.12;153;04.12.57.575
12872;169071;33.12;154;04.12.57.586
12868;169071;33.12;155;04.12.57.586
12868;169064;33.12;156;04.12.57.586
12896;169071;33.12;157;04.12.57.586
12900;169071;33.12;158;04.12.57.586
12876;169066;33.12;159;04.12.57.586
12868;169071;33.12;160;04.12.57.586
12884;169073;33.12;161;04.12.57.586
12872;169069;33.12;162;04.12.57.586
12876;169066;33.12;163;04.12.57.586
12884;169076;33.12;164;04.12.57.586
12896;169076;33.12;165;04.12.57.586
12892;169065;33.12;166;04.12.57.586
12880;169064;33.12;167;04.12.57.587
12888;169071;33.12;168;04.12.57.598
12888;169072;33.12;169;04.12.57.598
12868;169077;33.12;170;04.12.57.598
12908;169077;33.12;171;04.12.57.598
12876;169068;33.12;172;04.12.57.598
12892;169075;33.12;173;04.12.57.598
12928;169083;33.12;174;04.12.57.598
12896;169078;33.12;175;04.12.57.718
12892;169080;33.12;176;04.12.57.718
12872;169081;33.12;177;04.12.57.718
12888;169072;33.12;178;04.12.57.718
12912;169072;33.12;179;04.12.57.718
12900;169073;33.12;180;04.12.57.718
12892;169073;33.12;181;04.12.57.718
12892;169070;33.12;182;04.12.57.718
12880;169066;33.12;183;04.12.57.718
12888;169077;33.12;184;04.12.57.718
12888;169077;33.12;185;04.12.57.718
12868;169069;33.12;186;04.12.57.718
12880;169082;33.12;187;04.12.57.728
12884;169081;33.12;188;04.12.57.728
12892;169074;33.12;189;04.12.57.728
12872;169073;33.12;190;04.12.57.728
12860;169065;33.12;191;04.12.57.728
12880;169064;33.12;192;04.12.57.728
12860;169074;33.12;193;04.12.57.728
12860;169074;33.12;194;04.12.57.728
12884;169072;33.12;195;04.12.57.728
12860;169067;33.12;196;04.12.57.728
12880;169065;33.12;197;04.12.57.728
12880;169068;33.12;198;04.12.57.728
12880;169066;33.12;199;04.12.57.728
12880;169070;33.12;200;04.12.57.816
12896;169063;33.12;201;04.12.57.816
12888;169073;33.12;202;04.12.57.816
12884;169069;33.12;203;04.12.57.816
12896;169074;33.12;204;04.12.57.816
12876;169075;33.12;205;04.12.57.816
12900;169077;33.12;206;04.12.57.816
12860;169070;33.12;207;04.12.57.816
12884;169086;33.12;208;04.12.57.849
12880;169071;33.12;209;04.12.57.849
12884;169073;33.12;210;04.12.57.849
12892;169073;33.12;211;04.12.57.849
12876;169080;33.12;212;04.12.57.849
12896;169078;33.12;213;04.12.57.849
12912;169084;33.12;214;04.12.57.849
12900;169081;33.12;215;04.12.57.849
12896;169072;33.12;216;04.12.57.849
12884;169079;33.12;217;04.12.57.849
12868;169081;33.12;218;04.12.57.860
12912;169087;33.12;219;04.12.57.860
12888;169082;33.12;220;04.12.57.860
12912;169080;33.12;221;04.12.57.860
12860;169089;33.12;222;04.12.57.860
12876;169091;33.12;223;04.12.57.860
12916;169092;33.12;224;04.12.57.860
12892;169092;33.12;225;04.12.57.948
12872;169096;33.12;226;04.12.57.948
12904;169094;33.12;227;04.12.57.948
12900;169100;33.12;228;04.12.57.948
12888;169086;33.12;229;04.12.57.948
12888;169097;33.12;230;04.12.57.959
12876;169103;33.12;231;04.12.57.959
12900;169112;33.12;232;04.12.57.959
12916;169100;33.12;233;04.12.57.959
12900;169105;33.12;234;04.12.57.959
12900;169102;33.12;235;04.12.57.959
12944;169105;33.12;236;04.12.57.959
12900;169109;33.12;237;04.12.57.959
12880;169116;33.12;238;04.12.57.959
12884;169117;33.12;239;04.12.57.959
12884;169108;33.12;240;04.12.57.959
12872;169112;33.12;241;04.12.57.959
12892;169120;33.12;242;04.12.57.959
12876;169108;33.12;243;04.12.57.970
12896;169115;33.12;244;04.12.57.970
12880;169120;33.12;245;04.12.57.970
12888;169118;33.12;246;04.12.57.970
12900;169126;33.12;247;04.12.57.970
12884;169115;33.12;248;04.12.57.970
12888;169116;33.12;249;04.12.57.970
12884;169121;33.12;250;04.12.58.068
12880;169116;33.12;251;04.12.58.079
12896;169121;33.12;252;04.12.58.079
12896;169127;33.12;253;04.12.58.079
12904;169120;33.12;254;04.12.58.079
12904;169118;33.12;255;04.12.58.079
12908;169123;33.12;256;04.12.58.079
12912;169126;33.12;257;04.12.58.079
12860;169137;33.12;258;04.12.58.079
12880;169136;33.12;259;04.12.58.079
12892;169138;33.12;260;04.12.58.090
12920;169135;33.12;261;04.12.58.090
12860;169143;33.12;262;04.12.58.090
12856;169143;33.12;263;04.12.58.090
12880;169147;33.12;264;04.12.58.090
12892;169143;33.12;265;04.12.58.090
12876;169148;33.12;266;04.12.58.090
12888;169145;33.12;267;04.12.58.090
12880;169150;33.12;268;04.12.58.090
12904;169147;33.12;269;04.12.58.101
12892;169148;33.12;270;04.12.58.101
12876;169144;33.12;271;04.12.58.101
12888;169146;33.12;272;04.12.58.101
12880;169154;33.12;273;04.12.58.101
12892;169151;33.12;274;04.12.58.101
12904;169150;33.12;275;04.12.58.187
12896;169159;33.12;276;04.12.58.187
12912;169154;33.12;277;04.12.58.187
12884;169164;33.12;278;04.12.58.187
12888;169155;33.12;279;04.12.58.187
12888;169152;33.12;280;04.12.58.187
12880;169159;33.12;281;04.12.58.187
12900;169156;33.12;282;04.12.58.187
12884;169159;33.12;283;04.12.58.198
12912;169158;33.12;284;04.12.58.198
12896;169158;33.12;285;04.12.58.198
12884;169157;33.12;286;04.12.58.198
12880;169152;33.12;287;04.12.58.198
12892;169157;33.12;288;04.12.58.198
12880;169144;33.12;289;04.12.58.198
12904;169147;33.12;290;04.12.58.209
12868;169142;33.12;291;04.12.58.209
12872;169137;33.12;292;04.12.58.209
12884;169141;33.12;293;04.12.58.209
12884;169133;33.12;294;04.12.58.209
12884;169125;33.12;295;04.12.58.209
12900;169125;33.12;296;04.12.58.209
12876;169118;33.12;297;04.12.58.209
12896;169120;33.12;298;04.12.58.209
12900;169115;33.12;299;04.12.58.209
12900;169109;33.12;300;04.12.58.308
12928;169115;33.12;301;04.12.58.308
12876;169101;33.12;302;04.12.58.308
12892;169098;33.12;303;04.12.58.308
12896;169099;33.12;304;04.12.58.308
12892;169096;33.12;305;04.12.58.318
12912;169091;33.12;306;04.12.58.318
12892;169092;33.12;307;04.12.58.318
12880;169088;33.12;308;04.12.58.318
12860;169094;33.12;309;04.12.58.318
12876;169072;33.12;310;04.12.58.318
12904;169085;33.12;311;04.12.58.318
12888;169092;33.12;312;04.12.58.318
12900;169087;33.12;313;04.12.58.318
12880;169087;33.12;314;04.12.58.318
12880;169086;33.12;315;04.12.58.318
12884;169088;33.12;316;04.12.58.318
12896;169082;33.12;317;04.12.58.318
12888;169081;33.12;318;04.12.58.329
12900;169087;33.12;319;04.12.58.329
12884;169084;33.12;320;04.12.58.329
12888;169085;33.12;321;04.12.58.329
12860;169082;33.12;322;04.12.58.329
12892;169088;33.12;323;04.12.58.329
12892;169085;33.12;324;04.12.58.329
12880;169092;33.12;325;04.12.58.428
12872;169076;33.12;326;04.12.58.439
12868;169083;33.12;327;04.12.58.439
12892;169086;33.12;328;04.12.58.439
12880;169082;33.12;329;04.12.58.439
12928;169085;33.12;330;04.12.58.439
12908;169087;33.12;331;04.12.58.439
12880;169087;33.12;332;04.12.58.439
12908;169089;33.12;333;04.12.58.439
12884;169094;33.12;334;04.12.58.439
12884;169096;33.12;335;04.12.58.439
12884;169088;33.12;336;04.12.58.439
12868;169096;33.12;337;04.12.58.439
12896;169092;33.12;338;04.12.58.439
12892;169103;33.12;339;04.12.58.439
12864;169098;33.12;340;04.12.58.450
12904;169095;33.12;341;04.12.58.450
12904;169093;33.12;342;04.12.58.450
12884;169090;33.12;343;04.12.58.450
12880;169087;33.12;344;04.12.58.450
12888;169084;33.12;345;04.12.58.450
12912;169085;33.12;346;04.12.58.450
12872;169091;33.12;347;04.12.58.450
12904;169093;33.12;348;04.12.58.450
12904;169080;33.12;349;04.12.58.450
12872;169093;33.12;350;04.12.58.571
12884;169094;33.12;351;04.12.58.571
12896;169096;33.12;352;04.12.58.571
12908;169090;33.12;353;04.12.58.571
12892;169091;33.12;354;04.12.58.571
12872;169093;33.12;355;04.12.58.571
12896;169097;33.12;356;04.12.58.571
12888;169097;33.12;357;04.12.58.571
12860;169084;33.12;358;04.12.58.571
12904;169097;33.12;359;04.12.58.571
12900;169094;33.12;360;04.12.58.571
12896;169097;33.12;361;04.12.58.582
12892;169091;33.12;362;04.12.58.582
12888;169092;33.12;363;04.12.58.582
12888;169103;33.12;364;04.12.58.582
12864;169098;33.12;365;04.12.58.582
12908;169101;33.12;366;04.12.58.582
12900;169099;33.12;367;04.12.58.582
12892;169096;33.12;368;04.12.58.582
12896;169100;33.12;369;04.12.58.582
12880;169103;33.12;370;04.12.58.582
12872;169101;33.12;371;04.12.58.582
12896;169102;33.12;372;04.12.58.582
12864;169111;33.12;373;04.12.58.582
12884;169112;33.12;374;04.12.58.593
12852;169115;33.12;375;04.12.58.713
12868;169118;33.12;376;04.12.58.713
12884;169128;33.12;377;04.12.58.713
12896;169132;33.12;378;04.12.58.713
12860;169127;33.12;379;04.12.58.713
12928;169127;33.12;380;04.12.58.713
12884;169131;33.12;381;04.12.58.713
12900;169133;33.12;382;04.12.58.724
12912;169141;33.12;383;04.12.58.724
12884;169148;33.12;384;04.12.58.724
12876;169143;33.12;385;04.12.58.724
12872;169140;33.12;386;04.12.58.724
12888;169148;33.12;387;04.12.58.724
12900;169153;33.12;388;04.12.58.724
12884;169157;33.12;389;04.12.58.724
12880;169161;33.12;390;04.12.58.724
12876;169163;33.12;391;04.12.58.724
12896;169165;33.12;392;04.12.58.724
12896;169174;33.12;393;04.12.58.724
12884;169181;33.12;394;04.12.58.735
12884;169182;33.12;395;04.12.58.735
12912;169181;33.12;396;04.12.58.735
12864;169191;33.12;397;04.12.58.735
12888;169188;33.12;398;04.12.58.735
12892;169197;33.12;399;04.12.58.735
12876;169205;33.12;400;04.12.58.812
12900;169208;33.12;401;04.12.58.812
12888;169212;33.12;402;04.12.58.812
12884;169209;33.12;403;04.12.58.823
12884;169211;33.12;404;04.12.58.823
12868;169216;33.12;405;04.12.58.823
12904;169211;33.12;406;04.12.58.823
12896;169220;33.12;407;04.12.58.823
12892;169215;33.12;408;04.12.58.834
12892;169214;33.12;409;04.12.58.834
12892;169219;33.12;410;04.12.58.834
12872;169220;33.12;411;04.12.58.834
12876;169225;33.12;412;04.12.58.845
12900;169219;33.12;413;04.12.58.845
12896;169223;33.12;414;04.12.58.845
12880;169229;33.12;415;04.12.58.845
12892;169222;33.12;416;04.12.58.845
12876;169228;33.12;417;04.12.58.845
12904;169238;33.12;418;04.12.58.845
12888;169227;33.12;419;04.12.58.845
12896;169234;33.12;420;04.12.58.845
12892;169228;33.12;421;04.12.58.845
12872;169228;33.12;422;04.12.58.845
12884;169232;33.12;423;04.12.58.845
12932;169230;33.12;424;04.12.58.856
12888;169239;33.12;425;04.12.58.944
12884;169232;33.12;426;04.12.58.944
12868;169234;33.12;427;04.12.58.944
12896;169234;33.12;428;04.12.58.944
12868;169236;33.12;429;04.12.58.944
12900;169230;33.12;430;04.12.58.944
12880;169232;33.12;431;04.12.58.944
12904;169226;33.12;432;04.12.58.944
12888;169221;33.12;433;04.12.58.944
12908;169222;33.12;434;04.12.58.944
12896;169229;33.12;435;04.12.58.944
12872;169229;33.12;436;04.12.58.944
12892;169239;33.12;437;04.12.58.955
12912;169237;33.12;438;04.12.58.955
12904;169224;33.12;439;04.12.58.955
12856;169235;33.12;440;04.12.58.955
12884;169243;33.12;441;04.12.58.955
12880;169246;33.12;442;04.12.58.955
12888;169241;33.12;443;04.12.58.955
12884;169246;33.12;444;04.12.58.955
12880;169232;33.12;445;04.12.58.955
12880;169245;33.12;446;04.12.58.955
12856;169247;33.12;447;04.12.58.955
12900;169247;33.12;448;04.12.58.955
12884;169251;33.12;449;04.12.58.955
12888;169245;33.12;450;04.12.59.065
12892;169250;33.12;451;04.12.59.065
12888;169256;33.12;452;04.12.59.065
12884;169243;33.12;453;04.12.59.065
12888;169250;33.12;454;04.12.59.065
12892;169254;33.12;455;04.12.59.065
12892;169253;33.12;456;04.12.59.065
12904;169257;33.12;457;04.12.59.065
12904;169254;33.12;458;04.12.59.065
12884;169256;33.12;459;04.12.59.075
12892;169261;33.12;460;04.12.59.075
12860;169263;33.12;461;04.12.59.075
12880;169265;33.12;462;04.12.59.075
12896;169271;33.12;463;04.12.59.075
12884;169269;33.12;464;04.12.59.075
12876;169268;33.12;465;04.12.59.075
12864;169252;33.12;466;04.12.59.075
12884;169255;33.12;467;04.12.59.075
12876;169255;33.12;468;04.12.59.075
12896;169248;33.12;469;04.12.59.075
12896;169241;33.12;470;04.12.59.075
12888;169247;33.12;471;04.12.59.075
12904;169244;33.12;472;04.12.59.086
12880;169233;33.12;473;04.12.59.086
12896;169230;33.12;474;04.12.59.086
12892;169225;33.12;475;04.12.59.196
12884;169222;33.12;476;04.12.59.196
12884;169217;33.12;477;04.12.59.196
12876;169213;33.12;478;04.12.59.196
12876;169214;33.12;479;04.12.59.196
12904;169208;33.12;480;04.12.59.207
12888;169204;33.12;481;04.12.59.207
12876;169202;33.12;482;04.12.59.207
12876;169202;33.12;483;04.12.59.207
12904;169206;33.12;484;04.12.59.207
12888;169203;33.12;485;04.12.59.207
12892;169195;33.12;486;04.12.59.207
12880;169187;33.12;487;04.12.59.207
12880;169179;33.12;488;04.12.59.207
12892;169183;33.12;489;04.12.59.207
12868;169182;33.12;490;04.12.59.207
12876;169190;33.12;491;04.12.59.207
12928;169179;33.12;492;04.12.59.218
12872;169186;33.12;493;04.12.59.218
12860;169182;33.12;494;04.12.59.218
12892;169176;33.12;495;04.12.59.218
12892;169177;33.12;496;04.12.59.218
12884;169176;33.12;497;04.12.59.229
12896;169181;33.12;498;04.12.59.229
12908;169175;33.12;499;04.12.59.229
12860;169172;33.12;500;04.12.59.305
12900;169168;33.12;501;04.12.59.316
12880;169171;33.12;502;04.12.59.316
12880;169167;33.12;503;04.12.59.316
12908;169167;33.12;504;04.12.59.316
12892;169158;33.12;505;04.12.59.316
12888;169156;33.12;506;04.12.59.316
12888;169162;33.12;507;04.12.59.316
12896;169160;33.12;508;04.12.59.327
12876;169156;33.12;509;04.12.59.327
12904;169159;33.12;510;04.12.59.327
12868;169150;33.12;511;04.12.59.327
12904;169157;33.12;512;04.12.59.327
12872;169147;33.12;513;04.12.59.327
12888;169147;33.12;514;04.12.59.327
12860;169151;33.12;515;04.12.59.327
12872;169149;33.12;516;04.12.59.327
12880;169147;33.12;517;04.12.59.327
12888;169152;33.12;518;04.12.59.338
12876;169143;33.12;519;04.12.59.338
12860;169152;33.12;520;04.12.59.338
12888;169150;33.12;521;04.12.59.338
12872;169150;33.12;522;04.12.59.338
12904;169145;33.12;523;04.12.59.338
12912;169148;33.12;524;04.12.59.338
12868;169149;33.16;525;04.12.59.437
12904;169147;33.16;526;04.12.59.437
12872;169141;33.16;527;04.12.59.437
12884;169146;33.16;528;04.12.59.437
12880;169141;33.16;529;04.12.59.437
12872;169147;33.16;530;04.12.59.437
12876;169149;33.16;531;04.12.59.437
12872;169138;33.16;532;04.12.59.437
12904;169147;33.16;533;04.12.59.437
12852;169142;33.16;534;04.12.59.437
12880;169135;33.16;535;04.12.59.448
12932;169140;33.16;536;04.12.59.448
12892;169142;33.16;537;04.12.59.448
12896;169137;33.16;538;04.12.59.448
12880;169139;33.16;539;04.12.59.448
12888;169142;33.16;540;04.12.59.448
12904;169138;33.16;541;04.12.59.448
12876;169146;33.16;542;04.12.59.448
12892;169149;33.16;543;04.12.59.448
12872;169146;33.16;544;04.12.59.448
12896;169151;33.16;545;04.12.59.448
12876;169143;33.16;546;04.12.59.448
12880;169146;33.16;547;04.12.59.448
12884;169148;33.16;548;04.12.59.448
12904;169144;33.16;549;04.12.59.459
12880;169147;33.16;550;04.12.59.568
12904;169146;33.16;551;04.12.59.568
12892;169146;33.16;552;04.12.59.568
12864;169151;33.16;553;04.12.59.568
12880;169161;33.16;554;04.12.59.568
12876;169154;33.16;555;04.12.59.568
12904;169158;33.16;556;04.12.59.579
12892;169154;33.16;557;04.12.59.579
12888;169154;33.16;558;04.12.59.579
12896;169152;33.16;559;04.12.59.579
12908;169156;33.16;560;04.12.59.579
12880;169158;33.16;561;04.12.59.579
12884;169156;33.16;562;04.12.59.579
12864;169172;33.16;563;04.12.59.579
12900;169155;33.16;564;04.12.59.579
12904;169162;33.16;565;04.12.59.579
12888;169157;33.16;566;04.12.59.579
12884;169154;33.16;567;04.12.59.579
12860;169165;33.16;568;04.12.59.579
12876;169157;33.16;569;04.12.59.590
12896;169160;33.16;570;04.12.59.590
12884;169172;33.16;571;04.12.59.590
12872;169171;33.16;572;04.12.59.590
12884;169167;33.16;573;04.12.59.590
12924;169160;33.16;574;04.12.59.590
12884;169168;33.12;575;04.12.59.689
12880;169169;33.12;576;04.12.59.689
12896;169170;33.12;577;04.12.59.700
12896;169167;33.12;578;04.12.59.700
12884;169168;33.12;579;04.12.59.700
12876;169175;33.12;580;04.12.59.700
12892;169170;33.12;581;04.12.59.700
12896;169172;33.12;582;04.12.59.700
12896;169176;33.12;583;04.12.59.700
12888;169172;33.12;584;04.12.59.700
12904;169176;33.12;585;04.12.59.700
12892;169177;33.12;586;04.12.59.700
12876;169180;33.12;587;04.12.59.700
12892;169173;33.12;588;04.12.59.700
12864;169176;33.12;589;04.12.59.700
12876;169175;33.12;590;04.12.59.700
12884;169176;33.12;591;04.12.59.711
12888;169181;33.12;592;04.12.59.711
12880;169189;33.12;593;04.12.59.711
12872;169179;33.12;594;04.12.59.711
12892;169188;33.12;595;04.12.59.711
12888;169183;33.12;596;04.12.59.711
12876;169193;33.12;597;04.12.59.711
12888;169187;33.12;598;04.12.59.711
12916;169189;33.12;599;04.12.59.711
12896;169194;33.12;600;04.12.59.832
12868;169190;33.12;601;04.12.59.832
12884;169187;33.12;602;04.12.59.832
12880;169199;33.12;603;04.12.59.832
12896;169182;33.12;604;04.12.59.832
12880;169201;33.12;605;04.12.59.832
12884;169198;33.12;606;04.12.59.832
12884;169194;33.12;607;04.12.59.832
12892;169196;33.12;608;04.12.59.832
12856;169207;33.12;609;04.12.59.832
12888;169200;33.12;610;04.12.59.832
12884;169204;33.12;611;04.12.59.843
12892;169208;33.12;612;04.12.59.843
12900;169200;33.12;613;04.12.59.843
12860;169205;33.12;614;04.12.59.843
12912;169206;33.12;615;04.12.59.843
12884;169211;33.12;616;04.12.59.843
12876;169216;33.12;617;04.12.59.843
12872;169217;33.12;618;04.12.59.843
12884;169214;33.12;619;04.12.59.843
12884;169206;33.12;620;04.12.59.843
12928;169220;33.12;621;04.12.59.843
12896;169216;33.12;622;04.12.59.843
12876;169215;33.12;623;04.12.59.843
12876;169217;33.12;624;04.12.59.854
12900;169219;33.12;625;04.12.59.941
12884;169223;33.12;626;04.12.59.941
12908;169225;33.12;627;04.12.59.941
12880;169223;33.12;628;04.12.59.941
12904;169219;33.12;629;04.12.59.941
12884;169225;33.12;630;04.12.59.941
12860;169222;33.12;631;04.12.59.941
12892;169224;33.12;632;04.12.59.941
12884;169230;33.12;633;04.12.59.952
12876;169222;33.12;634;04.12.59.952
12888;169224;33.12;635;04.12.59.952
12888;169222;33.12;636;04.12.59.952
12888;169239;33.12;637;04.12.59.952
12860;169232;33.12;638;04.12.59.952
12892;169226;33.12;639;04.12.59.952
12880;169231;33.12;640;04.12.59.952
12896;169229;33.12;641;04.12.59.963
12880;169240;33.12;642;04.12.59.963
12896;169228;33.12;643;04.12.59.963
12892;169239;33.12;644;04.12.59.963
12872;169236;33.12;645;04.12.59.963
12892;169240;33.12;646;04.12.59.963
12840;169244;33.12;647;04.12.59.963
12888;169254;33.12;648;04.12.59.963
12892;169248;33.12;649;04.12.59.963
12876;169250;33.12;650;04.13.00.062
12904;169251;33.12;651;04.13.00.062
12892;169247;33.12;652;04.13.00.062
12868;169250;33.12;653;04.13.00.062
12900;169256;33.12;654;04.13.00.062
12880;169249;33.12;655;04.13.00.073
12892;169247;33.12;656;04.13.00.073
12904;169253;33.12;657;04.13.00.073
12904;169256;33.12;658;04.13.00.073
12896;169258;33.12;659;04.13.00.073
12904;169247;33.12;660;04.13.00.073
12868;169254;33.12;661;04.13.00.073
12876;169248;33.12;662;04.13.00.073
12876;169245;33.12;663;04.13.00.073
12860;169240;33.12;664;04.13.00.073
12908;169246;33.12;665;04.13.00.073
12884;169237;33.12;666;04.13.00.073
12904;169235;33.12;667;04.13.00.073
12872;169236;33.12;668;04.13.00.084
12884;169228;33.12;669;04.13.00.084
12904;169223;33.12;670;04.13.00.084
12900;169217;33.12;671;04.13.00.084
12928;169200;33.12;672;04.13.00.084
12860;169197;33.12;673;04.13.00.084
12860;169202;33.12;674;04.13.00.084
12876;169201;33.16;675;04.13.00.183
12880;169200;33.16;676;04.13.00.194
12860;169199;33.16;677;04.13.00.194
12892;169198;33.16;678;04.13.00.194
12860;169179;33.16;679;04.13.00.194
12904;169185;33.16;680;04.13.00.194
12908;169185;33.16;681;04.13.00.194
12896;169174;33.16;682;04.13.00.194
12884;169174;33.16;683;04.13.00.194
12880;169169;33.16;684;04.13.00.194
12884;169179;33.16;685;04.13.00.194
12888;169172;33.16;686;04.13.00.194
12880;169174;33.16;687;04.13.00.194
12896;169173;33.16;688;04.13.00.194
12884;169167;33.16;689;04.13.00.205
12868;169171;33.16;690;04.13.00.205
12880;169170;33.16;691;04.13.00.205
12880;169169;33.16;692;04.13.00.205
12876;169172;33.16;693;04.13.00.205
12876;169175;33.16;694;04.13.00.205
12904;169169;33.16;695;04.13.00.205
12868;169164;33.16;696;04.13.00.205
12896;169162;33.16;697;04.13.00.205
12900;169174;33.16;698;04.13.00.205
12912;169164;33.16;699;04.13.00.205
12860;169162;33.16;700;04.13.00.325
12892;169166;33.16;701;04.13.00.325
12884;169160;33.16;702;04.13.00.325
12876;169161;33.16;703;04.13.00.325
12888;169164;33.16;704;04.13.00.325
12892;169162;33.16;705;04.13.00.325
12876;169157;33.16;706;04.13.00.325
12888;169159;33.16;707;04.13.00.325
12896;169170;33.16;708;04.13.00.325
12860;169153;33.16;709;04.13.00.336
12896;169158;33.16;710;04.13.00.336
12916;169164;33.16;711;04.13.00.336
12912;169164;33.16;712;04.13.00.336
12880;169155;33.16;713;04.13.00.336
12884;169157;33.16;714;04.13.00.336
12884;169159;33.16;715;04.13.00.336
12884;169158;33.16;716;04.13.00.336
12868;169167;33.16;717;04.13.00.336
12896;169165;33.16;718;04.13.00.336
12876;169165;33.16;719;04.13.00.336
12860;169160;33.16;720;04.13.00.336
12880;169165;33.16;721;04.13.00.336
12880;169168;33.16;722;04.13.00.336
12860;169161;33.16;723;04.13.00.347
12876;169168;33.16;724;04.13.00.347
12880;169166;33.08;725;04.13.00.435
12896;169166;33.08;726;04.13.00.435
12884;169167;33.08;727;04.13.00.435
12900;169163;33.08;728;04.13.00.435
12892;169159;33.08;729;04.13.00.435
12892;169168;33.08;730;04.13.00.435
12892;169160;33.08;731;04.13.00.435
12896;169165;33.08;732;04.13.00.446
12896;169166;33.08;733;04.13.00.446
12888;169162;33.08;734;04.13.00.446
12888;169159;33.08;735;04.13.00.446
12900;169156;33.08;736;04.13.00.446
12892;169157;33.08;737;04.13.00.446
12884;169161;33.08;738;04.13.00.446
12928;169164;33.08;739;04.13.00.457
12892;169163;33.08;740;04.13.00.457
12932;169162;33.08;741;04.13.00.457
12896;169168;33.08;742;04.13.00.457
12876;169163;33.08;743;04.13.00.457
12904;169164;33.08;744;04.13.00.457
12872;169175;33.08;745;04.13.00.457
12876;169169;33.08;746;04.13.00.457
12916;169170;33.08;747;04.13.00.457
12876;169171;33.08;748;04.13.00.457
12880;169182;33.08;749;04.13.00.457
12868;169176;33.08;750;04.13.00.556
12908;169177;33.08;751;04.13.00.556
12904;169176;33.08;752;04.13.00.556
12884;169171;33.08;753;04.13.00.567
12888;169182;33.08;754;04.13.00.567
12884;169175;33.08;755;04.13.00.567
12880;169186;33.08;756;04.13.00.567
12896;169176;33.08;757;04.13.00.567
12888;169175;33.08;758;04.13.00.567
12900;169173;33.08;759;04.13.00.567
12896;169181;33.08;760;04.13.00.567
12904;169187;33.08;761;04.13.00.567
12876;169181;33.08;762;04.13.00.567
12880;169178;33.08;763;04.13.00.567
12888;169184;33.08;764;04.13.00.567
12896;169185;33.08;765;04.13.00.567
12896;169176;33.08;766;04.13.00.578
12884;169193;33.08;767;04.13.00.589
12896;169186;33.08;768;04.13.00.589
12876;169191;33.08;769;04.13.00.589
12888;169196;33.08;770;04.13.00.600
12876;169195;33.08;771;04.13.00.600
12884;169198;33.08;772;04.13.00.600
12900;169203;33.08;773;04.13.00.600
12896;169200;33.08;774;04.13.00.600
12892;169196;33.12;775;04.13.00.698
12896;169205;33.12;776;04.13.00.698
12888;169209;33.12;777;04.13.00.698
12928;169202;33.12;778;04.13.00.698
12880;169211;33.12;779;04.13.00.698
12888;169213;33.12;780;04.13.00.698
12916;169213;33.12;781;04.13.00.698
12880;169200;33.12;782;04.13.00.698
12912;169217;33.12;783;04.13.00.698
12904;169215;33.12;784;04.13.00.698
12860;169215;33.12;785;04.13.00.698
12876;169219;33.12;786;04.13.00.698
12868;169228;33.12;787;04.13.00.709
12884;169227;33.12;788;04.13.00.709
12884;169223;33.12;789;04.13.00.709
12868;169226;33.12;790;04.13.00.709
12908;169232;33.12;791;04.13.00.709
12860;169224;33.12;792;04.13.00.709
12928;169225;33.12;793;04.13.00.709
12884;169227;33.12;794;04.13.00.709
12856;169234;33.12;795;04.13.00.709
12892;169239;33.12;796;04.13.00.709
12880;169236;33.12;797;04.13.00.709
12888;169237;33.12;798;04.13.00.709
12904;169240;33.12;799;04.13.00.709
12888;169243;33.12;800;04.13.00.819
12876;169236;33.12;801;04.13.00.819
12904;169244;33.12;802;04.13.00.819
12892;169248;33.12;803;04.13.00.819
12904;169244;33.12;804;04.13.00.819
12880;169242;33.12;805;04.13.00.819
12888;169241;33.12;806;04.13.00.819
12896;169246;33.12;807;04.13.00.819
12888;169248;33.12;808;04.13.00.841
12876;169242;33.12;809;04.13.00.841
12892;169249;33.12;810;04.13.00.841
12892;169253;33.12;811;04.13.00.841
12904;169257;33.12;812;04.13.00.841
12912;169260;33.12;813;04.13.00.841
12896;169261;33.12;814;04.13.00.841
12884;169257;33.12;815;04.13.00.841
12912;169261;33.12;816;04.13.00.841
12904;169259;33.12;817;04.13.00.863
12908;169269;33.12;818;04.13.00.863
12896;169266;33.12;819;04.13.00.863
12896;169273;33.12;820;04.13.00.863
12892;169262;33.12;821;04.13.00.863
12876;169270;33.12;822;04.13.00.863
12880;169271;33.12;823;04.13.00.863
12904;169270;33.12;824;04.13.00.863
12928;169270;33.12;825;04.13.00.961
12888;169276;33.12;826;04.13.00.961
12892;169275;33.12;827;04.13.00.961
12880;169288;33.12;828;04.13.00.961
12896;169291;33.12;829;04.13.00.972
12904;169298;33.12;830;04.13.00.972
12884;169281;33.12;831;04.13.00.972
12884;169290;33.12;832;04.13.00.972
12880;169292;33.12;833;04.13.00.972
12884;169298;33.12;834;04.13.00.972
12884;169299;33.12;835;04.13.00.972
12916;169304;33.12;836;04.13.00.972
12864;169307;33.12;837;04.13.00.972
12912;169309;33.12;838;04.13.00.972
12876;169309;33.12;839;04.13.00.972
12884;169308;33.12;840;04.13.00.972
12876;169307;33.12;841;04.13.00.983
12872;169314;33.12;842;04.13.00.983
12876;169314;33.12;843;04.13.00.983
12908;169309;33.12;844;04.13.00.983
12900;169311;33.12;845;04.13.00.983
12876;169301;33.12;846;04.13.00.983
12876;169300;33.12;847;04.13.00.983
12884;169302;33.12;848;04.13.00.983
12920;169292;33.12;849;04.13.00.983
12892;169297;33.12;850;04.13.01.070
12896;169292;33.12;851;04.13.01.070
12892;169291;33.12;852;04.13.01.070
12900;169280;33.12;853;04.13.01.070
12896;169279;33.12;854;04.13.01.070
12860;169280;33.12;855;04.13.01.070
12900;169272;33.12;856;04.13.01.070
12888;169268;33.12;857;04.13.01.070
12876;169259;33.12;858;04.13.01.103
12900;169263;33.12;859;04.13.01.103
12880;169254;33.12;860;04.13.01.103
12868;169262;33.12;861;04.13.01.103
12904;169252;33.12;862;04.13.01.103
12928;169247;33.12;863;04.13.01.103
12872;169246;33.12;864;04.13.01.103
12880;169246;33.12;865;04.13.01.103
12892;169246;33.12;866;04.13.01.103
12888;169237;33.12;867;04.13.01.103
12904;169249;33.12;868;04.13.01.103
12892;169241;33.12;869;04.13.01.103
12896;169245;33.12;870;04.13.01.114
12884;169244;33.12;871;04.13.01.114
12876;169256;33.12;872;04.13.01.114
12860;169245;33.12;873;04.13.01.114
12876;169252;33.12;874;04.13.01.114
12908;169241;33.12;875;04.13.01.191
12892;169256;33.12;876;04.13.01.191
12892;169256;33.12;877;04.13.01.191
12884;169250;33.12;878;04.13.01.191
12888;169261;33.12;879;04.13.01.191
12904;169256;33.12;880;04.13.01.191
12892;169255;33.12;881;04.13.01.191
12876;169253;33.12;882;04.13.01.191
12900;169254;33.12;883;04.13.01.191
12892;169258;33.12;884;04.13.01.191
12888;169259;33.12;885;04.13.01.202
12912;169251;33.12;886;04.13.01.202
12884;169256;33.12;887;04.13.01.202
12872;169264;33.12;888;04.13.01.202
12868;169260;33.12;889;04.13.01.202
12888;169257;33.12;890;04.13.01.202
12868;169264;33.12;891;04.13.01.202
12892;169266;33.12;892;04.13.01.202
12876;169265;33.12;893;04.13.01.202
12880;169266;33.12;894;04.13.01.202
12880;169261;33.12;895;04.13.01.202
12912;169264;33.12;896;04.13.01.202
12884;169276;33.12;897;04.13.01.213
12856;169281;33.12;898;04.13.01.213
12928;169277;33.12;899;04.13.01.213
12884;169270;33.12;900;04.13.01.334
12896;169277;33.12;901;04.13.01.334
12928;169271;33.12;902;04.13.01.334
12892;169286;33.12;903;04.13.01.334
12860;169277;33.12;904;04.13.01.334
12896;169281;33.12;905;04.13.01.345
12868;169279;33.12;906;04.13.01.345
12896;169282;33.12;907;04.13.01.345
12872;169278;33.12;908;04.13.01.345
12892;169278;33.12;909;04.13.01.345
12896;169279;33.12;910;04.13.01.345
12892;169287;33.12;911;04.13.01.345
12872;169287;33.12;912;04.13.01.345
12852;169287;33.12;913;04.13.01.345
12888;169295;33.12;914;04.13.01.345
12880;169291;33.12;915;04.13.01.345
12884;169288;33.12;916;04.13.01.345
12896;169286;33.12;917;04.13.01.366
12900;169294;33.12;918;04.13.01.366
12908;169294;33.12;919;04.13.01.366
12888;169290;33.12;920;04.13.01.366
12884;169286;33.12;921;04.13.01.366
12852;169290;33.12;922;04.13.01.377
12896;169296;33.12;923;04.13.01.377
12892;169298;33.12;924;04.13.01.377
12880;169291;33.12;925;04.13.01.432
12872;169299;33.12;926;04.13.01.432
12884;169304;33.12;927;04.13.01.443
12892;169298;33.12;928;04.13.01.443
12884;169307;33.12;929;04.13.01.443
12884;169315;33.12;930;04.13.01.443
12888;169314;33.12;931;04.13.01.443
12880;169303;33.12;932;04.13.01.443
12864;169306;33.12;933;04.13.01.454
12880;169309;33.12;934;04.13.01.454
12896;169314;33.12;935;04.13.01.454
12884;169317;33.12;936;04.13.01.454
12872;169313;33.12;937;04.13.01.454
12860;169326;33.12;938;04.13.01.454
12912;169324;33.12;939;04.13.01.454
12892;169330;33.12;940;04.13.01.454
12892;169333;33.12;941;04.13.01.454
12892;169334;33.12;942;04.13.01.454
12912;169332;33.12;943;04.13.01.454
12888;169345;33.12;944;04.13.01.454
12872;169336;33.12;945;04.13.01.454
12876;169352;33.12;946;04.13.01.454
12888;169349;33.12;947;04.13.01.465
12912;169346;33.12;948;04.13.01.465
12928;169347;33.12;949;04.13.01.465
12900;169351;33.12;950;04.13.01.564
12884;169357;33.12;951;04.13.01.564
12880;169351;33.12;952;04.13.01.564
12900;169357;33.12;953;04.13.01.564
12896;169367;33.12;954;04.13.01.564
12872;169367;33.12;955;04.13.01.564
12896;169363;33.12;956;04.13.01.564
12892;169365;33.12;957;04.13.01.564
12896;169377;33.12;958;04.13.01.564
12876;169377;33.12;959;04.13.01.564
12884;169379;33.12;960;04.13.01.564
12896;169378;33.12;961;04.13.01.575
12900;169387;33.12;962;04.13.01.575
12920;169393;33.12;963;04.13.01.575
12900;169394;33.12;964;04.13.01.575
12872;169400;33.12;965;04.13.01.575
12896;169396;33.12;966;04.13.01.575
12888;169398;33.12;967;04.13.01.575
12880;169407;33.12;968;04.13.01.575
12888;169403;33.12;969;04.13.01.575
12896;169411;33.12;970;04.13.01.575
12888;169410;33.12;971;04.13.01.575
12860;169425;33.12;972;04.13.01.575
12860;169423;33.12;973;04.13.01.575
12892;169427;33.12;974;04.13.01.575
12848;169428;33.12;975;04.13.01.685
12880;169431;33.12;976;04.13.01.685
12884;169439;33.12;977;04.13.01.685
12908;169436;33.12;978;04.13.01.685
12888;169434;33.12;979;04.13.01.685
12860;169437;33.12;980;04.13.01.685
12884;169441;33.12;981;04.13.01.685
12896;169446;33.12;982;04.13.01.685
12888;169453;33.12;983;04.13.01.696
12904;169456;33.12;984;04.13.01.696
12896;169460;33.12;985;04.13.01.696
12868;169461;33.12;986;04.13.01.696
12904;169469;33.12;987;04.13.01.696
12892;169474;33.12;988;04.13.01.696
12896;169473;33.12;989;04.13.01.696
12884;169477;33.12;990;04.13.01.696
12876;169471;33.12;991;04.13.01.696
12928;169480;33.12;992;04.13.01.696
12900;169482;33.12;993;04.13.01.696
12892;169484;33.12;994;04.13.01.696
12872;169478;33.12;995;04.13.01.696
12888;169480;33.12;996;04.13.01.707
12904;169486;33.12;997;04.13.01.707
12884;169482;33.12;998;04.13.01.707
12908;169496;33.12;999;04.13.01.707
12852;169491;33.12;000;04.13.01.816
12896;169495;33.12;001;04.13.01.816
12872;169494;33.12;002;04.13.01.816
12880;169496;33.12;003;04.13.01.827
12916;169502;33.12;004;04.13.01.827
12872;169504;33.12;005;04.13.01.827
12896;169506;33.12;006;04.13.01.827
12868;169510;33.12;007;04.13.01.827
12880;169517;33.12;008;04.13.01.827
12888;169528;33.12;009;04.13.01.827
12896;169526;33.12;010;04.13.01.827
12852;169533;33.12;011;04.13.01.827
12892;169524;33.12;012;04.13.01.827
12880;169534;33.12;013;04.13.01.827
12904;169532;33.12;014;04.13.01.827
12888;169547;33.12;015;04.13.01.827
12892;169538;33.12;016;04.13.01.838
12880;169543;33.12;017;04.13.01.838
12888;169543;33.12;018;04.13.01.838
12880;169545;33.12;019;04.13.01.838
12872;169549;33.12;020;04.13.01.838
12880;169549;33.12;021;04.13.01.838
12884;169538;33.12;022;04.13.01.838
12876;169544;33.12;023;04.13.01.838
12892;169545;33.12;024;04.13.01.838
12912;169539;33.16;025;04.13.01.951
12860;169529;33.16;026;04.13.01.951
12904;169530;33.16;027;04.13.01.951
12884;169524;33.16;028;04.13.01.962
12884;169519;33.16;029;04.13.01.962
12900;169525;33.16;030;04.13.01.962
12892;169520;33.16;031;04.13.01.962
12872;169517;33.16;032;04.13.01.962
12888;169511;33.16;033;04.13.01.962
12880;169506;33.16;034;04.13.01.962
12876;169507;33.16;035;04.13.01.962
12856;169507;33.16;036;04.13.01.962
12892;169504;33.16;037;04.13.01.962
12876;169505;33.16;038;04.13.01.962
12872;169507;33.16;039;04.13.01.962
12876;169500;33.16;040;04.13.01.962
12896;169498;33.16;041;04.13.01.975
12872;169494;33.16;042;04.13.01.975
12884;169493;33.16;043;04.13.01.975
12876;169492;33.16;044;04.13.01.975
12904;169491;33.16;045;04.13.01.975
12868;169486;33.16;046;04.13.01.975
12884;169478;33.16;047;04.13.01.975
12884;169484;33.16;048;04.13.01.975
12912;169479;33.16;049;04.13.01.975
12864;169481;33.16;050;04.13.02.085
12884;169484;33.16;051;04.13.02.085
12892;169495;33.16;052;04.13.02.096
12872;169489;33.16;053;04.13.02.096
12888;169493;33.16;054;04.13.02.096
12868;169491;33.16;055;04.13.02.096
12904;169493;33.16;056;04.13.02.096
12904;169495;33.16;057;04.13.02.096
12876;169494;33.16;058;04.13.02.096
12896;169489;33.16;059;04.13.02.096
12892;169492;33.16;060;04.13.02.096
12888;169492;33.16;061;04.13.02.107
12864;169495;33.16;062;04.13.02.107
12876;169504;33.16;063;04.13.02.107
12892;169494;33.16;064;04.13.02.107
12892;169498;33.16;065;04.13.02.107
12852;169494;33.16;066;04.13.02.107
12856;169500;33.16;067;04.13.02.107
12888;169498;33.16;068;04.13.02.107
12884;169505;33.16;069;04.13.02.107
12880;169502;33.16;070;04.13.02.107
12896;169506;33.16;071;04.13.02.107
12904;169503;33.16;072;04.13.02.107
12896;169506;33.16;073;04.13.02.107
12896;169513;33.16;074;04.13.02.118
12892;169506;33.12;075;04.13.02.194
12904;169518;33.12;076;04.13.02.194
12872;169516;33.12;077;04.13.02.194
12868;169517;33.12;078;04.13.02.194
12852;169520;33.12;079;04.13.02.194
12880;169521;33.12;080;04.13.02.194
12876;169514;33.12;081;04.13.02.194
12884;169509;33.12;082;04.13.02.194
12864;169516;33.12;083;04.13.02.205
12884;169511;33.12;084;04.13.02.205
12888;169520;33.12;085;04.13.02.205
12904;169517;33.12;086;04.13.02.205
12880;169522;33.12;087;04.13.02.205
12884;169517;33.12;088;04.13.02.205
12888;169519;33.12;089;04.13.02.205
12880;169527;33.12;090;04.13.02.205
12872;169531;33.12;091;04.13.02.205
12888;169532;33.12;092;04.13.02.227
12896;169540;33.12;093;04.13.02.227
12896;169530;33.12;094;04.13.02.227
12904;169541;33.12;095;04.13.02.227
12868;169533;33.12;096;04.13.02.227
12904;169531;33.12;097;04.13.02.227
12880;169530;33.12;098;04.13.02.227
12892;169540;33.12;099;04.13.02.227
12884;169538;33.12;100;04.13.02.326
12916;169543;33.12;101;04.13.02.326
12868;169539;33.12;102;04.13.02.326
12892;169534;33.12;103;04.13.02.326
12900;169537;33.12;104;04.13.02.326
12896;169544;33.12;105;04.13.02.326
12900;169537;33.12;106;04.13.02.326
12928;169545;33.12;107;04.13.02.337
12888;169545;33.12;108;04.13.02.337
12900;169542;33.12;109;04.13.02.337
12884;169544;33.12;110;04.13.02.337
12872;169546;33.12;111;04.13.02.337
12896;169540;33.12;112;04.13.02.337
12888;169545;33.12;113;04.13.02.337
12876;169548;33.12;114;04.13.02.337
12908;169542;33.12;115;04.13.02.337
12888;169546;33.12;116;04.13.02.337
12888;169546;33.12;117;04.13.02.359
12900;169545;33.12;118;04.13.02.359
12880;169548;33.12;119;04.13.02.359
12892;169544;33.12;120;04.13.02.359
12896;169543;33.12;121;04.13.02.359
12860;169547;33.12;122;04.13.02.359
12892;169544;33.12;123;04.13.02.359
12908;169543;33.12;124;04.13.02.359
12892;169551;33.12;125;04.13.02.447
12880;169545;33.12;126;04.13.02.447
12892;169552;33.12;127;04.13.02.447
12892;169551;33.12;128;04.13.02.447
12868;169550;33.12;129;04.13.02.447
12908;169560;33.12;130;04.13.02.448
12876;169558;33.12;131;04.13.02.449
12888;169553;33.12;132;04.13.02.460
12896;169559;33.12;133;04.13.02.460
12876;169564;33.12;134;04.13.02.460
12908;169555;33.12;135;04.13.02.460
12860;169561;33.12;136;04.13.02.460
12864;169562;33.12;137;04.13.02.460
12900;169565;33.12;138;04.13.02.460
12872;169560;33.12;139;04.13.02.460
12892;169562;33.12;140;04.13.02.460
12888;169565;33.12;141;04.13.02.471
12896;169571;33.12;142;04.13.02.471
12880;169572;33.12;143;04.13.02.471
12880;169566;33.12;144;04.13.02.471
12920;169567;33.12;145;04.13.02.471
12880;169577;33.12;146;04.13.02.471
12896;169576;33.12;147;04.13.02.471
12868;169578;33.12;148;04.13.02.471
12912;169582;33.12;149;04.13.02.471
12884;169583;33.12;150;04.13.02.580
12880;169589;33.12;151;04.13.02.580
12896;169585;33.12;152;04.13.02.591
12884;169596;33.12;153;04.13.02.591
12896;169592;33.12;154;04.13.02.591
12872;169597;33.12;155;04.13.02.591
12900;169596;33.12;156;04.13.02.591
12880;169602;33.12;157;04.13.02.591
12888;169606;33.12;158;04.13.02.591
12900;169602;33.12;159;04.13.02.591
12888;169607;33.12;160;04.13.02.591
12888;169611;33.12;161;04.13.02.591
12904;169617;33.12;162;04.13.02.591
12896;169613;33.12;163;04.13.02.591
12888;169612;33.12;164;04.13.02.591
12892;169610;33.12;165;04.13.02.602
12888;169616;33.12;166;04.13.02.602
12912;169617;33.12;167;04.13.02.602
12900;169620;33.12;168;04.13.02.602
12892;169613;33.12;169;04.13.02.602
12860;169618;33.12;170;04.13.02.602
12876;169616;33.12;171;04.13.02.602
12888;169612;33.12;172;04.13.02.602
12868;169616;33.12;173;04.13.02.602
12912;169605;33.12;174;04.13.02.602
12876;169605;33.16;175;04.13.02.690
12896;169610;33.16;176;04.13.02.690
12892;169607;33.16;177;04.13.02.690
12892;169606;33.16;178;04.13.02.690
12888;169614;33.16;179;04.13.02.690
12888;169612;33.16;180;04.13.02.690
12908;169614;33.16;181;04.13.02.690
12884;169614;33.16;182;04.13.02.690
12884;169608;33.16;183;04.13.02.690
12884;169610;33.16;184;04.13.02.690
12904;169618;33.16;185;04.13.02.690
12888;169614;33.16;186;04.13.02.690
12876;169617;33.16;187;04.13.02.690
12856;169621;33.16;188;04.13.02.701
12912;169629;33.16;189;04.13.02.701
12880;169616;33.16;190;04.13.02.701
12900;169628;33.16;191;04.13.02.701
12884;169626;33.16;192;04.13.02.722
12868;169628;33.16;193;04.13.02.722
12888;169635;33.16;194;04.13.02.722
12860;169626;33.16;195;04.13.02.722
12888;169635;33.16;196;04.13.02.722
12896;169642;33.16;197;04.13.02.722
12892;169643;33.16;198;04.13.02.722
12876;169645;33.16;199;04.13.02.722
12900;169641;33.16;200;04.13.02.810
12892;169657;33.16;201;04.13.02.810
12928;169650;33.16;202;04.13.02.810
12884;169654;33.16;203;04.13.02.810
12888;169650;33.16;204;04.13.02.810
12880;169660;33.16;205;04.13.02.810
12908;169653;33.16;206;04.13.02.810
12896;169661;33.16;207;04.13.02.820
12896;169665;33.16;208;04.13.02.820
12896;169657;33.16;209;04.13.02.820
12904;169656;33.16;210;04.13.02.820
12888;169652;33.16;211;04.13.02.820
12884;169641;33.16;212;04.13.02.820
12904;169642;33.16;213;04.13.02.820
12896;169637;33.16;214;04.13.02.820
12892;169629;33.16;215;04.13.02.831
12892;169629;33.16;216;04.13.02.831
12888;169620;33.16;217;04.13.02.831
12904;169627;33.16;218;04.13.02.831
12872;169620;33.16;219;04.13.02.831
12912;169614;33.16;220;04.13.02.831
12904;169606;33.16;221;04.13.02.831
12888;169599;33.16;222;04.13.02.831
12896;169597;33.16;223;04.13.02.831
12912;169603;33.16;224;04.13.02.831
12884;169591;33.12;225;04.13.02.940
12872;169588;33.12;226;04.13.02.940
12900;169594;33.12;227;04.13.02.951
12900;169584;33.12;228;04.13.02.951
12900;169580;33.12;229;04.13.02.951
12880;169574;33.12;230;04.13.02.951
12904;169568;33.12;231;04.13.02.951
12928;169570;33.12;232;04.13.02.951
12896;169568;33.12;233;04.13.02.951
12876;169565;33.12;234;04.13.02.951
12880;169571;33.12;235;04.13.02.951
12920;169568;33.12;236;04.13.02.951
12856;169566;33.12;237;04.13.02.951
12888;169566;33.12;238;04.13.02.951
12880;169556;33.12;239;04.13.02.951
12888;169565;33.12;240;04.13.02.962
12884;169563;33.12;241;04.13.02.962
12904;169558;33.12;242;04.13.02.962
12880;169558;33.12;243;04.13.02.962
12876;169560;33.12;244;04.13.02.962
12872;169565;33.12;245;04.13.02.973
12880;169566;33.12;246;04.13.02.973
12880;169554;33.12;247;04.13.02.973
12916;169560;33.12;248;04.13.02.973
12888;169563;33.12;249;04.13.02.973
12880;169559;33.12;250;04.13.03.083
12880;169561;33.12;251;04.13.03.083
12876;169561;33.12;252;04.13.03.083
12860;169558;33.12;253;04.13.03.083
12876;169557;33.12;254;04.13.03.083
12896;169557;33.12;255;04.13.03.083
12896;169558;33.12;256;04.13.03.083
12884;169563;33.12;257;04.13.03.083
12884;169571;33.12;258;04.13.03.094
12896;169567;33.12;259;04.13.03.094
12888;169568;33.12;260;04.13.03.094
12896;169573;33.12;261;04.13.03.094
12896;169569;33.12;262;04.13.03.094
12872;169575;33.12;263;04.13.03.094
12896;169577;33.12;264;04.13.03.094
12888;169575;33.12;265;04.13.03.094
12880;169571;33.12;266;04.13.03.094
12896;169569;33.12;267;04.13.03.094
12912;169570;33.12;268;04.13.03.094
12872;169573;33.12;269;04.13.03.094
12900;169567;33.12;270;04.13.03.105
12904;169581;33.12;271;04.13.03.105
12872;169572;33.12;272;04.13.03.105
12900;169577;33.12;273;04.13.03.105
12912;169582;33.12;274;04.13.03.105
12888;169580;33.12;275;04.13.03.193
12880;169578;33.12;276;04.13.03.193
12904;169580;33.12;277;04.13.03.193
12904;169579;33.12;278;04.13.03.193
12892;169584;33.12;279;04.13.03.193
12876;169574;33.12;280;04.13.03.193
12928;169572;33.12;281;04.13.03.193
12888;169577;33.12;282;04.13.03.193
12860;169585;33.12;283;04.13.03.204
12880;169578;33.12;284;04.13.03.204
12880;169583;33.12;285;04.13.03.204
12896;169585;33.12;286;04.13.03.204
12900;169588;33.12;287;04.13.03.204
12884;169580;33.12;288;04.13.03.204
12884;169590;33.12;289;04.13.03.204
12876;169589;33.12;290;04.13.03.204
12868;169588;33.12;291;04.13.03.215
12876;169589;33.12;292;04.13.03.215
12896;169592;33.12;293;04.13.03.215
12876;169597;33.12;294;04.13.03.215
12876;169592;33.12;295;04.13.03.215
12884;169595;33.12;296;04.13.03.215
12888;169600;33.12;297;04.13.03.215
12860;169603;33.12;298;04.13.03.215
12892;169611;33.12;299;04.13.03.215
12888;169613;33.12;300;04.13.03.313
12880;169606;33.12;301;04.13.03.313
12900;169620;33.12;302;04.13.03.313
12880;169615;33.12;303;04.13.03.313
12876;169623;33.12;304;04.13.03.313
12872;169613;33.12;305;04.13.03.324
12900;169621;33.12;306;04.13.03.324
12872;169630;33.12;307;04.13.03.324
12868;169635;33.12;308;04.13.03.324
12896;169632;33.12;309;04.13.03.324
12876;169630;33.12;310;04.13.03.324
12872;169636;33.12;311;04.13.03.324
12888;169635;33.12;312;04.13.03.324
12880;169639;33.12;313;04.13.03.324
12880;169642;33.12;314;04.13.03.324
12884;169643;33.12;315;04.13.03.324
12892;169642;33.12;316;04.13.03.324
12904;169639;33.12;317;04.13.03.346
12896;169641;33.12;318;04.13.03.346
12888;169645;33.12;319;04.13.03.346
12888;169655;33.12;320;04.13.03.346
12892;169646;33.12;321;04.13.03.357
12912;169649;33.12;322;04.13.03.357
12900;169653;33.12;323;04.13.03.357
12892;169655;33.12;324;04.13.03.357
12860;169662;33.12;325;04.13.03.434
12892;169646;33.12;326;04.13.03.445
12828;169654;33.12;327;04.13.03.445
12868;169662;33.12;328;04.13.03.445
12892;169666;33.12;329;04.13.03.445
12892;169665;33.12;330;04.13.03.445
12888;169664;33.12;331;04.13.03.445
12884;169661;33.12;332;04.13.03.445
12896;169669;33.12;333;04.13.03.445
12880;169666;33.12;334;04.13.03.445
12880;169669;33.12;335;04.13.03.445
12900;169674;33.12;336;04.13.03.445
12868;169672;33.12;337;04.13.03.445
12860;169683;33.12;338;04.13.03.445
12896;169679;33.12;339;04.13.03.456
12908;169673;33.12;340;04.13.03.456
12888;169683;33.12;341;04.13.03.456
12896;169677;33.12;342;04.13.03.456
12892;169679;33.12;343;04.13.03.456
12896;169679;33.12;344;04.13.03.456
12880;169669;33.12;345;04.13.03.456
12872;169674;33.12;346;04.13.03.456
12876;169677;33.12;347;04.13.03.456
12888;169678;33.12;348;04.13.03.456
12872;169688;33.12;349;04.13.03.456
12880;169681;33.12;350;04.13.03.577
12864;169679;33.12;351;04.13.03.577
12892;169682;33.12;352;04.13.03.577
12868;169684;33.12;353;04.13.03.577
12876;169687;33.12;354;04.13.03.577
12876;169680;33.12;355;04.13.03.577
12888;169686;33.12;356;04.13.03.577
12876;169683;33.12;357;04.13.03.577
12884;169683;33.12;358;04.13.03.577
12904;169679;33.12;359;04.13.03.577
12888;169688;33.12;360;04.13.03.588
12860;169692;33.12;361;04.13.03.588
12884;169687;33.12;362;04.13.03.588
12888;169688;33.12;363;04.13.03.588
12908;169693;33.12;364;04.13.03.588
12904;169699;33.12;365;04.13.03.588
12884;169697;33.12;366;04.13.03.588
12872;169688;33.12;367;04.13.03.588
12896;169695;33.12;368;04.13.03.588
12872;169697;33.12;369;04.13.03.588
12928;169694;33.12;370;04.13.03.588
12892;169695;33.12;371;04.13.03.588
12892;169696;33.12;372;04.13.03.588
12892;169699;33.12;373;04.13.03.599
12908;169701;33.12;374;04.13.03.599
12892;169700;33.12;375;04.13.03.686
12872;169703;33.12;376;04.13.03.686
12876;169707;33.12;377;04.13.03.686
12892;169702;33.12;378;04.13.03.686
12860;169700;33.12;379;04.13.03.686
12912;169693;33.12;380;04.13.03.697
12884;169703;33.12;381;04.13.03.697
12896;169704;33.12;382;04.13.03.697
12880;169689;33.12;383;04.13.03.697
12876;169694;33.12;384;04.13.03.697
12888;169693;33.12;385;04.13.03.697
12896;169695;33.12;386;04.13.03.697
12904;169697;33.12;387;04.13.03.697
12860;169695;33.12;388;04.13.03.697
12896;169686;33.12;389;04.13.03.697
12892;169690;33.12;390;04.13.03.708
12896;169691;33.12;391;04.13.03.708
12864;169689;33.12;392;04.13.03.708
12912;169691;33.12;393;04.13.03.708
12904;169687;33.12;394;04.13.03.708
12876;169676;33.12;395;04.13.03.708
12888;169676;33.12;396;04.13.03.708
12860;169677;33.12;397;04.13.03.708
12884;169667;33.12;398;04.13.03.708
12912;169664;33.12;399;04.13.03.708
12860;169647;33.12;400;04.13.03.818
12888;169644;33.12;401;04.13.03.818
12872;169640;33.12;402;04.13.03.818
12888;169630;33.12;403;04.13.03.818
12900;169621;33.12;404;04.13.03.829
12892;169621;33.12;405;04.13.03.829
12892;169610;33.12;406;04.13.03.829
12928;169610;33.12;407;04.13.03.829
12912;169592;33.12;408;04.13.03.840
12876;169590;33.12;409;04.13.03.840
12852;169586;33.12;410;04.13.03.851
12852;169572;33.12;411;04.13.03.851
12880;169566;33.12;412;04.13.03.851
12896;169575;33.12;413;04.13.03.851
12896;169554;33.12;414;04.13.03.851
12860;169555;33.12;415;04.13.03.851
12908;169550;33.12;416;04.13.03.851
12904;169548;33.12;417;04.13.03.851
12896;169543;33.12;418;04.13.03.851
12876;169540;33.12;419;04.13.03.851
12880;169537;33.12;420;04.13.03.851
12884;169528;33.12;421;04.13.03.851
12908;169533;33.12;422;04.13.03.851
12888;169533;33.12;423;04.13.03.851
12908;169523;33.12;424;04.13.03.861
12868;169524;33.12;425;04.13.03.949
12888;169521;33.12;426;04.13.03.949
12860;169520;33.12;427;04.13.03.949
12892;169519;33.12;428;04.13.03.949
12872;169522;33.12;429;04.13.03.949
12880;169513;33.12;430;04.13.03.949
12896;169519;33.12;431;04.13.03.949
12896;169523;33.12;432;04.13.03.949
12880;169514;33.12;433;04.13.03.949
12880;169509;33.12;434;04.13.03.949
12860;169508;33.12;435;04.13.03.949
12880;169513;33.12;436;04.13.03.949
12888;169509;33.12;437;04.13.03.949
12880;169503;33.12;438;04.13.03.960
12892;169501;33.12;439;04.13.03.960
12884;169499;33.12;440;04.13.03.960
12900;169492;33.12;441;04.13.03.960
12912;169496;33.12;442;04.13.03.960
12896;169497;33.12;443;04.13.03.960
12880;169485;33.12;444;04.13.03.960
12892;169487;33.12;445;04.13.03.960
12896;169488;33.12;446;04.13.03.960
12880;169486;33.12;447;04.13.03.960
12864;169488;33.12;448;04.13.03.960
12900;169484;33.12;449;04.13.03.960
12892;169483;33.12;450;04.13.04.071
12928;169484;33.12;451;04.13.04.071
12892;169484;33.12;452;04.13.04.071
12892;169486;33.12;453;04.13.04.071
12872;169480;33.12;454;04.13.04.071
12928;169476;33.12;455;04.13.04.071
12892;169467;33.12;456;04.13.04.071
12928;169475;33.12;457;04.13.04.071
12896;169461;33.12;458;04.13.04.071
12892;169465;33.12;459;04.13.04.082
12888;169469;33.12;460;04.13.04.082
12892;169464;33.12;461;04.13.04.082
12904;169464;33.12;462;04.13.04.082
12860;169461;33.12;463;04.13.04.082
12896;169464;33.12;464;04.13.04.082
12896;169455;33.12;465;04.13.04.082
12892;169458;33.12;466;04.13.04.082
12896;169460;33.12;467;04.13.04.082
12896;169446;33.12;468;04.13.04.082
12884;169458;33.12;469;04.13.04.082
12904;169447;33.12;470;04.13.04.082
12892;169453;33.12;471;04.13.04.082
12860;169453;33.12;472;04.13.04.093
12904;169451;33.12;473;04.13.04.093
12892;169446;33.12;474;04.13.04.093
12860;169448;33.16;475;04.13.04.202
12872;169444;33.16;476;04.13.04.202
12876;169448;33.16;477;04.13.04.202
12860;169456;33.16;478;04.13.04.202
12900;169447;33.16;479;04.13.04.202
12892;169450;33.16;480;04.13.04.213
12888;169442;33.16;481;04.13.04.213
12864;169451;33.16;482;04.13.04.213
12912;169446;33.16;483;04.13.04.213
12884;169444;33.16;484;04.13.04.213
12868;169448;33.16;485;04.13.04.213
12884;169437;33.16;486;04.13.04.213
12884;169442;33.16;487;04.13.04.213
12896;169442;33.16;488;04.13.04.213
12884;169440;33.16;489;04.13.04.213
12876;169447;33.16;490;04.13.04.213
12908;169445;33.16;491;04.13.04.213
12868;169445;33.16;492;04.13.04.213
12880;169444;33.16;493;04.13.04.224
12860;169452;33.16;494;04.13.04.224
12900;169447;33.16;495;04.13.04.224
12908;169444;33.16;496;04.13.04.224
12892;169446;33.16;497;04.13.04.224
12880;169459;33.16;498;04.13.04.224
12888;169448;33.16;499;04.13.04.224
12880;169448;33.16;500;04.13.04.312
12840;169439;33.16;501;04.13.04.323
12888;169450;33.16;502;04.13.04.323
12896;169458;33.16;503;04.13.04.323
12912;169453;33.16;504;04.13.04.323
12888;169452;33.16;505;04.13.04.323
12896;169445;33.16;506;04.13.04.323
12896;169450;33.16;507;04.13.04.323
12912;169452;33.16;508;04.13.04.333
12880;169449;33.16;509;04.13.04.333
12864;169459;33.16;510;04.13.04.333
12892;169455;33.16;511;04.13.04.333
12876;169459;33.16;512;04.13.04.333
12892;169459;33.16;513;04.13.04.333
12888;169466;33.16;514;04.13.04.333
12884;169457;33.16;515;04.13.04.333
12892;169462;33.16;516;04.13.04.333
12864;169455;33.16;517;04.13.04.333
12896;169460;33.16;518;04.13.04.344
12896;169454;33.16;519;04.13.04.344
12892;169458;33.16;520;04.13.04.344
12892;169462;33.16;521;04.13.04.344
12880;169458;33.16;522;04.13.04.344
12896;169463;33.16;523;04.13.04.344
12896;169459;33.16;524;04.13.04.344
12864;169461;33.12;525;04.13.04.442
12872;169458;33.12;526;04.13.04.442
12892;169463;33.12;527;04.13.04.442
12888;169461;33.12;528;04.13.04.442
12888;169466;33.12;529;04.13.04.442
12868;169460;33.12;530;04.13.04.442
12888;169464;33.12;531;04.13.04.442
12868;169461;33.12;532;04.13.04.442
12868;169462;33.12;533;04.13.04.442
12896;169462;33.12;534;04.13.04.453
12892;169462;33.12;535;04.13.04.453
12872;169453;33.12;536;04.13.04.453
12880;169457;33.12;537;04.13.04.453
12876;169467;33.12;538;04.13.04.453
12860;169461;33.12;539;04.13.04.453
12888;169462;33.12;540;04.13.04.453
12880;169469;33.12;541;04.13.04.453
12872;169463;33.12;542;04.13.04.453
12896;169470;33.12;543;04.13.04.453
12880;169460;33.12;544;04.13.04.453
12900;169463;33.12;545;04.13.04.453
12872;169464;33.12;546;04.13.04.453
12896;169473;33.12;547;04.13.04.464
12900;169469;33.12;548;04.13.04.464
12924;169471;33.12;549;04.13.04.464
12896;169466;33.12;550;04.13.04.607
12884;169471;33.12;551;04.13.04.607
12876;169472;33.12;552;04.13.04.607
12876;169465;33.12;553;04.13.04.607
12880;169475;33.12;554;04.13.04.618
12864;169478;33.12;555;04.13.04.618
12880;169482;33.12;556;04.13.04.618
12876;169470;33.12;557;04.13.04.618
12860;169478;33.12;558;04.13.04.618
12896;169471;33.12;559;04.13.04.618
12904;169471;33.12;560;04.13.04.618
12888;169482;33.12;561;04.13.04.618
12896;169481;33.12;562;04.13.04.618
12860;169477;33.12;563;04.13.04.618
12876;169478;33.12;564;04.13.04.618
12884;169474;33.12;565;04.13.04.618
12860;169475;33.12;566;04.13.04.618
12896;169484;33.12;567;04.13.04.629
12896;169480;33.12;568;04.13.04.629
12880;169484;33.12;569;04.13.04.629
12900;169472;33.12;570;04.13.04.629
12884;169492;33.12;571;04.13.04.629
12900;169491;33.12;572;04.13.04.629
12900;169496;33.12;573;04.13.04.629
12908;169490;33.12;574;04.13.04.629
12896;169488;33.12;575;04.13.04.694
12880;169489;33.12;576;04.13.04.694
12884;169493;33.12;577;04.13.04.705
12868;169483;33.12;578;04.13.04.705
12896;169486;33.12;579;04.13.04.705
12904;169482;33.12;580;04.13.04.705
12876;169479;33.12;581;04.13.04.705
12896;169471;33.12;582;04.13.04.705
12892;169464;33.12;583;04.13.04.705
12884;169460;33.12;584;04.13.04.705
12892;169457;33.12;585;04.13.04.705
12880;169454;33.12;586;04.13.04.705
12904;169451;33.12;587;04.13.04.705
12892;169449;33.12;588;04.13.04.705
12888;169441;33.12;589;04.13.04.705
12892;169440;33.12;590;04.13.04.716
12904;169439;33.12;591;04.13.04.716
12880;169425;33.12;592;04.13.04.716
12876;169423;33.12;593;04.13.04.716
12896;169427;33.12;594;04.13.04.716
12872;169407;33.12;595;04.13.04.716
12892;169414;33.12;596;04.13.04.716
12896;169414;33.12;597;04.13.04.716
12888;169401;33.12;598;04.13.04.716
12892;169397;33.12;599;04.13.04.716
12896;169387;33.12;600;04.13.04.815
12904;169391;33.12;601;04.13.04.815
12876;169392;33.12;602;04.13.04.815
12888;169385;33.12;603;04.13.04.815
12892;169387;33.12;604;04.13.04.815
12896;169385;33.12;605;04.13.04.815
12888;169389;33.12;606;04.13.04.815
12892;169390;33.12;607;04.13.04.815
12872;169387;33.12;608;04.13.04.837
12880;169384;33.12;609;04.13.04.837
12864;169384;33.12;610;04.13.04.837
12900;169380;33.12;611;04.13.04.837
12904;169390;33.12;612;04.13.04.837
12884;169375;33.12;613;04.13.04.837
12884;169381;33.12;614;04.13.04.837
12856;169374;33.12;615;04.13.04.837
12892;169384;33.12;616;04.13.04.837
12880;169377;33.12;617;04.13.04.837
12876;169375;33.12;618;04.13.04.837
12884;169371;33.12;619;04.13.04.837
12880;169384;33.12;620;04.13.04.848
12896;169369;33.12;621;04.13.04.848
12884;169361;33.12;622;04.13.04.848
12916;169368;33.12;623;04.13.04.848
12924;169361;33.12;624;04.13.04.848
12884;169363;33.12;625;04.13.04.936
12896;169364;33.12;626;04.13.04.936
12876;169357;33.12;627;04.13.04.936
12896;169354;33.12;628;04.13.04.936
12880;169357;33.12;629;04.13.04.936
12912;169361;33.12;630;04.13.04.936
12892;169360;33.12;631;04.13.04.936
12876;169357;33.12;632;04.13.04.936
12860;169361;33.12;633;04.13.04.947
12868;169363;33.12;634;04.13.04.947
12892;169359;33.12;635;04.13.04.947
12912;169366;33.12;636;04.13.04.947
12904;169366;33.12;637;04.13.04.947
12896;169358;33.12;638;04.13.04.947
12904;169355;33.12;639;04.13.04.947
12908;169364;33.12;640;04.13.04.947
12904;169366;33.12;641;04.13.04.947
12896;169361;33.12;642;04.13.04.947
12904;169360;33.12;643;04.13.04.947
12928;169360;33.12;644;04.13.04.947
12904;169350;33.12;645;04.13.04.958
12892;169350;33.12;646;04.13.04.958
12892;169349;33.12;647;04.13.04.958
12876;169348;33.12;648;04.13.04.958
12900;169348;33.12;649;04.13.04.958
12896;169351;33.12;650;04.13.05.067
12888;169347;33.12;651;04.13.05.067
12876;169357;33.12;652;04.13.05.067
12892;169350;33.12;653;04.13.05.078
12872;169336;33.12;654;04.13.05.078
12880;169344;33.12;655;04.13.05.078
12876;169344;33.12;656;04.13.05.078
12904;169344;33.12;657;04.13.05.078
12880;169342;33.12;658;04.13.05.078
12872;169339;33.12;659;04.13.05.078
12876;169340;33.12;660;04.13.05.078
12888;169338;33.12;661;04.13.05.078
12896;169340;33.12;662;04.13.05.078
12892;169334;33.12;663;04.13.05.078
12884;169333;33.12;664;04.13.05.078
12884;169339;33.12;665;04.13.05.089
12860;169336;33.12;666;04.13.05.089
12912;169340;33.12;667;04.13.05.089
12884;169341;33.12;668;04.13.05.089
12876;169350;33.12;669;04.13.05.089
12872;169337;33.12;670;04.13.05.089
12876;169341;33.12;671;04.13.05.089
12880;169340;33.12;672;04.13.05.089
12892;169342;33.12;673;04.13.05.089
12908;169343;33.12;674;04.13.05.089
12912;169341;33.12;675;04.13.05.209
12860;169341;33.12;676;04.13.05.209
12912;169339;33.12;677;04.13.05.209
12880;169331;33.12;678;04.13.05.209
12892;169340;33.12;679;04.13.05.209
12916;169356;33.12;680;04.13.05.209
12872;169349;33.12;681;04.13.05.209
12888;169353;33.12;682;04.13.05.209
12876;169356;33.12;683;04.13.05.209
12868;169355;33.12;684;04.13.05.209
12880;169351;33.12;685;04.13.05.209
12892;169355;33.12;686;04.13.05.209
12876;169358;33.12;687;04.13.05.220
12888;169354;33.12;688;04.13.05.220
12912;169357;33.12;689;04.13.05.220
12876;169352;33.12;690;04.13.05.220
12892;169357;33.12;691;04.13.05.220
12884;169357;33.12;692;04.13.05.220
12888;169358;33.12;693;04.13.05.220
12888;169362;33.12;694;04.13.05.220
12896;169363;33.12;695;04.13.05.220
12888;169367;33.12;696;04.13.05.220
12884;169359;33.12;697;04.13.05.220
12916;169364;33.12;698;04.13.05.220
12892;169370;33.12;699;04.13.05.220
12900;169368;33.12;700;04.13.05.319
12860;169370;33.12;701;04.13.05.319
12896;169375;33.12;702;04.13.05.319
12888;169371;33.12;703;04.13.05.319
12880;169374;33.12;704;04.13.05.319
12860;169372;33.12;705;04.13.05.319
12892;169376;33.12;706;04.13.05.319
12904;169377;33.12;707;04.13.05.319
12908;169375;33.12;708;04.13.05.330
12884;169381;33.12;709;04.13.05.330
12864;169377;33.12;710;04.13.05.330
12908;169377;33.12;711;04.13.05.330
12876;169375;33.12;712;04.13.05.330
12896;169380;33.12;713;04.13.05.330
12864;169377;33.12;714;04.13.05.330
12860;169378;33.12;715;04.13.05.340
12896;169387;33.12;716;04.13.05.340
12912;169383;33.12;717;04.13.05.340
12892;169384;33.12;718;04.13.05.340
12900;169380;33.12;719;04.13.05.340
12896;169383;33.12;720;04.13.05.340
12884;169383;33.12;721;04.13.05.340
12880;169386;33.12;722;04.13.05.340
12860;169391;33.12;723;04.13.05.340
12900;169394;33.12;724;04.13.05.340
12884;169394;33.16;725;04.13.05.439
12900;169387;33.16;726;04.13.05.439
12912;169394;33.16;727;04.13.05.439
12908;169396;33.16;728;04.13.05.439
12892;169400;33.16;729;04.13.05.450
12868;169392;33.16;730;04.13.05.450
12880;169399;33.16;731;04.13.05.450
12892;169391;33.16;732;04.13.05.450
12884;169392;33.16;733;04.13.05.450
12892;169394;33.16;734;04.13.05.450
12876;169394;33.16;735;04.13.05.450
12876;169387;33.16;736;04.13.05.450
12896;169400;33.16;737;04.13.05.450
12884;169395;33.16;738;04.13.05.461
12852;169398;33.16;739;04.13.05.461
12896;169396;33.16;740;04.13.05.461
12892;169405;33.16;741;04.13.05.461
12888;169408;33.16;742;04.13.05.472
12892;169408;33.16;743;04.13.05.472
12868;169408;33.16;744;04.13.05.472
12876;169403;33.16;745;04.13.05.472
12912;169402;33.16;746;04.13.05.483
12900;169405;33.16;747;04.13.05.483
12888;169402;33.16;748;04.13.05.483
12876;169411;33.16;749;04.13.05.483
12860;169418;33.16;750;04.13.05.570
12876;169413;33.16;751;04.13.05.570
12884;169407;33.16;752;04.13.05.570
12884;169414;33.16;753;04.13.05.570
12880;169416;33.16;754;04.13.05.570
12884;169412;33.16;755;04.13.05.570
12884;169410;33.16;756;04.13.05.570
12880;169408;33.16;757;04.13.05.570
12932;169410;33.16;758;04.13.05.570
12876;169404;33.16;759;04.13.05.570
12912;169404;33.16;760;04.13.05.570
12880;169402;33.16;761;04.13.05.570
12896;169387;33.16;762;04.13.05.570
12944;169381;33.16;763;04.13.05.581
12876;169379;33.16;764;04.13.05.581
12852;169374;33.16;765;04.13.05.581
12860;169368;33.16;766;04.13.05.581
12884;169365;33.16;767;04.13.05.581
12876;169362;33.16;768;04.13.05.581
12896;169355;33.16;769;04.13.05.581
12916;169351;33.16;770;04.13.05.581
12892;169347;33.16;771;04.13.05.581
12904;169342;33.16;772;04.13.05.581
12908;169334;33.16;773;04.13.05.581
12920;169340;33.16;774;04.13.05.581
12896;169337;33.12;775;04.13.05.713
12860;169338;33.12;776;04.13.05.713
12888;169322;33.12;777;04.13.05.713
12880;169320;33.12;778;04.13.05.713
12928;169326;33.12;779;04.13.05.713
12860;169317;33.12;780;04.13.05.713
12912;169323;33.12;781;04.13.05.713
12892;169322;33.12;782;04.13.05.713
12904;169320;33.12;783;04.13.05.713
12892;169314;33.12;784;04.13.05.724
12880;169305;33.12;785;04.13.05.724
12912;169309;33.12;786;04.13.05.724
12900;169305;33.12;787;04.13.05.724
12892;169307;33.12;788;04.13.05.724
12892;169305;33.12;789;04.13.05.724
12892;169314;33.12;790;04.13.05.724
12876;169304;33.12;791;04.13.05.724
12884;169302;33.12;792;04.13.05.724
12892;169304;33.12;793;04.13.05.724
12900;169300;33.12;794;04.13.05.724
12872;169301;33.12;795;04.13.05.724
12892;169303;33.12;796;04.13.05.724
12892;169289;33.12;797;04.13.05.735
12864;169293;33.12;798;04.13.05.735
12900;169293;33.12;799;04.13.05.735
12892;169283;33.12;800;04.13.05.834
12880;169295;33.12;801;04.13.05.834
12880;169287;33.12;802;04.13.05.834
12896;169289;33.12;803;04.13.05.834
12856;169285;33.12;804;04.13.05.834
12884;169289;33.12;805;04.13.05.834
12908;169289;33.12;806;04.13.05.845
12884;169294;33.12;807;04.13.05.845
12908;169287;33.12;808;04.13.05.845
12888;169281;33.12;809;04.13.05.845
12872;169286;33.12;810;04.13.05.845
12896;169284;33.12;811;04.13.05.845
12884;169290;33.12;812;04.13.05.845
12908;169284;33.12;813;04.13.05.845
12892;169293;33.12;814;04.13.05.845
12884;169289;33.12;815;04.13.05.845
12892;169295;33.12;816;04.13.05.845
12860;169294;33.12;817;04.13.05.845
12900;169290;33.12;818;04.13.05.845
12888;169289;33.12;819;04.13.05.856
12892;169280;33.12;820;04.13.05.856
12896;169283;33.12;821;04.13.05.856
12860;169281;33.12;822;04.13.05.856
12888;169283;33.12;823;04.13.05.856
12904;169284;33.12;824;04.13.05.856
12864;169278;33.12;825;04.13.05.933
12892;169280;33.12;826;04.13.05.933
12896;169272;33.12;827;04.13.05.944
12888;169276;33.12;828;04.13.05.944
12908;169278;33.12;829;04.13.05.944
12892;169282;33.12;830;04.13.05.944
12892;169273;33.12;831;04.13.05.944
12880;169270;33.12;832;04.13.05.944
12896;169278;33.12;833;04.13.05.944
12880;169276;33.12;834;04.13.05.944
12896;169272;33.12;835;04.13.05.944
12884;169276;33.12;836;04.13.05.954
12892;169269;33.12;837;04.13.05.954
12884;169270;33.12;838;04.13.05.954
12892;169273;33.12;839;04.13.05.954
12896;169279;33.12;840;04.13.05.954
12912;169280;33.12;841;04.13.05.954
12892;169282;33.12;842;04.13.05.965
12892;169282;33.12;843;04.13.05.965
12880;169280;33.12;844;04.13.05.976
12876;169280;33.12;845;04.13.05.976
12892;169275;33.12;846;04.13.05.976
12900;169278;33.12;847;04.13.05.976
12884;169277;33.12;848;04.13.05.976
12912;169277;33.12;849;04.13.05.976
12896;169280;33.12;850;04.13.06.064
12884;169276;33.12;851;04.13.06.064
12904;169282;33.12;852;04.13.06.064
12900;169285;33.12;853;04.13.06.064
12872;169277;33.12;854;04.13.06.064
12908;169270;33.12;855;04.13.06.064
12888;169278;33.12;856;04.13.06.064
12888;169284;33.12;857;04.13.06.064
12884;169288;33.12;858;04.13.06.064
12920;169285;33.12;859;04.13.06.064
12904;169278;33.12;860;04.13.06.064
12868;169286;33.12;861;04.13.06.075
12896;169287;33.12;862;04.13.06.075
12860;169287;33.12;863;04.13.06.075
12896;169289;33.12;864;04.13.06.075
12896;169296;33.12;865;04.13.06.075
12908;169292;33.12;866;04.13.06.075
12896;169295;33.12;867;04.13.06.075
12876;169292;33.12;868;04.13.06.075
12864;169294;33.12;869;04.13.06.075
12860;169293;33.12;870;04.13.06.075
12900;169297;33.12;871;04.13.06.075
12896;169299;33.12;872;04.13.06.075
12888;169302;33.12;873;04.13.06.075
12900;169302;33.12;874;04.13.06.086
12872;169301;33.12;875;04.13.06.196
12876;169302;33.12;876;04.13.06.196
12872;169296;33.12;877;04.13.06.196
12880;169304;33.12;878;04.13.06.196
12876;169298;33.12;879;04.13.06.196
12904;169300;33.12;880;04.13.06.196
12876;169294;33.12;881;04.13.06.196
12872;169302;33.12;882;04.13.06.207
12888;169305;33.12;883;04.13.06.207
12876;169301;33.12;884;04.13.06.207
12896;169306;33.12;885;04.13.06.207
12876;169307;33.12;886;04.13.06.207
12904;169304;33.12;887;04.13.06.207
12900;169307;33.12;888;04.13.06.207
12908;169314;33.12;889;04.13.06.207
12928;169313;33.12;890;04.13.06.207
12900;169308;33.12;891;04.13.06.207
12884;169311;33.12;892;04.13.06.207
12860;169316;33.12;893;04.13.06.207
12912;169314;33.12;894;04.13.06.207
12904;169322;33.12;895;04.13.06.218
12868;169318;33.12;896;04.13.06.218
12888;169326;33.12;897;04.13.06.218
12880;169323;33.12;898;04.13.06.218
12876;169320;33.12;899;04.13.06.218
12880;169324;33.12;900;04.13.06.338
12908;169318;33.12;901;04.13.06.338
12876;169329;33.12;902;04.13.06.338
12876;169324;33.12;903;04.13.06.338
12876;169319;33.12;904;04.13.06.349
12844;169323;33.12;905;04.13.06.349
12912;169323;33.12;906;04.13.06.349
12876;169331;33.12;907;04.13.06.349
12896;169328;33.12;908;04.13.06.349
12888;169319;33.12;909;04.13.06.349
12896;169332;33.12;910;04.13.06.349
12896;169325;33.12;911;04.13.06.349
12864;169334;33.12;912;04.13.06.349
12892;169334;33.12;913;04.13.06.349
12872;169338;33.12;914;04.13.06.349
12896;169332;33.12;915;04.13.06.349
12872;169339;33.12;916;04.13.06.349
12880;169344;33.12;917;04.13.06.360
12880;169344;33.12;918;04.13.06.360
12904;169338;33.12;919;04.13.06.360
12896;169338;33.12;920;04.13.06.360
12896;169328;33.12;921;04.13.06.360
12912;169344;33.12;922;04.13.06.360
12892;169348;33.12;923;04.13.06.360
12904;169351;33.12;924;04.13.06.360
12860;169353;33.12;925;04.13.06.448
12856;169348;33.12;926;04.13.06.448
12888;169349;33.12;927;04.13.06.448
12912;169352;33.12;928;04.13.06.448
12884;169353;33.12;929;04.13.06.448
12896;169357;33.12;930;04.13.06.448
12896;169351;33.12;931;04.13.06.448
12836;169347;33.12;932;04.13.06.448
12860;169353;33.12;933;04.13.06.470
12884;169361;33.12;934;04.13.06.470
12896;169361;33.12;935;04.13.06.470
12912;169363;33.12;936;04.13.06.470
12888;169359;33.12;937;04.13.06.470
12884;169364;33.12;938;04.13.06.470
12888;169356;33.12;939;04.13.06.470
12892;169354;33.12;940;04.13.06.470
12872;169343;33.12;941;04.13.06.470
12888;169349;33.12;942;04.13.06.481
12884;169336;33.12;943;04.13.06.481
12888;169333;33.12;944;04.13.06.481
12876;169340;33.12;945;04.13.06.481
12884;169326;33.12;946;04.13.06.481
12892;169325;33.12;947;04.13.06.481
12888;169314;33.12;948;04.13.06.481
12904;169323;33.12;949;04.13.06.481
12860;169319;33.12;950;04.13.06.569
12868;169305;33.12;951;04.13.06.569
12884;169309;33.12;952;04.13.06.569
12884;169300;33.12;953;04.13.06.569
12884;169295;33.12;954;04.13.06.569
12892;169288;33.12;955;04.13.06.569
12900;169291;33.12;956;04.13.06.569
12892;169286;33.12;957;04.13.06.569
12860;169278;33.12;958;04.13.06.580
12896;169277;33.12;959;04.13.06.580
12884;169271;33.12;960;04.13.06.580
12900;169267;33.12;961;04.13.06.580
12928;169268;33.12;962;04.13.06.580
12884;169273;33.12;963;04.13.06.580
12896;169265;33.12;964;04.13.06.580
12880;169273;33.12;965;04.13.06.580
12884;169269;33.12;966;04.13.06.580
12876;169268;33.12;967;04.13.06.602
12928;169264;33.12;968;04.13.06.602
12872;169268;33.12;969;04.13.06.602
12880;169259;33.12;970;04.13.06.602
12896;169252;33.12;971;04.13.06.602
12896;169260;33.12;972;04.13.06.602
12888;169264;33.12;973;04.13.06.602
12884;169259;33.12;974;04.13.06.602
12916;169256;33.16;975;04.13.06.700
12892;169255;33.16;976;04.13.06.700
12876;169256;33.16;977;04.13.06.700
12892;169258;33.16;978;04.13.06.700
12892;169257;33.16;979;04.13.06.700
12884;169248;33.16;980;04.13.06.700
12872;169253;33.16;981;04.13.06.711
12896;169242;33.16;982;04.13.06.711
12880;169256;33.16;983;04.13.06.711
12868;169253;33.16;984;04.13.06.711
12868;169246;33.16;985;04.13.06.711
12852;169257;33.16;986;04.13.06.711
12896;169249;33.16;987;04.13.06.711
12860;169249;33.16;988;04.13.06.711
12896;169245;33.16;989;04.13.06.711
12868;169252;33.16;990;04.13.06.711
12896;169252;33.16;991;04.13.06.711
12896;169255;33.16;992;04.13.06.711
12856;169254;33.16;993;04.13.06.711
12880;169251;33.16;994;04.13.06.711
12884;169253;33.16;995;04.13.06.723
12896;169254;33.16;996;04.13.06.723
12876;169256;33.16;997;04.13.06.723
12896;169251;33.16;998;04.13.06.723
12904;169248;33.16;999;04.13.06.723
12904;169255;33.16;000;04.13.06.833
12896;169257;33.16;001;04.13.06.833
12876;169245;33.16;002;04.13.06.833
12868;169250;33.16;003;04.13.06.844
12896;169244;33.16;004;04.13.06.844
12864;169244;33.16;005;04.13.06.844
12860;169246;33.16;006;04.13.06.844
12876;169239;33.16;007;04.13.06.844
12896;169252;33.16;008;04.13.06.844
12888;169242;33.16;009;04.13.06.844
12880;169242;33.16;010;04.13.06.844
12880;169252;33.16;011;04.13.06.844
12884;169244;33.16;012;04.13.06.844
12900;169246;33.16;013;04.13.06.844
12888;169251;33.16;014;04.13.06.844
12888;169255;33.16;015;04.13.06.844
12892;169245;33.16;016;04.13.06.854
12888;169253;33.16;017;04.13.06.854
12892;169253;33.16;018;04.13.06.854
12860;169242;33.16;019;04.13.06.854
12868;169238;33.16;020;04.13.06.854
12880;169245;33.16;021;04.13.06.854
12912;169237;33.16;022;04.13.06.854
12876;169246;33.16;023;04.13.06.854
12900;169248;33.16;024;04.13.06.854
12896;169242;33.12;025;04.13.06.942
12884;169246;33.12;026;04.13.06.942
12868;169255;33.12;027;04.13.06.942
12868;169246;33.12;028;04.13.06.942
12892;169249;33.12;029;04.13.06.942
12904;169250;33.12;030;04.13.06.942
12904;169257;33.12;031;04.13.06.942
12876;169254;33.12;032;04.13.06.942
12908;169256;33.12;033;04.13.06.975
12892;169257;33.12;034;04.13.06.975
12880;169256;33.12;035;04.13.06.975
12880;169262;33.12;036;04.13.06.975
12928;169255;33.12;037;04.13.06.975
12888;169255;33.12;038;04.13.06.975
12900;169258;33.12;039;04.13.06.975
12900;169261;33.12;040;04.13.06.975
12900;169264;33.12;041;04.13.06.975
12876;169271;33.12;042;04.13.06.975
12896;169267;33.12;043;04.13.06.975
12868;169269;33.12;044;04.13.06.975
12880;169275;33.12;045;04.13.06.986
12884;169275;33.12;046;04.13.06.986
12884;169275;33.12;047;04.13.06.986
12888;169276;33.12;048;04.13.06.986
12876;169271;33.12;049;04.13.06.986
12888;169270;33.12;050;04.13.07.062
12888;169281;33.12;051;04.13.07.062
12872;169280;33.12;052;04.13.07.062
12860;169281;33.12;053;04.13.07.062
12880;169283;33.12;054;04.13.07.062
12896;169280;33.12;055;04.13.07.062
12856;169279;33.12;056;04.13.07.073
12900;169289;33.12;057;04.13.07.073
12876;169280;33.12;058;04.13.07.073
12868;169293;33.12;059;04.13.07.073
12912;169288;33.12;060;04.13.07.073
12880;169296;33.12;061;04.13.07.073
12840;169288;33.12;062;04.13.07.073
12892;169290;33.12;063;04.13.07.073
12884;169284;33.12;064;04.13.07.073
12896;169291;33.12;065;04.13.07.073
12904;169300;33.12;066;04.13.07.073
12872;169293;33.12;067;04.13.07.073
12876;169305;33.12;068;04.13.07.073
12864;169293;33.12;069;04.13.07.073
12880;169298;33.12;070;04.13.07.073
12872;169298;33.12;071;04.13.07.084
12896;169306;33.12;072;04.13.07.084
12860;169300;33.12;073;04.13.07.084
12884;169316;33.12;074;04.13.07.084
12880;169314;33.16;075;04.13.07.183
12880;169296;33.16;076;04.13.07.183
12864;169317;33.16;077;04.13.07.183
12888;169319;33.16;078;04.13.07.183
12892;169310;33.16;079;04.13.07.194
12908;169318;33.16;080;04.13.07.194
12896;169322;33.16;081;04.13.07.194
12868;169323;33.16;082;04.13.07.194
12864;169313;33.16;083;04.13.07.194
12852;169330;33.16;084;04.13.07.194
12884;169326;33.16;085;04.13.07.194
12888;169328;33.16;086;04.13.07.194
12872;169329;33.16;087;04.13.07.194
12872;169337;33.16;088;04.13.07.194
12900;169338;33.16;089;04.13.07.194
12880;169337;33.16;090;04.13.07.194
12904;169337;33.16;091;04.13.07.194
12900;169334;33.16;092;04.13.07.205
12868;169341;33.16;093;04.13.07.205
12884;169334;33.16;094;04.13.07.205
12884;169336;33.16;095;04.13.07.205
12880;169339;33.16;096;04.13.07.205
12876;169343;33.16;097;04.13.07.216
12864;169338;33.16;098;04.13.07.216
12896;169341;33.16;099;04.13.07.216
12892;169346;33.16;100;04.13.07.315
12896;169354;33.16;101;04.13.07.325
12884;169354;33.16;102;04.13.07.325
12860;169357;33.16;103;04.13.07.325
12908;169350;33.16;104;04.13.07.325
12892;169351;33.16;105;04.13.07.325
12880;169356;33.16;106;04.13.07.325
12900;169358;33.16;107;04.13.07.325
12900;169359;33.16;108;04.13.07.325
12928;169355;33.16;109;04.13.07.337
12860;169358;33.16;110;04.13.07.337
12880;169358;33.16;111;04.13.07.337
12860;169367;33.16;112;04.13.07.337
12876;169363;33.16;113;04.13.07.337
12892;169361;33.16;114;04.13.07.337
12896;169363;33.16;115;04.13.07.337
12884;169370;33.16;116;04.13.07.337
12912;169361;33.16;117;04.13.07.337
12908;169366;33.16;118;04.13.07.337
12884;169366;33.16;119;04.13.07.337
12904;169364;33.16;120;04.13.07.337
12884;169369;33.16;121;04.13.07.337
12868;169361;33.16;122;04.13.07.337
12872;169356;33.16;123;04.13.07.338
12920;169356;33.16;124;04.13.07.349
12872;169344;33.12;125;04.13.07.459
12896;169340;33.12;126;04.13.07.459
12884;169342;33.12;127;04.13.07.459
12872;169332;33.12;128;04.13.07.459
12872;169335;33.12;129;04.13.07.459
12892;169329;33.12;130;04.13.07.459
12916;169318;33.12;131;04.13.07.459
12888;169320;33.12;132;04.13.07.459
12876;169313;33.12;133;04.13.07.459
12904;169310;33.12;134;04.13.07.459
12892;169299;33.12;135;04.13.07.459
12892;169300;33.12;136;04.13.07.470
12896;169294;33.12;137;04.13.07.470
12880;169280;33.12;138;04.13.07.470
12888;169290;33.12;139;04.13.07.470
12876;169290;33.12;140;04.13.07.470
12900;169282;33.12;141;04.13.07.470
12868;169285;33.12;142;04.13.07.470
12884;169286;33.12;143;04.13.07.470
12920;169284;33.12;144;04.13.07.470
12880;169281;33.12;145;04.13.07.470
12904;169280;33.12;146;04.13.07.470
12896;169274;33.12;147;04.13.07.470
12880;169274;33.12;148;04.13.07.470
12912;169272;33.12;149;04.13.07.481
12888;169280;33.12;150;04.13.07.569
12912;169278;33.12;151;04.13.07.569
12872;169276;33.12;152;04.13.07.569
12912;169281;33.12;153;04.13.07.569
12880;169287;33.12;154;04.13.07.569
12868;169290;33.12;155;04.13.07.569
12888;169287;33.12;156;04.13.07.569
12868;169285;33.12;157;04.13.07.569
12876;169287;33.12;158;04.13.07.580
12896;169294;33.12;159;04.13.07.580
12880;169287;33.12;160;04.13.07.580
12884;169280;33.12;161;04.13.07.580
12896;169292;33.12;162;04.13.07.580
12920;169288;33.12;163;04.13.07.580
12860;169284;33.12;164;04.13.07.580
12892;169287;33.12;165;04.13.07.590
12896;169277;33.12;166;04.13.07.590
12904;169287;33.12;167;04.13.07.590
12896;169286;33.12;168;04.13.07.590
12876;169285;33.12;169;04.13.07.590
12876;169282;33.12;170;04.13.07.590
12860;169292;33.12;171;04.13.07.590
12896;169275;33.12;172;04.13.07.590
12860;169289;33.12;173;04.13.07.590
12916;169290;33.12;174;04.13.07.590
12900;169290;33.16;175;04.13.07.689
12896;169287;33.16;176;04.13.07.689
12888;169287;33.16;177;04.13.07.689
12860;169284;33.16;178;04.13.07.689
12896;169290;33.16;179;04.13.07.689
12908;169284;33.16;180;04.13.07.700
12904;169282;33.16;181;04.13.07.700
12880;169288;33.16;182;04.13.07.700
12892;169284;33.16;183;04.13.07.700
12920;169276;33.16;184;04.13.07.700
12876;169282;33.16;185;04.13.07.700
12888;169290;33.16;186;04.13.07.700
12912;169271;33.16;187;04.13.07.700
12896;169284;33.16;188;04.13.07.700
12860;169275;33.16;189;04.13.07.700
12876;169278;33.16;190;04.13.07.700
12880;169272;33.16;191;04.13.07.700
12868;169277;33.16;192;04.13.07.711
12884;169271;33.16;193;04.13.07.711
12896;169275;33.16;194;04.13.07.711
12896;169266;33.16;195;04.13.07.711
12900;169272;33.16;196;04.13.07.711
12884;169269;33.16;197;04.13.07.711
12888;169266;33.16;198;04.13.07.711
12892;169260;33.16;199;04.13.07.711
12888;169266;33.16;200;04.13.07.832
12896;169271;33.16;201;04.13.07.832
12896;169270;33.16;202;04.13.07.832
12892;169258;33.16;203;04.13.07.832
12900;169266;33.16;204;04.13.07.832
12888;169264;33.16;205;04.13.07.832
12860;169259;33.16;206;04.13.07.832
12880;169274;33.16;207;04.13.07.832
12892;169274;33.16;208;04.13.07.832
12904;169274;33.16;209;04.13.07.832
12876;169274;33.16;210;04.13.07.832
12876;169279;33.16;211;04.13.07.832
12932;169281;33.16;212;04.13.07.832
12904;169277;33.16;213;04.13.07.843
12888;169275;33.16;214;04.13.07.843
12892;169274;33.16;215;04.13.07.843
12876;169279;33.16;216;04.13.07.843
12888;169288;33.16;217;04.13.07.843
12896;169295;33.16;218;04.13.07.843
12888;169292;33.16;219;04.13.07.843
12880;169283;33.16;220;04.13.07.843
12876;169292;33.16;221;04.13.07.843
12896;169295;33.16;222;04.13.07.843
12892;169298;33.16;223;04.13.07.843
12912;169289;33.16;224;04.13.07.843
12892;169295;33.12;225;04.13.07.963
12884;169300;33.12;226;04.13.07.963
12868;169307;33.12;227;04.13.07.963
12888;169299;33.12;228;04.13.07.963
12896;169307;33.12;229;04.13.07.963
12904;169306;33.12;230;04.13.07.963
12892;169305;33.12;231;04.13.07.963
12884;169312;33.12;232;04.13.07.963
12884;169310;33.12;233;04.13.07.963
12876;169310;33.12;234;04.13.07.974
12900;169307;33.12;235;04.13.07.974
12872;169313;33.12;236;04.13.07.974
12888;169300;33.12;237;04.13.07.974
12888;169304;33.12;238;04.13.07.974
12908;169319;33.12;239;04.13.07.974
12920;169312;33.12;240;04.13.07.974
12868;169321;33.12;241;04.13.07.974
12860;169310;33.12;242;04.13.07.974
12884;169315;33.12;243;04.13.07.974
12928;169319;33.12;244;04.13.07.974
12896;169318;33.12;245;04.13.07.985
12892;169333;33.12;246;04.13.07.985
12876;169322;33.12;247;04.13.07.985
12928;169324;33.12;248;04.13.07.985
12916;169324;33.12;249;04.13.07.985
12896;169329;33.12;250;04.13.08.084
12884;169326;33.12;251;04.13.08.084
12892;169321;33.12;252;04.13.08.084
12888;169327;33.12;253;04.13.08.084
12912;169334;33.12;254;04.13.08.084
12892;169323;33.12;255;04.13.08.084
12864;169324;33.12;256;04.13.08.084
12884;169330;33.12;257;04.13.08.088
12888;169338;33.12;258;04.13.08.088
12880;169330;33.12;259;04.13.08.088
12892;169329;33.12;260;04.13.08.088
12880;169333;33.12;261;04.13.08.088
12888;169331;33.12;262;04.13.08.099
12884;169337;33.12;263;04.13.08.099
12908;169336;33.12;264;04.13.08.099
12912;169338;33.12;265;04.13.08.099
12920;169336;33.12;266;04.13.08.099
12900;169332;33.12;267;04.13.08.099
12884;169340;33.12;268;04.13.08.099
12920;169331;33.12;269;04.13.08.099
12852;169335;33.12;270;04.13.08.099
12920;169333;33.12;271;04.13.08.099
12884;169334;33.12;272;04.13.08.099
12892;169334;33.12;273;04.13.08.099
12900;169331;33.12;274;04.13.08.110
12900;169338;33.12;275;04.13.08.187
12912;169342;33.12;276;04.13.08.187
12872;169349;33.12;277;04.13.08.187
12896;169335;33.12;278;04.13.08.187
12896;169348;33.12;279;04.13.08.187
12896;169345;33.12;280;04.13.08.187
12892;169345;33.12;281;04.13.08.187
12872;169352;33.12;282;04.13.08.187
12868;169356;33.12;283;04.13.08.198
12908;169345;33.12;284;04.13.08.198
12896;169349;33.12;285;04.13.08.198
12892;169351;33.12;286;04.13.08.198
12860;169347;33.12;287;04.13.08.198
12896;169354;33.12;288;04.13.08.198
12860;169350;33.12;289;04.13.08.198
12880;169355;33.12;290;04.13.08.198
12912;169355;33.12;291;04.13.08.198
12872;169357;33.12;292;04.13.08.220
12888;169352;33.12;293;04.13.08.220
12900;169360;33.12;294;04.13.08.220
12900;169353;33.12;295;04.13.08.220
12884;169342;33.12;296;04.13.08.220
12880;169348;33.12;297;04.13.08.220
12880;169345;33.12;298;04.13.08.220
12880;169345;33.12;299;04.13.08.220
12880;169328;33.12;300;04.13.08.308
12876;169339;33.12;301;04.13.08.308
12888;169328;33.12;302;04.13.08.308
12892;169323;33.12;303;04.13.08.308
12876;169325;33.12;304;04.13.08.319
12872;169314;33.12;305;04.13.08.319
12860;169301;33.12;306;04.13.08.319
12892;169301;33.12;307;04.13.08.319
12880;169294;33.12;308;04.13.08.319
12904;169286;33.12;309;04.13.08.319
12872;169295;33.12;310;04.13.08.319
12884;169282;33.12;311;04.13.08.329
12892;169276;33.12;312;04.13.08.329
12896;169276;33.12;313;04.13.08.329
12892;169272;33.12;314;04.13.08.329
12876;169278;33.12;315;04.13.08.329
12872;169266;33.12;316;04.13.08.329
12876;169267;33.12;317;04.13.08.329
12896;169261;33.12;318;04.13.08.329
12876;169256;33.12;319;04.13.08.329
12912;169257;33.12;320;04.13.08.329
12872;169249;33.12;321;04.13.08.340
12892;169242;33.12;322;04.13.08.340
12876;169242;33.12;323;04.13.08.340
12944;169250;33.12;324;04.13.08.340
12896;169248;33.12;325;04.13.08.450
12860;169245;33.12;326;04.13.08.450
12900;169247;33.12;327;04.13.08.450
12912;169238;33.12;328;04.13.08.450
12896;169245;33.12;329;04.13.08.450
12888;169244;33.12;330;04.13.08.450
12876;169240;33.12;331;04.13.08.450
12884;169237;33.12;332;04.13.08.450
12880;169230;33.12;333;04.13.08.450
12892;169239;33.12;334;04.13.08.450
12884;169240;33.12;335;04.13.08.450
12876;169234;33.12;336;04.13.08.450
12888;169231;33.12;337;04.13.08.461
12896;169232;33.12;338;04.13.08.461
12892;169226;33.12;339;04.13.08.461
12872;169226;33.12;340;04.13.08.461
12884;169225;33.12;341;04.13.08.461
12908;169232;33.12;342;04.13.08.461
12904;169237;33.12;343;04.13.08.461
12884;169221;33.12;344;04.13.08.461
12868;169235;33.12;345;04.13.08.461
12884;169218;33.12;346;04.13.08.461
12876;169229;33.12;347;04.13.08.461
12884;169229;33.12;348;04.13.08.461
12920;169232;33.12;349;04.13.08.461
12884;169241;33.12;350;04.13.08.581
12888;169235;33.12;351;04.13.08.581
12892;169233;33.12;352;04.13.08.581
12900;169237;33.12;353;04.13.08.581
12892;169226;33.12;354;04.13.08.581
12896;169233;33.12;355;04.13.08.581
12864;169228;33.12;356;04.13.08.581
12900;169228;33.12;357;04.13.08.581
12876;169242;33.12;358;04.13.08.592
12860;169231;33.12;359;04.13.08.592
12860;169233;33.12;360;04.13.08.592
12900;169237;33.12;361;04.13.08.592
12928;169230;33.12;362;04.13.08.592
12896;169238;33.12;363;04.13.08.592
12904;169240;33.12;364;04.13.08.592
12876;169231;33.12;365;04.13.08.592
12896;169234;33.12;366;04.13.08.592
12884;169235;33.12;367;04.13.08.592
12904;169232;33.12;368;04.13.08.592
12896;169235;33.12;369;04.13.08.592
12888;169237;33.12;370;04.13.08.592
12880;169231;33.12;371;04.13.08.603
12904;169223;33.12;372;04.13.08.603
12880;169226;33.12;373;04.13.08.603
12884;169230;33.12;374;04.13.08.603
12872;169229;33.12;375;04.13.08.691
12860;169222;33.12;376;04.13.08.691
12892;169226;33.12;377;04.13.08.691
12896;169230;33.12;378;04.13.08.691
12896;169226;33.12;379;04.13.08.691
12912;169239;33.12;380;04.13.08.702
12912;169232;33.12;381;04.13.08.702
12884;169235;33.12;382;04.13.08.702
12880;169235;33.12;383;04.13.08.702
12860;169233;33.12;384;04.13.08.702
12900;169239;33.12;385;04.13.08.702
12860;169235;33.12;386;04.13.08.702
12880;169232;33.12;387;04.13.08.702
12888;169232;33.12;388;04.13.08.702
12904;169234;33.12;389;04.13.08.713
12892;169237;33.12;390;04.13.08.713
12880;169245;33.12;391;04.13.08.713
12896;169244;33.12;392;04.13.08.713
12876;169244;33.12;393;04.13.08.713
12876;169242;33.12;394;04.13.08.713
12880;169247;33.12;395;04.13.08.713
12900;169242;33.12;396;04.13.08.713
12900;169252;33.12;397;04.13.08.713
12860;169248;33.12;398;04.13.08.724
12904;169245;33.12;399;04.13.08.724
12872;169252;33.12;400;04.13.08.812
12880;169260;33.12;401;04.13.08.823
12888;169260;33.12;402;04.13.08.823
12892;169257;33.12;403;04.13.08.823
12860;169261;33.12;404;04.13.08.823
12896;169248;33.12;405;04.13.08.823
12888;169251;33.12;406;04.13.08.823
12876;169256;33.12;407;04.13.08.823
12896;169251;33.12;408;04.13.08.823
12896;169261;33.12;409;04.13.08.823
12872;169265;33.12;410;04.13.08.823
12852;169263;33.12;411;04.13.08.823
12884;169260;33.12;412;04.13.08.823
12928;169265;33.12;413;04.13.08.823
12912;169268;33.12;414;04.13.08.834
12896;169269;33.12;415;04.13.08.834
12884;169265;33.12;416;04.13.08.834
12892;169269;33.12;417;04.13.08.834
12884;169264;33.12;418;04.13.08.834
12892;169277;33.12;419;04.13.08.834
12876;169277;33.12;420;04.13.08.834
12896;169287;33.12;421;04.13.08.834
12904;169283;33.12;422;04.13.08.834
12884;169286;33.12;423;04.13.08.834
12904;169285;33.12;424;04.13.08.834
12884;169290;33.16;425;04.13.08.954
12888;169293;33.16;426;04.13.08.954
12876;169303;33.16;427;04.13.08.954
12860;169297;33.16;428;04.13.08.954
12896;169291;33.16;429;04.13.08.954
12888;169293;33.16;430;04.13.08.954
12880;169298;33.16;431;04.13.08.954
12880;169297;33.16;432;04.13.08.954
12884;169304;33.16;433;04.13.08.954
12880;169302;33.16;434;04.13.08.954
12880;169305;33.16;435;04.13.08.965
12884;169310;33.16;436;04.13.08.965
12868;169308;33.16;437;04.13.08.965
12876;169309;33.16;438;04.13.08.965
12884;169319;33.16;439;04.13.08.965
12876;169310;33.16;440;04.13.08.965
12896;169321;33.16;441;04.13.08.965
12884;169313;33.16;442;04.13.08.965
12908;169322;33.16;443;04.13.08.965
12876;169327;33.16;444;04.13.08.965
12908;169325;33.16;445;04.13.08.965
12888;169322;33.16;446;04.13.08.965
12872;169332;33.16;447;04.13.08.976
12896;169325;33.16;448;04.13.08.976
12928;169329;33.16;449;04.13.08.976
12900;169335;33.16;450;04.13.09.063
12880;169332;33.16;451;04.13.09.063
12880;169337;33.16;452;04.13.09.063
12864;169339;33.16;453;04.13.09.063
12876;169339;33.16;454;04.13.09.063
12876;169346;33.16;455;04.13.09.063
12872;169341;33.16;456;04.13.09.075
12880;169354;33.16;457;04.13.09.075
12876;169352;33.16;458;04.13.09.075
12852;169344;33.16;459;04.13.09.075
12920;169349;33.16;460;04.13.09.075
12872;169351;33.16;461;04.13.09.075
12860;169353;33.16;462;04.13.09.075
12872;169354;33.16;463;04.13.09.075
12860;169360;33.16;464;04.13.09.075
12904;169363;33.16;465;04.13.09.075
12876;169361;33.16;466;04.13.09.075
12876;169351;33.16;467;04.13.09.086
12892;169369;33.16;468;04.13.09.086
12892;169363;33.16;469;04.13.09.086
12884;169368;33.16;470;04.13.09.086
12876;169374;33.16;471;04.13.09.086
12860;169378;33.16;472;04.13.09.086
12876;169379;33.16;473;04.13.09.086
12936;169386;33.16;474;04.13.09.086
12884;169385;33.16;475;04.13.09.185
12888;169387;33.16;476;04.13.09.185
12920;169390;33.16;477;04.13.09.185
12900;169384;33.16;478;04.13.09.185
12888;169387;33.16;479;04.13.09.196
12896;169386;33.16;480;04.13.09.196
12872;169392;33.16;481;04.13.09.196
12884;169394;33.16;482;04.13.09.196
12876;169391;33.16;483;04.13.09.196
12896;169393;33.16;484;04.13.09.196
12908;169394;33.16;485;04.13.09.196
12908;169387;33.16;486;04.13.09.196
12916;169392;33.16;487;04.13.09.196
12888;169387;33.16;488;04.13.09.196
12864;169383;33.16;489;04.13.09.196
12888;169375;33.16;490;04.13.09.196
12884;169376;33.16;491;04.13.09.196
12892;169365;33.16;492;04.13.09.218
12872;169372;33.16;493;04.13.09.218
12876;169366;33.16;494;04.13.09.218
12876;169353;33.16;495;04.13.09.229
12904;169351;33.16;496;04.13.09.229
12888;169349;33.16;497;04.13.09.229
12884;169343;33.16;498;04.13.09.229
12928;169336;33.16;499;04.13.09.229
12872;169336;33.16;500;04.13.09.317
12864;169325;33.16;501;04.13.09.317
12888;169325;33.16;502;04.13.09.317
12864;169321;33.16;503;04.13.09.317
12880;169323;33.16;504;04.13.09.317
12888;169311;33.16;505;04.13.09.317
12896;169309;33.16;506;04.13.09.317
12872;169306;33.16;507;04.13.09.317
12872;169307;33.16;508;04.13.09.317
12884;169317;33.16;509;04.13.09.317
12884;169317;33.16;510;04.13.09.317
12884;169313;33.16;511;04.13.09.317
12904;169304;33.16;512;04.13.09.317
12860;169308;33.16;513;04.13.09.328
12908;169307;33.16;514;04.13.09.328
12904;169302;33.16;515;04.13.09.328
12872;169302;33.16;516;04.13.09.328
12880;169308;33.16;517;04.13.09.328
12888;169296;33.16;518;04.13.09.328
12880;169289;33.16;519;04.13.09.328
12900;169299;33.16;520;04.13.09.328
12876;169299;33.16;521;04.13.09.328
12904;169304;33.16;522;04.13.09.328
12900;169303;33.16;523;04.13.09.328
12876;169299;33.16;524;04.13.09.328
12912;169296;33.16;525;04.13.09.449
12884;169297;33.16;526;04.13.09.449
12876;169299;33.16;527;04.13.09.449
12876;169290;33.16;528;04.13.09.449
12892;169285;33.16;529;04.13.09.449
12876;169297;33.16;530;04.13.09.449
12888;169294;33.16;531;04.13.09.449
12904;169292;33.16;532;04.13.09.449
12876;169290;33.16;533;04.13.09.460
12876;169295;33.16;534;04.13.09.460
12880;169299;33.16;535;04.13.09.460
12876;169304;33.16;536;04.13.09.460
12904;169296;33.16;537;04.13.09.460
12892;169299;33.16;538;04.13.09.460
12908;169297;33.16;539;04.13.09.460
12908;169301;33.16;540;04.13.09.460
12896;169310;33.16;541;04.13.09.460
12872;169302;33.16;542;04.13.09.460
12908;169302;33.16;543;04.13.09.460
12888;169296;33.16;544;04.13.09.460
12896;169302;33.16;545;04.13.09.471
12884;169315;33.16;546;04.13.09.471
12876;169308;33.16;547;04.13.09.471
12908;169303;33.16;548;04.13.09.471
12904;169308;33.16;549;04.13.09.471
12872;169305;33.16;550;04.13.09.580
12904;169313;33.16;551;04.13.09.580
12900;169311;33.16;552;04.13.09.580
12872;169315;33.16;553;04.13.09.580
12880;169320;33.16;554;04.13.09.580
12880;169317;33.16;555;04.13.09.591
12896;169314;33.16;556;04.13.09.591
12928;169317;33.16;557;04.13.09.591
12884;169322;33.16;558;04.13.09.591
12880;169323;33.16;559;04.13.09.591
12888;169324;33.16;560;04.13.09.591
12896;169320;33.16;561;04.13.09.591
12896;169324;33.16;562;04.13.09.591
12892;169317;33.16;563;04.13.09.591
12904;169320;33.16;564;04.13.09.591
12908;169321;33.16;565;04.13.09.591
12908;169327;33.16;566;04.13.09.591
12880;169332;33.16;567;04.13.09.591
12888;169330;33.16;568;04.13.09.591
12904;169329;33.16;569;04.13.09.592
12860;169328;33.16;570;04.13.09.603
12876;169330;33.16;571;04.13.09.603
12860;169342;33.16;572;04.13.09.603
12912;169334;33.16;573;04.13.09.603
12892;169343;33.16;574;04.13.09.603
12900;169352;33.16;575;04.13.09.690
12888;169341;33.16;576;04.13.09.690
12896;169348;33.16;577;04.13.09.701
12876;169336;33.16;578;04.13.09.701
12892;169345;33.16;579;04.13.09.701
12908;169349;33.16;580;04.13.09.701
12912;169358;33.16;581;04.13.09.701
12904;169355;33.16;582;04.13.09.701
12928;169351;33.16;583;04.13.09.712
12912;169355;33.16;584;04.13.09.723
12912;169362;33.16;585;04.13.09.723
12888;169354;33.16;586;04.13.09.723
12888;169355;33.16;587;04.13.09.723
12896;169367;33.16;588;04.13.09.723
12896;169371;33.16;589;04.13.09.723
12876;169367;33.16;590;04.13.09.723
12860;169370;33.16;591;04.13.09.723
12896;169370;33.16;592;04.13.09.723
12876;169370;33.16;593;04.13.09.723
12872;169379;33.16;594;04.13.09.723
12888;169376;33.16;595;04.13.09.723
12896;169371;33.16;596;04.13.09.723
12892;169382;33.16;597;04.13.09.723
12888;169385;33.16;598;04.13.09.734
12896;169383;33.16;599;04.13.09.734
12888;169383;33.16;600;04.13.09.821
12880;169388;33.16;601;04.13.09.821
12900;169390;33.16;602;04.13.09.821
12888;169395;33.16;603;04.13.09.821
12904;169395;33.16;604;04.13.09.821
12904;169387;33.16;605;04.13.09.821
12880;169394;33.16;606;04.13.09.821
12904;169386;33.16;607;04.13.09.821
12912;169400;33.16;608;04.13.09.832
12900;169390;33.16;609;04.13.09.832
12860;169395;33.16;610;04.13.09.832
12892;169402;33.16;611;04.13.09.832
12904;169400;33.16;612;04.13.09.832
12904;169408;33.16;613;04.13.09.832
12908;169411;33.16;614;04.13.09.832
12904;169411;33.16;615;04.13.09.832
12876;169410;33.16;616;04.13.09.832
12860;169417;33.16;617;04.13.09.854
12860;169411;33.16;618;04.13.09.854
12916;169412;33.16;619;04.13.09.854
12884;169424;33.16;620;04.13.09.854
12876;169423;33.16;621;04.13.09.854
12876;169429;33.16;622;04.13.09.854
12880;169415;33.16;623;04.13.09.854
12896;169422;33.16;624;04.13.09.854
12888;169426;33.16;625;04.13.09.942
12896;169429;33.16;626;04.13.09.942
12904;169428;33.16;627;04.13.09.942
12876;169428;33.16;628;04.13.09.942
12904;169431;33.16;629;04.13.09.942
12908;169434;33.16;630;04.13.09.942
12880;169433;33.16;631;04.13.09.942
12892;169434;33.16;632;04.13.09.953
12900;169442;33.16;633;04.13.09.953
12888;169443;33.16;634;04.13.09.953
12904;169438;33.16;635;04.13.09.953
12892;169442;33.16;636;04.13.09.953
12880;169437;33.16;637;04.13.09.953
12880;169445;33.16;638;04.13.09.953
12876;169455;33.16;639;04.13.09.953
12912;169453;33.16;640;04.13.09.953
12908;169446;33.16;641;04.13.09.953
12888;169451;33.16;642;04.13.09.953
12880;169461;33.16;643;04.13.09.953
12884;169465;33.16;644;04.13.09.953
12888;169470;33.16;645;04.13.09.964
12868;169458;33.16;646;04.13.09.964
12892;169457;33.16;647;04.13.09.964
12876;169464;33.16;648;04.13.09.964
12900;169464;33.16;649;04.13.09.964
12896;169470;33.16;650;04.13.10.073
12908;169476;33.16;651;04.13.10.073
12896;169475;33.16;652;04.13.10.073
12876;169479;33.16;653;04.13.10.074
12900;169486;33.16;654;04.13.10.085
12912;169493;33.16;655;04.13.10.085
12880;169497;33.16;656;04.13.10.085
12872;169494;33.16;657;04.13.10.085
12868;169504;33.16;658;04.13.10.085
12908;169494;33.16;659;04.13.10.085
12912;169507;33.16;660;04.13.10.085
12884;169501;33.16;661;04.13.10.085
12860;169505;33.16;662;04.13.10.085
12884;169507;33.16;663;04.13.10.085
12880;169511;33.16;664;04.13.10.085
12904;169514;33.16;665;04.13.10.085
12884;169514;33.16;666;04.13.10.085
12884;169522;33.16;667;04.13.10.096
12912;169515;33.16;668;04.13.10.096
12896;169513;33.16;669;04.13.10.096
12892;169519;33.16;670;04.13.10.096
12896;169520;33.16;671;04.13.10.096
12884;169521;33.16;672;04.13.10.096
12872;169520;33.16;673;04.13.10.096
12880;169526;33.16;674;04.13.10.096
12916;169526;33.16;675;04.13.10.184
12880;169521;33.16;676;04.13.10.195
12896;169526;33.16;677;04.13.10.195
12876;169528;33.16;678;04.13.10.195
12856;169534;33.16;679;04.13.10.195
12896;169527;33.16;680;04.13.10.195
12876;169519;33.16;681;04.13.10.195
12852;169524;33.16;682;04.13.10.195
12880;169520;33.16;683;04.13.10.217
12888;169507;33.16;684;04.13.10.228
12868;169505;33.16;685;04.13.10.228
12888;169502;33.16;686;04.13.10.228
12880;169504;33.16;687;04.13.10.228
12920;169492;33.16;688;04.13.10.228
12860;169488;33.16;689;04.13.10.228
12872;169477;33.16;690;04.13.10.228
12888;169474;33.16;691;04.13.10.228
12904;169466;33.16;692;04.13.10.228
12876;169469;33.16;693;04.13.10.228
12896;169455;33.16;694;04.13.10.228
12876;169455;33.16;695;04.13.10.228
12876;169449;33.16;696;04.13.10.228
12928;169448;33.16;697;04.13.10.239
12884;169438;33.16;698;04.13.10.239
12896;169434;33.16;699;04.13.10.239
12884;169432;33.16;700;04.13.10.316
12860;169418;33.16;701;04.13.10.316
12888;169426;33.16;702;04.13.10.316
12892;169416;33.16;703;04.13.10.316
12884;169417;33.16;704;04.13.10.316
12904;169419;33.16;705;04.13.10.316
12908;169411;33.16;706;04.13.10.316
12928;169409;33.16;707;04.13.10.316
12896;169406;33.16;708;04.13.10.316
12888;169413;33.16;709;04.13.10.316
12884;169412;33.16;710;04.13.10.327
12860;169406;33.16;711;04.13.10.327
12876;169411;33.16;712;04.13.10.327
12892;169400;33.16;713;04.13.10.327
12896;169400;33.16;714;04.13.10.327
12884;169403;33.16;715;04.13.10.327
12920;169405;33.16;716;04.13.10.327
12848;169401;33.16;717;04.13.10.327
12892;169397;33.16;718;04.13.10.327
12872;169403;33.16;719;04.13.10.327
12888;169404;33.16;720;04.13.10.327
12884;169394;33.16;721;04.13.10.327
12856;169393;33.16;722;04.13.10.327
12892;169402;33.16;723;04.13.10.338
12888;169402;33.16;724;04.13.10.338
12880;169392;33.16;725;04.13.10.436
12860;169383;33.16;726;04.13.10.436
12884;169386;33.16;727;04.13.10.436
12880;169394;33.16;728;04.13.10.436
12900;169391;33.16;729;04.13.10.436
12888;169387;33.16;730;04.13.10.436
12896;169390;33.16;731;04.13.10.436
12900;169383;33.16;732;04.13.10.447
12880;169387;33.16;733;04.13.10.447
12888;169389;33.16;734;04.13.10.447
12888;169386;33.16;735;04.13.10.447
12892;169395;33.16;736;04.13.10.447
12888;169384;33.16;737;04.13.10.447
12904;169390;33.16;738;04.13.10.447
12880;169389;33.16;739;04.13.10.447
12880;169388;33.16;740;04.13.10.447
12872;169387;33.16;741;04.13.10.447
12896;169382;33.16;742;04.13.10.447
12888;169377;33.16;743;04.13.10.447
12912;169384;33.16;744;04.13.10.458
12904;169384;33.16;745;04.13.10.458
12880;169396;33.16;746;04.13.10.458
12876;169387;33.16;747;04.13.10.458
12884;169372;33.16;748;04.13.10.458
12888;169372;33.16;749;04.13.10.458
12876;169372;33.16;750;04.13.10.568
12888;169370;33.16;751;04.13.10.568
12884;169369;33.16;752;04.13.10.579
12900;169369;33.16;753;04.13.10.579
12896;169368;33.16;754;04.13.10.579
12880;169372;33.16;755;04.13.10.579
12880;169376;33.16;756;04.13.10.579
12904;169370;33.16;757;04.13.10.579
12876;169367;33.16;758;04.13.10.579
12868;169365;33.16;759;04.13.10.579
12892;169370;33.16;760;04.13.10.579
12892;169361;33.16;761;04.13.10.579
12892;169366;33.16;762;04.13.10.579
12868;169364;33.16;763;04.13.10.579
12900;169380;33.16;764;04.13.10.579
12876;169368;33.16;765;04.13.10.579
12872;169374;33.16;766;04.13.10.590
12896;169375;33.16;767;04.13.10.590
12928;169373;33.16;768;04.13.10.590
12896;169372;33.16;769;04.13.10.590
12900;169366;33.16;770;04.13.10.590
12892;169376;33.16;771;04.13.10.590
12896;169372;33.16;772;04.13.10.590
12904;169373;33.16;773;04.13.10.590
12892;169367;33.16;774;04.13.10.590
12892;169373;33.12;775;04.13.10.721
12896;169373;33.12;776;04.13.10.721
12912;169367;33.12;777;04.13.10.721
12856;169373;33.12;778;04.13.10.721
12896;169376;33.12;779;04.13.10.721
12888;169372;33.12;780;04.13.10.721
12868;169371;33.12;781;04.13.10.721
12888;169379;33.12;782;04.13.10.721
12900;169385;33.12;783;04.13.10.721
12876;169369;33.12;784;04.13.10.721
12888;169376;33.12;785;04.13.10.721
12880;169375;33.12;786;04.13.10.732
12892;169380;33.12;787;04.13.10.732
12868;169375;33.12;788;04.13.10.732
12876;169377;33.12;789;04.13.10.732
12888;169372;33.12;790;04.13.10.732
12872;169377;33.12;791;04.13.10.732
12884;169375;33.12;792;04.13.10.732
12916;169382;33.12;793;04.13.10.732
12924;169376;33.12;794;04.13.10.732
12888;169381;33.12;795;04.13.10.732
12892;169385;33.12;796;04.13.10.732
12860;169387;33.12;797;04.13.10.732
12896;169376;33.12;798;04.13.10.732
12868;169384;33.12;799;04.13.10.743
12896;169391;33.12;800;04.13.10.820
12892;169387;33.12;801;04.13.10.820
12912;169378;33.12;802;04.13.10.820
12896;169383;33.12;803;04.13.10.820
12900;169382;33.12;804;04.13.10.820
12868;169384;33.12;805;04.13.10.820
12896;169384;33.12;806;04.13.10.820
12892;169389;33.12;807;04.13.10.820
12880;169385;33.12;808;04.13.10.842
12860;169391;33.12;809;04.13.10.842
12872;169383;33.12;810;04.13.10.842
12856;169395;33.12;811;04.13.10.842
12900;169393;33.12;812;04.13.10.842
12868;169392;33.12;813;04.13.10.842
12900;169397;33.12;814;04.13.10.842
12876;169385;33.12;815;04.13.10.842
12888;169398;33.12;816;04.13.10.842
12892;169403;33.12;817;04.13.10.843
12844;169395;33.12;818;04.13.10.854
12912;169400;33.12;819;04.13.10.854
12888;169405;33.12;820;04.13.10.854
12884;169404;33.12;821;04.13.10.854
12876;169396;33.12;822;04.13.10.854
