gsr; bvp; skt; skt2; Cont; time
12908;169494;32.92;270;04.10.00.255
12896;169483;32.92;271;04.10.00.255
12892;169490;32.92;272;04.10.00.255
12864;169495;32.92;273;04.10.00.255
12876;169498;32.92;274;04.10.00.255
12884;169497;32.96;275;04.10.00.369
12904;169489;32.96;276;04.10.00.369
12892;169499;32.96;277;04.10.00.369
12884;169497;32.96;278;04.10.00.369
12880;169502;32.96;279;04.10.00.369
12892;169500;32.96;280;04.10.00.369
12900;169502;32.96;281;04.10.00.369
12884;169499;32.96;282;04.10.00.369
12900;169497;32.96;283;04.10.00.369
12912;169502;32.96;284;04.10.00.369
12904;169502;32.96;285;04.10.00.381
12888;169503;32.96;286;04.10.00.381
12900;169502;32.96;287;04.10.00.381
12876;169505;32.96;288;04.10.00.381
12916;169506;32.96;289;04.10.00.381
12896;169515;32.96;290;04.10.00.381
12888;169505;32.96;291;04.10.00.381
12904;169515;32.96;292;04.10.00.381
12880;169518;32.96;293;04.10.00.381
12884;169510;32.96;294;04.10.00.381
12912;169514;32.96;295;04.10.00.381
12868;169520;32.96;296;04.10.00.381
12880;169520;32.96;297;04.10.00.392
12876;169522;32.96;298;04.10.00.392
12912;169519;32.96;299;04.10.00.392
12928;169520;32.96;300;04.10.00.502
12884;169530;32.96;301;04.10.00.502
12884;169525;32.96;302;04.10.00.502
12904;169526;32.96;303;04.10.00.502
12896;169524;32.96;304;04.10.00.502
12896;169529;32.96;305;04.10.00.502
12900;169537;32.96;306;04.10.00.502
12892;169543;32.96;307;04.10.00.513
12884;169535;32.96;308;04.10.00.513
12892;169534;32.96;309;04.10.00.513
12900;169541;32.96;310;04.10.00.513
12912;169533;32.96;311;04.10.00.513
12884;169544;32.96;312;04.10.00.513
12888;169548;32.96;313;04.10.00.513
12868;169541;32.96;314;04.10.00.513
12876;169556;32.96;315;04.10.00.513
12912;169543;32.96;316;04.10.00.513
12896;169546;32.96;317;04.10.00.513
12880;169543;32.96;318;04.10.00.513
12876;169544;32.96;319;04.10.00.513
12900;169547;32.96;320;04.10.00.524
12900;169552;32.96;321;04.10.00.524
12860;169542;32.96;322;04.10.00.524
12896;169556;32.96;323;04.10.00.524
12920;169547;32.96;324;04.10.00.524
12872;169554;32.92;325;04.10.00.600
12860;169548;32.92;326;04.10.00.600
12912;169559;32.92;327;04.10.00.600
12892;169548;32.92;328;04.10.00.611
12912;169554;32.92;329;04.10.00.611
12876;169555;32.92;330;04.10.00.611
12888;169556;32.92;331;04.10.00.611
12904;169558;32.92;332;04.10.00.611
12920;169569;32.92;333;04.10.00.611
12888;169563;32.92;334;04.10.00.611
12876;169551;32.92;335;04.10.00.611
12868;169546;32.92;336;04.10.00.611
12872;169542;32.92;337;04.10.00.622
12892;169544;32.92;338;04.10.00.622
12880;169538;32.92;339;04.10.00.622
12860;169537;32.92;340;04.10.00.622
12884;169535;32.92;341;04.10.00.622
12900;169534;32.92;342;04.10.00.633
12944;169528;32.92;343;04.10.00.633
12896;169521;32.92;344;04.10.00.633
12892;169524;32.92;345;04.10.00.644
12900;169519;32.92;346;04.10.00.644
12864;169515;32.92;347;04.10.00.644
12860;169509;32.92;348;04.10.00.644
12904;169502;32.92;349;04.10.00.644
12892;169492;32.92;350;04.10.00.743
12884;169496;32.92;351;04.10.00.743
12908;169493;32.92;352;04.10.00.743
12884;169491;32.92;353;04.10.00.743
12944;169482;32.92;354;04.10.00.743
12892;169491;32.92;355;04.10.00.743
12896;169483;32.92;356;04.10.00.743
12908;169491;32.92;357;04.10.00.743
12888;169484;32.92;358;04.10.00.743
12868;169481;32.92;359;04.10.00.743
12904;169474;32.92;360;04.10.00.743
12904;169488;32.92;361;04.10.00.743
12896;169474;32.92;362;04.10.00.754
12884;169470;32.92;363;04.10.00.754
12864;169471;32.92;364;04.10.00.754
12860;169476;32.92;365;04.10.00.754
12888;169477;32.92;366;04.10.00.754
12892;169473;32.92;367;04.10.00.754
12888;169477;32.92;368;04.10.00.754
12888;169462;32.92;369;04.10.00.754
12884;169463;32.92;370;04.10.00.754
12868;169473;32.92;371;04.10.00.754
12876;169469;32.92;372;04.10.00.754
12872;169460;32.92;373;04.10.00.754
12920;169459;32.92;374;04.10.00.754
12892;169451;32.92;375;04.10.00.864
12880;169464;32.92;376;04.10.00.864
12884;169458;32.92;377;04.10.00.864
12896;169454;32.92;378;04.10.00.864
12896;169454;32.92;379;04.10.00.864
12880;169444;32.92;380;04.10.00.864
12888;169462;32.92;381;04.10.00.864
12920;169467;32.92;382;04.10.00.864
12888;169460;32.92;383;04.10.00.864
12892;169457;32.92;384;04.10.00.875
12884;169456;32.92;385;04.10.00.875
12904;169464;32.92;386;04.10.00.875
12888;169459;32.92;387;04.10.00.875
12900;169467;32.92;388;04.10.00.875
12904;169473;32.92;389;04.10.00.875
12876;169454;32.92;390;04.10.00.875
12896;169463;32.92;391;04.10.00.875
12892;169467;32.92;392;04.10.00.907
12876;169468;32.92;393;04.10.00.907
12876;169469;32.92;394;04.10.00.907
12896;169478;32.92;395;04.10.00.907
12904;169474;32.92;396;04.10.00.907
12880;169469;32.92;397;04.10.00.907
12920;169482;32.92;398;04.10.00.907
12912;169471;32.92;399;04.10.00.907
12868;169474;32.92;400;04.10.00.973
12896;169482;32.92;401;04.10.00.973
12900;169468;32.92;402;04.10.00.973
12888;169473;32.92;403;04.10.00.973
12900;169467;32.92;404;04.10.00.973
12884;169468;32.92;405;04.10.00.984
12892;169468;32.92;406;04.10.00.984
12880;169467;32.92;407;04.10.00.984
12896;169471;32.92;408;04.10.00.995
12896;169476;32.92;409;04.10.00.995
12860;169478;32.92;410;04.10.00.995
12880;169474;32.92;411;04.10.00.995
12900;169471;32.92;412;04.10.00.995
12896;169470;32.92;413;04.10.01.006
12928;169473;32.92;414;04.10.01.006
12868;169483;32.92;415;04.10.01.006
12884;169475;32.92;416;04.10.01.006
12892;169475;32.92;417;04.10.01.006
12900;169467;32.92;418;04.10.01.006
12856;169478;32.92;419;04.10.01.006
12904;169477;32.92;420;04.10.01.006
12892;169479;32.92;421;04.10.01.006
12876;169477;32.92;422;04.10.01.006
12852;169482;32.92;423;04.10.01.006
12908;169485;32.92;424;04.10.01.006
12884;169480;32.92;425;04.10.01.094
12868;169484;32.92;426;04.10.01.105
12892;169486;32.92;427;04.10.01.105
12896;169485;32.92;428;04.10.01.105
12888;169490;32.92;429;04.10.01.105
12908;169487;32.92;430;04.10.01.105
12872;169482;32.92;431;04.10.01.105
12892;169484;32.92;432;04.10.01.105
12904;169490;32.92;433;04.10.01.105
12904;169483;32.92;434;04.10.01.105
12888;169496;32.92;435;04.10.01.105
12896;169493;32.92;436;04.10.01.105
12880;169494;32.92;437;04.10.01.105
12884;169493;32.92;438;04.10.01.105
12908;169495;32.92;439;04.10.01.105
12880;169502;32.92;440;04.10.01.116
12892;169503;32.92;441;04.10.01.116
12884;169505;32.92;442;04.10.01.116
12900;169500;32.92;443;04.10.01.116
12920;169504;32.92;444;04.10.01.116
12868;169506;32.92;445;04.10.01.116
12852;169505;32.92;446;04.10.01.116
12904;169507;32.92;447;04.10.01.116
12868;169511;32.92;448;04.10.01.116
12928;169507;32.92;449;04.10.01.116
12884;169515;32.92;450;04.10.01.226
12888;169511;32.92;451;04.10.01.226
12896;169506;32.92;452;04.10.01.226
12888;169518;32.92;453;04.10.01.226
12896;169523;32.92;454;04.10.01.226
12900;169515;32.92;455;04.10.01.226
12896;169517;32.92;456;04.10.01.226
12888;169517;32.92;457;04.10.01.226
12888;169523;32.92;458;04.10.01.226
12860;169522;32.92;459;04.10.01.226
12896;169526;32.92;460;04.10.01.226
12896;169529;32.92;461;04.10.01.237
12892;169524;32.92;462;04.10.01.237
12872;169527;32.92;463;04.10.01.237
12884;169536;32.92;464;04.10.01.237
12888;169529;32.92;465;04.10.01.237
12904;169532;32.92;466;04.10.01.237
12888;169535;32.92;467;04.10.01.237
12876;169537;32.92;468;04.10.01.237
12892;169537;32.92;469;04.10.01.237
12884;169543;32.92;470;04.10.01.237
12880;169545;32.92;471;04.10.01.237
12900;169541;32.92;472;04.10.01.237
12904;169540;32.92;473;04.10.01.237
12896;169540;32.92;474;04.10.01.248
12876;169549;32.92;475;04.10.01.357
12896;169543;32.92;476;04.10.01.357
12892;169554;32.92;477;04.10.01.357
12896;169554;32.92;478;04.10.01.357
12904;169550;32.92;479;04.10.01.357
12912;169563;32.92;480;04.10.01.357
12904;169561;32.92;481;04.10.01.368
12896;169568;32.92;482;04.10.01.368
12896;169563;32.92;483;04.10.01.368
12860;169563;32.92;484;04.10.01.368
12916;169560;32.92;485;04.10.01.368
12904;169556;32.92;486;04.10.01.368
12904;169564;32.92;487;04.10.01.368
12896;169567;32.92;488;04.10.01.368
12900;169568;32.92;489;04.10.01.368
12880;169565;32.92;490;04.10.01.368
12888;169562;32.92;491;04.10.01.368
12888;169568;32.92;492;04.10.01.368
12900;169571;32.92;493;04.10.01.368
12896;169570;32.92;494;04.10.01.368
12872;169561;32.92;495;04.10.01.379
12912;169567;32.92;496;04.10.01.379
12912;169555;32.92;497;04.10.01.379
12900;169559;32.92;498;04.10.01.379
12884;169550;32.92;499;04.10.01.379
12880;169546;32.92;500;04.10.01.489
12888;169545;32.92;501;04.10.01.489
12900;169545;32.92;502;04.10.01.500
12892;169534;32.92;503;04.10.01.500
12900;169535;32.92;504;04.10.01.500
12892;169532;32.92;505;04.10.01.500
12860;169522;32.92;506;04.10.01.500
12888;169517;32.92;507;04.10.01.500
12892;169508;32.92;508;04.10.01.500
12908;169509;32.92;509;04.10.01.500
12900;169506;32.92;510;04.10.01.500
12844;169506;32.92;511;04.10.01.511
12876;169507;32.92;512;04.10.01.511
12864;169498;32.92;513;04.10.01.511
12844;169489;32.92;514;04.10.01.511
12880;169498;32.92;515;04.10.01.511
12912;169490;32.92;516;04.10.01.511
12884;169499;32.92;517;04.10.01.511
12876;169484;32.92;518;04.10.01.511
12880;169487;32.92;519;04.10.01.511
12876;169479;32.92;520;04.10.01.511
12892;169478;32.92;521;04.10.01.511
12896;169476;32.92;522;04.10.01.511
12888;169483;32.92;523;04.10.01.511
12892;169481;32.92;524;04.10.01.511
12928;169479;32.92;525;04.10.01.610
12888;169475;32.92;526;04.10.01.610
12876;169472;32.92;527;04.10.01.610
12888;169472;32.92;528;04.10.01.610
12900;169466;32.92;529;04.10.01.610
12896;169473;32.92;530;04.10.01.610
12908;169467;32.92;531;04.10.01.610
12928;169464;32.92;532;04.10.01.610
12904;169470;32.92;533;04.10.01.621
12888;169468;32.92;534;04.10.01.621
12908;169471;32.92;535;04.10.01.621
12876;169466;32.92;536;04.10.01.621
12900;169461;32.92;537;04.10.01.621
12884;169464;32.92;538;04.10.01.621
12892;169465;32.92;539;04.10.01.621
12868;169463;32.92;540;04.10.01.621
12896;169458;32.92;541;04.10.01.621
12884;169454;32.92;542;04.10.01.621
12860;169464;32.92;543;04.10.01.621
12876;169462;32.92;544;04.10.01.632
12888;169465;32.92;545;04.10.01.632
12896;169462;32.92;546;04.10.01.632
12884;169463;32.92;547;04.10.01.632
12884;169466;32.92;548;04.10.01.632
12928;169469;32.92;549;04.10.01.632
12880;169473;32.92;550;04.10.01.741
12860;169467;32.92;551;04.10.01.741
12876;169472;32.92;552;04.10.01.741
12912;169465;32.92;553;04.10.01.741
12896;169465;32.92;554;04.10.01.741
12912;169469;32.92;555;04.10.01.741
12904;169477;32.92;556;04.10.01.741
12904;169464;32.92;557;04.10.01.741
12896;169470;32.92;558;04.10.01.752
12896;169474;32.92;559;04.10.01.752
12868;169468;32.92;560;04.10.01.752
12884;169469;32.92;561;04.10.01.752
12880;169469;32.92;562;04.10.01.752
12888;169468;32.92;563;04.10.01.752
12880;169457;32.92;564;04.10.01.752
12912;169471;32.92;565;04.10.01.752
12900;169465;32.92;566;04.10.01.763
12912;169466;32.92;567;04.10.01.763
12880;169466;32.92;568;04.10.01.763
12868;169460;32.92;569;04.10.01.763
12936;169465;32.92;570;04.10.01.763
12896;169465;32.92;571;04.10.01.763
12872;169460;32.92;572;04.10.01.763
12892;169463;32.92;573;04.10.01.763
12872;169466;32.92;574;04.10.01.763
12864;169467;32.92;575;04.10.01.872
12884;169467;32.92;576;04.10.01.872
12872;169466;32.92;577;04.10.01.872
12896;169469;32.92;578;04.10.01.872
12908;169464;32.92;579;04.10.01.883
12920;169472;32.92;580;04.10.01.883
12888;169467;32.92;581;04.10.01.883
12888;169464;32.92;582;04.10.01.883
12896;169470;32.92;583;04.10.01.883
12912;169468;32.92;584;04.10.01.883
12892;169477;32.92;585;04.10.01.883
12892;169473;32.92;586;04.10.01.894
12876;169479;32.92;587;04.10.01.894
12896;169481;32.92;588;04.10.01.894
12876;169478;32.92;589;04.10.01.894
12896;169483;32.92;590;04.10.01.894
12920;169485;32.92;591;04.10.01.894
12884;169480;32.92;592;04.10.01.894
12888;169484;32.92;593;04.10.01.894
12908;169489;32.92;594;04.10.01.894
12872;169497;32.92;595;04.10.01.905
12888;169483;32.92;596;04.10.01.905
12904;169487;32.92;597;04.10.01.905
12884;169488;32.92;598;04.10.01.905
12896;169487;32.92;599;04.10.01.905
12888;169484;32.92;600;04.10.01.993
12896;169493;32.92;601;04.10.01.993
12888;169497;32.92;602;04.10.01.993
12912;169500;32.92;603;04.10.01.993
12896;169499;32.92;604;04.10.01.993
12904;169498;32.92;605;04.10.01.993
12896;169502;32.92;606;04.10.01.993
12896;169506;32.92;607;04.10.01.993
12896;169498;32.92;608;04.10.01.993
12892;169495;32.92;609;04.10.01.993
12888;169503;32.92;610;04.10.01.993
12880;169494;32.92;611;04.10.01.993
12896;169506;32.92;612;04.10.01.993
12896;169509;32.92;613;04.10.02.003
12884;169514;32.92;614;04.10.02.003
12860;169506;32.92;615;04.10.02.003
12892;169510;32.92;616;04.10.02.003
12884;169510;32.92;617;04.10.02.003
12896;169514;32.92;618;04.10.02.003
12900;169511;32.92;619;04.10.02.003
12896;169516;32.92;620;04.10.02.003
12892;169516;32.92;621;04.10.02.003
12888;169522;32.92;622;04.10.02.003
12888;169521;32.92;623;04.10.02.003
12876;169513;32.92;624;04.10.02.003
12896;169520;32.92;625;04.10.02.102
12860;169519;32.92;626;04.10.02.102
12912;169513;32.92;627;04.10.02.102
12896;169526;32.92;628;04.10.02.102
12884;169531;32.92;629;04.10.02.102
12884;169523;32.92;630;04.10.02.102
12872;169525;32.92;631;04.10.02.102
12884;169526;32.92;632;04.10.02.102
12908;169525;32.92;633;04.10.02.113
12904;169531;32.92;634;04.10.02.113
12892;169522;32.92;635;04.10.02.113
12892;169531;32.92;636;04.10.02.113
12900;169528;32.92;637;04.10.02.113
12884;169531;32.92;638;04.10.02.113
12872;169538;32.92;639;04.10.02.113
12880;169539;32.92;640;04.10.02.113
12876;169539;32.92;641;04.10.02.113
12872;169533;32.92;642;04.10.02.124
12884;169539;32.92;643;04.10.02.124
12880;169534;32.92;644;04.10.02.124
12884;169541;32.92;645;04.10.02.124
12904;169540;32.92;646;04.10.02.124
12892;169536;32.92;647;04.10.02.124
12896;169540;32.92;648;04.10.02.124
12896;169538;32.92;649;04.10.02.124
12880;169539;32.92;650;04.10.02.222
12888;169546;32.92;651;04.10.02.222
12888;169545;32.92;652;04.10.02.222
12896;169537;32.92;653;04.10.02.222
12872;169534;32.92;654;04.10.02.222
12888;169531;32.92;655;04.10.02.222
12900;169530;32.92;656;04.10.02.233
12900;169518;32.92;657;04.10.02.233
12880;169517;32.92;658;04.10.02.233
12892;169512;32.92;659;04.10.02.233
12904;169505;32.92;660;04.10.02.233
12876;169509;32.92;661;04.10.02.233
12884;169508;32.92;662;04.10.02.233
12872;169503;32.92;663;04.10.02.233
12888;169502;32.92;664;04.10.02.233
12896;169494;32.92;665;04.10.02.233
12888;169497;32.92;666;04.10.02.233
12904;169498;32.92;667;04.10.02.233
12880;169492;32.92;668;04.10.02.243
12912;169475;32.92;669;04.10.02.243
12876;169488;32.92;670;04.10.02.243
12892;169471;32.92;671;04.10.02.243
12888;169476;32.92;672;04.10.02.243
12892;169475;32.92;673;04.10.02.243
12908;169471;32.92;674;04.10.02.243
12892;169478;32.92;675;04.10.02.353
12900;169474;32.92;676;04.10.02.353
12872;169479;32.92;677;04.10.02.353
12916;169473;32.92;678;04.10.02.353
12884;169470;32.92;679;04.10.02.353
12884;169470;32.92;680;04.10.02.353
12900;169471;32.92;681;04.10.02.353
12872;169472;32.92;682;04.10.02.353
12904;169475;32.92;683;04.10.02.353
12912;169478;32.92;684;04.10.02.353
12896;169463;32.92;685;04.10.02.353
12904;169474;32.92;686;04.10.02.353
12876;169475;32.92;687;04.10.02.353
12920;169470;32.92;688;04.10.02.364
12892;169471;32.92;689;04.10.02.364
12900;169479;32.92;690;04.10.02.364
12900;169472;32.92;691;04.10.02.364
12916;169474;32.92;692;04.10.02.364
12888;169465;32.92;693;04.10.02.364
12888;169470;32.92;694;04.10.02.364
12920;169468;32.92;695;04.10.02.364
12900;169473;32.92;696;04.10.02.364
12920;169470;32.92;697;04.10.02.364
12912;169468;32.92;698;04.10.02.364
12892;169467;32.92;699;04.10.02.364
12884;169463;32.92;700;04.10.02.485
12860;169475;32.92;701;04.10.02.485
12892;169473;32.92;702;04.10.02.485
12872;169476;32.92;703;04.10.02.485
12896;169477;32.92;704;04.10.02.485
12896;169466;32.92;705;04.10.02.485
12908;169478;32.92;706;04.10.02.485
12876;169476;32.92;707;04.10.02.485
12904;169481;32.92;708;04.10.02.485
12880;169476;32.92;709;04.10.02.496
12860;169478;32.92;710;04.10.02.496
12908;169476;32.92;711;04.10.02.496
12892;169476;32.92;712;04.10.02.496
12884;169475;32.92;713;04.10.02.496
12872;169476;32.92;714;04.10.02.496
12876;169482;32.92;715;04.10.02.496
12888;169480;32.92;716;04.10.02.496
12888;169476;32.92;717;04.10.02.496
12884;169469;32.92;718;04.10.02.496
12884;169472;32.92;719;04.10.02.496
12872;169472;32.92;720;04.10.02.496
12884;169468;32.92;721;04.10.02.496
12900;169468;32.92;722;04.10.02.507
12884;169483;32.92;723;04.10.02.507
12888;169471;32.92;724;04.10.02.507
12880;169471;32.92;725;04.10.02.616
12884;169473;32.92;726;04.10.02.616
12900;169476;32.92;727;04.10.02.616
12884;169478;32.92;728;04.10.02.616
12888;169470;32.92;729;04.10.02.616
12884;169482;32.92;730;04.10.02.627
12868;169475;32.92;731;04.10.02.627
12864;169479;32.92;732;04.10.02.627
12888;169480;32.92;733;04.10.02.627
12908;169473;32.92;734;04.10.02.627
12896;169481;32.92;735;04.10.02.627
12892;169485;32.92;736;04.10.02.627
12896;169486;32.92;737;04.10.02.627
12880;169481;32.92;738;04.10.02.627
12904;169495;32.92;739;04.10.02.627
12896;169481;32.92;740;04.10.02.627
12868;169486;32.92;741;04.10.02.627
12916;169488;32.92;742;04.10.02.627
12892;169479;32.92;743;04.10.02.638
12884;169495;32.92;744;04.10.02.638
12900;169490;32.92;745;04.10.02.638
12892;169497;32.92;746;04.10.02.638
12928;169488;32.92;747;04.10.02.638
12868;169489;32.92;748;04.10.02.638
12912;169493;32.92;749;04.10.02.638
12880;169501;32.92;750;04.10.02.726
12912;169501;32.92;751;04.10.02.726
12912;169499;32.92;752;04.10.02.726
12892;169505;32.92;753;04.10.02.737
12884;169495;32.92;754;04.10.02.737
12912;169495;32.92;755;04.10.02.737
12896;169509;32.92;756;04.10.02.737
12908;169507;32.92;757;04.10.02.737
12904;169504;32.92;758;04.10.02.748
12912;169501;32.92;759;04.10.02.748
12884;169507;32.92;760;04.10.02.748
12864;169514;32.92;761;04.10.02.759
12868;169502;32.92;762;04.10.02.759
12888;169513;32.92;763;04.10.02.759
12892;169508;32.92;764;04.10.02.759
12884;169504;32.92;765;04.10.02.759
12892;169504;32.92;766;04.10.02.759
12872;169505;32.92;767;04.10.02.759
12896;169517;32.92;768;04.10.02.759
12896;169503;32.92;769;04.10.02.759
12904;169510;32.92;770;04.10.02.759
12892;169517;32.92;771;04.10.02.770
12916;169510;32.92;772;04.10.02.770
12904;169520;32.92;773;04.10.02.770
12908;169532;32.92;774;04.10.02.770
12896;169524;32.96;775;04.10.02.869
12872;169521;32.96;776;04.10.02.869
12904;169528;32.96;777;04.10.02.869
12856;169525;32.96;778;04.10.02.869
12876;169526;32.96;779;04.10.02.869
12896;169524;32.96;780;04.10.02.869
12920;169530;32.96;781;04.10.02.869
12900;169531;32.96;782;04.10.02.869
12888;169546;32.96;783;04.10.02.902
12896;169539;32.96;784;04.10.02.902
12904;169538;32.96;785;04.10.02.902
12904;169533;32.96;786;04.10.02.902
12868;169539;32.96;787;04.10.02.902
12868;169544;32.96;788;04.10.02.902
12880;169539;32.96;789;04.10.02.902
12868;169547;32.96;790;04.10.02.902
12904;169547;32.96;791;04.10.02.902
12892;169545;32.96;792;04.10.02.902
12888;169543;32.96;793;04.10.02.902
12892;169548;32.96;794;04.10.02.913
12888;169547;32.96;795;04.10.02.913
12904;169544;32.96;796;04.10.02.913
12888;169552;32.96;797;04.10.02.913
12876;169551;32.96;798;04.10.02.913
12892;169555;32.96;799;04.10.02.913
12880;169557;32.96;800;04.10.02.989
12880;169548;32.96;801;04.10.02.989
12892;169551;32.96;802;04.10.02.989
12900;169548;32.96;803;04.10.02.989
12888;169553;32.96;804;04.10.02.989
12880;169560;32.96;805;04.10.02.989
12884;169563;32.96;806;04.10.02.989
12900;169552;32.96;807;04.10.02.989
12888;169552;32.96;808;04.10.03.000
12872;169548;32.96;809;04.10.03.000
12904;169542;32.96;810;04.10.03.000
12880;169534;32.96;811;04.10.03.000
12892;169523;32.96;812;04.10.03.000
12904;169524;32.96;813;04.10.03.000
12876;169521;32.96;814;04.10.03.000
12896;169515;32.96;815;04.10.03.000
12892;169510;32.96;816;04.10.03.000
12892;169505;32.96;817;04.10.03.000
12872;169501;32.96;818;04.10.03.000
12928;169501;32.96;819;04.10.03.000
12916;169505;32.96;820;04.10.03.000
12888;169497;32.96;821;04.10.03.011
12876;169490;32.96;822;04.10.03.011
12888;169492;32.96;823;04.10.03.011
12900;169493;32.96;824;04.10.03.011
12888;169486;32.96;825;04.10.03.121
12900;169488;32.96;826;04.10.03.121
12912;169492;32.96;827;04.10.03.121
12912;169485;32.96;828;04.10.03.121
12868;169476;32.96;829;04.10.03.132
12900;169488;32.96;830;04.10.03.132
12880;169483;32.96;831;04.10.03.132
12888;169484;32.96;832;04.10.03.132
12892;169485;32.96;833;04.10.03.132
12912;169479;32.96;834;04.10.03.132
12884;169481;32.96;835;04.10.03.132
12884;169492;32.96;836;04.10.03.132
12892;169492;32.96;837;04.10.03.132
12880;169486;32.96;838;04.10.03.132
12900;169483;32.96;839;04.10.03.132
12904;169485;32.96;840;04.10.03.132
12904;169472;32.96;841;04.10.03.132
12888;169481;32.96;842;04.10.03.143
12896;169484;32.96;843;04.10.03.143
12888;169484;32.96;844;04.10.03.143
12908;169481;32.96;845;04.10.03.143
12880;169476;32.96;846;04.10.03.143
12864;169475;32.96;847;04.10.03.143
12896;169484;32.96;848;04.10.03.143
12876;169483;32.96;849;04.10.03.143
12884;169482;32.96;850;04.10.03.230
12884;169491;32.96;851;04.10.03.230
12892;169487;32.96;852;04.10.03.230
12880;169484;32.96;853;04.10.03.230
12912;169492;32.96;854;04.10.03.230
12876;169488;32.96;855;04.10.03.230
12892;169494;32.96;856;04.10.03.230
12888;169494;32.96;857;04.10.03.230
12856;169487;32.96;858;04.10.03.230
12884;169481;32.96;859;04.10.03.230
12856;169483;32.96;860;04.10.03.230
12900;169488;32.96;861;04.10.03.230
12900;169487;32.96;862;04.10.03.241
12888;169486;32.96;863;04.10.03.241
12896;169488;32.96;864;04.10.03.241
12900;169486;32.96;865;04.10.03.241
12884;169493;32.96;866;04.10.03.241
12884;169481;32.96;867;04.10.03.241
12904;169488;32.96;868;04.10.03.241
12892;169480;32.96;869;04.10.03.241
12888;169481;32.96;870;04.10.03.241
12900;169481;32.96;871;04.10.03.241
12916;169479;32.96;872;04.10.03.241
12912;169487;32.96;873;04.10.03.241
12904;169475;32.96;874;04.10.03.241
12892;169482;32.92;875;04.10.03.350
12860;169474;32.92;876;04.10.03.350
12888;169475;32.92;877;04.10.03.350
12928;169478;32.92;878;04.10.03.350
12896;169476;32.92;879;04.10.03.350
12876;169474;32.92;880;04.10.03.350
12892;169472;32.92;881;04.10.03.350
12900;169480;32.92;882;04.10.03.350
12864;169474;32.92;883;04.10.03.350
12892;169477;32.92;884;04.10.03.361
12880;169485;32.92;885;04.10.03.361
12876;169480;32.92;886;04.10.03.361
12880;169482;32.92;887;04.10.03.361
12856;169484;32.92;888;04.10.03.361
12888;169491;32.92;889;04.10.03.361
12876;169488;32.92;890;04.10.03.361
12860;169490;32.92;891;04.10.03.361
12900;169492;32.92;892;04.10.03.361
12856;169491;32.92;893;04.10.03.361
12880;169495;32.92;894;04.10.03.361
12844;169485;32.92;895;04.10.03.361
12884;169495;32.92;896;04.10.03.361
12888;169490;32.92;897;04.10.03.372
12904;169493;32.92;898;04.10.03.372
12908;169496;32.92;899;04.10.03.372
12904;169493;32.92;900;04.10.03.482
12892;169501;32.92;901;04.10.03.482
12928;169495;32.92;902;04.10.03.482
12860;169493;32.92;903;04.10.03.482
12884;169495;32.92;904;04.10.03.493
12888;169499;32.92;905;04.10.03.493
12904;169495;32.92;906;04.10.03.493
12868;169500;32.92;907;04.10.03.493
12888;169504;32.92;908;04.10.03.493
12864;169501;32.92;909;04.10.03.493
12880;169514;32.92;910;04.10.03.493
12920;169503;32.92;911;04.10.03.493
12896;169504;32.92;912;04.10.03.493
12892;169511;32.92;913;04.10.03.493
12908;169509;32.92;914;04.10.03.493
12936;169502;32.92;915;04.10.03.493
12872;169513;32.92;916;04.10.03.493
12904;169509;32.92;917;04.10.03.493
12880;169510;32.92;918;04.10.03.504
12880;169513;32.92;919;04.10.03.504
12896;169514;32.92;920;04.10.03.504
12896;169510;32.92;921;04.10.03.504
12860;169510;32.92;922;04.10.03.504
12884;169520;32.92;923;04.10.03.504
12912;169515;32.92;924;04.10.03.504
12900;169519;32.92;925;04.10.03.624
12888;169534;32.92;926;04.10.03.624
12912;169521;32.92;927;04.10.03.624
12872;169524;32.92;928;04.10.03.624
12896;169523;32.92;929;04.10.03.624
12876;169525;32.92;930;04.10.03.624
12900;169530;32.92;931;04.10.03.624
12868;169534;32.92;932;04.10.03.624
12888;169541;32.92;933;04.10.03.624
12928;169532;32.92;934;04.10.03.624
12912;169537;32.92;935;04.10.03.624
12896;169535;32.92;936;04.10.03.624
12892;169545;32.92;937;04.10.03.624
12912;169531;32.92;938;04.10.03.624
12892;169535;32.92;939;04.10.03.635
12900;169532;32.92;940;04.10.03.635
12896;169534;32.92;941;04.10.03.635
12896;169536;32.92;942;04.10.03.635
12900;169540;32.92;943;04.10.03.635
12884;169547;32.92;944;04.10.03.635
12912;169548;32.92;945;04.10.03.635
12876;169544;32.92;946;04.10.03.635
12860;169549;32.92;947;04.10.03.635
12880;169552;32.92;948;04.10.03.635
12932;169543;32.92;949;04.10.03.635
12908;169528;32.92;950;04.10.03.734
12876;169528;32.92;951;04.10.03.734
12860;169533;32.92;952;04.10.03.734
12888;169532;32.92;953;04.10.03.734
12884;169516;32.92;954;04.10.03.734
12904;169518;32.92;955;04.10.03.734
12904;169515;32.92;956;04.10.03.734
12864;169512;32.92;957;04.10.03.734
12912;169502;32.92;958;04.10.03.756
12904;169498;32.92;959;04.10.03.756
12888;169503;32.92;960;04.10.03.756
12884;169492;32.92;961;04.10.03.756
12876;169490;32.92;962;04.10.03.756
12900;169478;32.92;963;04.10.03.756
12912;169474;32.92;964;04.10.03.756
12860;169469;32.92;965;04.10.03.756
12896;169466;32.92;966;04.10.03.756
12856;169473;32.92;967;04.10.03.800
12880;169461;32.92;968;04.10.03.800
12872;169462;32.92;969;04.10.03.800
12864;169465;32.92;970;04.10.03.800
12864;169456;32.92;971;04.10.03.800
12892;169459;32.92;972;04.10.03.800
12884;169458;32.92;973;04.10.03.800
12892;169459;32.92;974;04.10.03.800
12880;169461;32.92;975;04.10.03.855
12904;169456;32.92;976;04.10.03.855
12876;169458;32.92;977;04.10.03.855
12896;169454;32.92;978;04.10.03.855
12892;169449;32.92;979;04.10.03.855
12884;169453;32.92;980;04.10.03.855
12896;169450;32.92;981;04.10.03.855
12876;169449;32.92;982;04.10.03.866
12896;169447;32.92;983;04.10.03.866
12896;169449;32.92;984;04.10.03.866
12912;169449;32.92;985;04.10.03.866
12876;169450;32.92;986;04.10.03.866
12900;169444;32.92;987;04.10.03.866
12880;169448;32.92;988;04.10.03.866
12872;169444;32.92;989;04.10.03.866
12928;169440;32.92;990;04.10.03.866
12892;169432;32.92;991;04.10.03.866
12896;169441;32.92;992;04.10.03.887
12884;169425;32.92;993;04.10.03.887
12892;169432;32.92;994;04.10.03.887
12884;169436;32.92;995;04.10.03.887
12884;169432;32.92;996;04.10.03.887
12888;169442;32.92;997;04.10.03.887
12888;169432;32.92;998;04.10.03.887
12904;169445;32.92;999;04.10.03.898
12896;169439;32.92;000;04.10.03.975
12876;169437;32.92;001;04.10.03.975
12904;169439;32.92;002;04.10.03.986
12888;169434;32.92;003;04.10.03.986
12896;169445;32.92;004;04.10.03.986
12884;169443;32.92;005;04.10.03.986
12920;169438;32.92;006;04.10.03.986
12904;169434;32.92;007;04.10.03.986
12928;169438;32.92;008;04.10.03.986
12860;169445;32.92;009;04.10.03.986
12860;169439;32.92;010;04.10.03.986
12884;169440;32.92;011;04.10.03.986
12904;169442;32.92;012;04.10.03.986
12888;169443;32.92;013;04.10.03.986
12872;169443;32.92;014;04.10.03.986
12904;169447;32.92;015;04.10.03.986
12888;169444;32.92;016;04.10.03.998
12900;169437;32.92;017;04.10.03.998
12892;169443;32.92;018;04.10.03.998
12908;169435;32.92;019;04.10.03.998
12896;169443;32.92;020;04.10.03.998
12876;169433;32.92;021;04.10.03.998
12896;169433;32.92;022;04.10.03.998
12896;169441;32.92;023;04.10.03.998
12900;169449;32.92;024;04.10.03.998
12896;169442;32.92;025;04.10.04.118
12876;169444;32.92;026;04.10.04.118
12896;169437;32.92;027;04.10.04.118
12888;169429;32.92;028;04.10.04.118
12896;169442;32.92;029;04.10.04.118
12876;169446;32.92;030;04.10.04.118
12872;169435;32.92;031;04.10.04.118
12884;169455;32.92;032;04.10.04.118
12876;169450;32.92;033;04.10.04.118
12888;169444;32.92;034;04.10.04.118
12884;169437;32.92;035;04.10.04.118
12868;169445;32.92;036;04.10.04.129
12876;169440;32.92;037;04.10.04.129
12880;169447;32.92;038;04.10.04.129
12876;169448;32.92;039;04.10.04.129
12904;169453;32.92;040;04.10.04.129
12860;169445;32.92;041;04.10.04.129
12880;169447;32.92;042;04.10.04.129
12884;169450;32.92;043;04.10.04.129
12876;169446;32.92;044;04.10.04.129
12904;169451;32.92;045;04.10.04.129
12892;169455;32.92;046;04.10.04.129
12884;169452;32.92;047;04.10.04.129
12888;169458;32.92;048;04.10.04.129
12892;169455;32.92;049;04.10.04.129
12888;169462;32.92;050;04.10.04.228
12896;169469;32.92;051;04.10.04.228
12880;169467;32.92;052;04.10.04.228
12884;169466;32.92;053;04.10.04.228
12868;169466;32.92;054;04.10.04.228
12900;169464;32.92;055;04.10.04.228
12880;169458;32.92;056;04.10.04.228
12888;169466;32.92;057;04.10.04.228
12860;169469;32.92;058;04.10.04.250
12912;169467;32.92;059;04.10.04.250
12900;169459;32.92;060;04.10.04.250
12888;169472;32.92;061;04.10.04.250
12872;169466;32.92;062;04.10.04.250
12888;169466;32.92;063;04.10.04.250
12860;169473;32.92;064;04.10.04.250
12880;169467;32.92;065;04.10.04.250
12884;169471;32.92;066;04.10.04.250
12876;169478;32.92;067;04.10.04.260
12896;169485;32.92;068;04.10.04.260
12896;169478;32.92;069;04.10.04.260
12888;169487;32.92;070;04.10.04.260
12904;169494;32.92;071;04.10.04.260
12892;169487;32.92;072;04.10.04.260
12872;169483;32.92;073;04.10.04.260
12916;169488;32.92;074;04.10.04.260
12872;169486;32.92;075;04.10.04.381
12888;169481;32.92;076;04.10.04.381
12900;169484;32.92;077;04.10.04.381
12880;169489;32.92;078;04.10.04.381
12892;169493;32.92;079;04.10.04.381
12876;169497;32.92;080;04.10.04.392
12896;169507;32.92;081;04.10.04.392
12884;169506;32.92;082;04.10.04.392
12908;169505;32.92;083;04.10.04.392
12860;169499;32.92;084;04.10.04.392
12900;169498;32.92;085;04.10.04.392
12864;169502;32.92;086;04.10.04.392
12876;169504;32.92;087;04.10.04.392
12888;169501;32.92;088;04.10.04.392
12892;169501;32.92;089;04.10.04.392
12880;169494;32.92;090;04.10.04.392
12900;169494;32.92;091;04.10.04.392
12892;169489;32.92;092;04.10.04.392
12876;169483;32.92;093;04.10.04.403
12864;169476;32.92;094;04.10.04.403
12908;169471;32.92;095;04.10.04.403
12896;169472;32.92;096;04.10.04.403
12876;169467;32.92;097;04.10.04.403
12880;169466;32.92;098;04.10.04.403
12928;169460;32.92;099;04.10.04.403
12904;169455;32.92;100;04.10.04.469
12884;169439;32.92;101;04.10.04.480
12896;169449;32.92;102;04.10.04.480
12892;169441;32.92;103;04.10.04.480
12896;169440;32.92;104;04.10.04.480
12896;169428;32.92;105;04.10.04.480
12892;169437;32.92;106;04.10.04.480
12880;169424;32.92;107;04.10.04.480
12888;169425;32.92;108;04.10.04.480
12892;169424;32.92;109;04.10.04.480
12888;169419;32.92;110;04.10.04.491
12912;169419;32.92;111;04.10.04.491
12892;169424;32.92;112;04.10.04.491
12888;169420;32.92;113;04.10.04.491
12868;169414;32.92;114;04.10.04.491
12900;169407;32.92;115;04.10.04.491
12872;169406;32.92;116;04.10.04.491
12912;169407;32.92;117;04.10.04.491
12904;169400;32.92;118;04.10.04.491
12876;169414;32.92;119;04.10.04.491
12876;169405;32.92;120;04.10.04.491
12908;169406;32.92;121;04.10.04.491
12888;169408;32.92;122;04.10.04.491
12904;169402;32.92;123;04.10.04.502
12904;169407;32.92;124;04.10.04.502
12876;169404;32.92;125;04.10.04.612
12872;169406;32.92;126;04.10.04.612
12896;169403;32.92;127;04.10.04.612
12920;169402;32.92;128;04.10.04.612
12872;169400;32.92;129;04.10.04.612
12904;169402;32.92;130;04.10.04.612
12860;169400;32.92;131;04.10.04.612
12888;169405;32.92;132;04.10.04.612
12888;169408;32.92;133;04.10.04.612
12896;169415;32.92;134;04.10.04.612
12884;169413;32.92;135;04.10.04.623
12888;169420;32.92;136;04.10.04.623
12916;169413;32.92;137;04.10.04.623
12908;169408;32.92;138;04.10.04.623
12888;169416;32.92;139;04.10.04.623
12892;169404;32.92;140;04.10.04.623
12912;169419;32.92;141;04.10.04.623
12904;169414;32.92;142;04.10.04.623
12876;169419;32.92;143;04.10.04.623
12876;169416;32.92;144;04.10.04.623
12888;169413;32.92;145;04.10.04.623
12912;169415;32.92;146;04.10.04.623
12928;169414;32.92;147;04.10.04.623
12892;169407;32.92;148;04.10.04.634
12888;169414;32.92;149;04.10.04.634
12868;169412;32.92;150;04.10.04.742
12892;169416;32.92;151;04.10.04.742
12908;169413;32.92;152;04.10.04.742
12900;169413;32.92;153;04.10.04.742
12888;169406;32.92;154;04.10.04.742
12892;169404;32.92;155;04.10.04.742
12912;169406;32.92;156;04.10.04.753
12892;169398;32.92;157;04.10.04.753
12888;169403;32.92;158;04.10.04.753
12856;169405;32.92;159;04.10.04.753
12888;169398;32.92;160;04.10.04.753
12896;169398;32.92;161;04.10.04.753
12872;169399;32.92;162;04.10.04.753
12876;169398;32.92;163;04.10.04.753
12860;169401;32.92;164;04.10.04.753
12868;169404;32.92;165;04.10.04.753
12904;169408;32.92;166;04.10.04.753
12872;169397;32.92;167;04.10.04.753
12884;169389;32.92;168;04.10.04.764
12892;169401;32.92;169;04.10.04.764
12896;169405;32.92;170;04.10.04.764
12888;169403;32.92;171;04.10.04.764
12872;169403;32.92;172;04.10.04.764
12876;169418;32.92;173;04.10.04.764
12928;169412;32.92;174;04.10.04.764
12896;169407;32.96;175;04.10.04.852
12892;169421;32.96;176;04.10.04.852
12928;169415;32.96;177;04.10.04.863
12892;169410;32.96;178;04.10.04.863
12892;169413;32.96;179;04.10.04.863
12908;169415;32.96;180;04.10.04.863
12896;169418;32.96;181;04.10.04.863
12896;169419;32.96;182;04.10.04.863
12928;169416;32.96;183;04.10.04.863
12868;169420;32.96;184;04.10.04.874
12892;169428;32.96;185;04.10.04.874
12884;169430;32.96;186;04.10.04.874
12912;169429;32.96;187;04.10.04.874
12904;169423;32.96;188;04.10.04.874
12896;169438;32.96;189;04.10.04.874
12892;169435;32.96;190;04.10.04.874
12880;169432;32.96;191;04.10.04.874
12900;169431;32.96;192;04.10.04.874
12888;169436;32.96;193;04.10.04.874
12888;169440;32.96;194;04.10.04.885
12908;169444;32.96;195;04.10.04.885
12876;169438;32.96;196;04.10.04.885
12904;169441;32.96;197;04.10.04.885
12888;169442;32.96;198;04.10.04.885
12892;169439;32.96;199;04.10.04.885
12888;169433;32.96;200;04.10.04.983
12880;169448;32.96;201;04.10.04.983
12880;169449;32.96;202;04.10.04.983
12896;169446;32.96;203;04.10.04.983
12888;169448;32.96;204;04.10.04.983
12884;169452;32.96;205;04.10.04.983
12884;169452;32.96;206;04.10.04.983
12884;169452;32.96;207;04.10.04.983
12900;169451;32.96;208;04.10.04.983
12860;169455;32.96;209;04.10.04.983
12900;169454;32.96;210;04.10.04.983
12896;169459;32.96;211;04.10.04.994
12904;169447;32.96;212;04.10.04.994
12884;169461;32.96;213;04.10.04.994
12884;169453;32.96;214;04.10.04.994
12912;169452;32.96;215;04.10.04.994
12876;169454;32.96;216;04.10.04.994
12884;169462;32.96;217;04.10.04.994
12876;169460;32.96;218;04.10.04.994
12848;169470;32.96;219;04.10.04.994
12888;169471;32.96;220;04.10.04.994
12860;169479;32.96;221;04.10.04.994
12888;169471;32.96;222;04.10.04.994
12864;169480;32.96;223;04.10.04.994
12892;169479;32.96;224;04.10.05.005
12900;169475;32.92;225;04.10.05.104
12892;169479;32.92;226;04.10.05.104
12888;169477;32.92;227;04.10.05.104
12928;169481;32.92;228;04.10.05.104
12876;169485;32.92;229;04.10.05.104
12888;169490;32.92;230;04.10.05.104
12880;169489;32.92;231;04.10.05.104
12888;169488;32.92;232;04.10.05.104
12884;169498;32.92;233;04.10.05.115
12892;169488;32.92;234;04.10.05.115
12880;169489;32.92;235;04.10.05.115
12884;169492;32.92;236;04.10.05.115
12880;169483;32.92;237;04.10.05.115
12884;169489;32.92;238;04.10.05.115
12896;169482;32.92;239;04.10.05.115
12904;169475;32.92;240;04.10.05.115
12892;169470;32.92;241;04.10.05.115
12896;169460;32.92;242;04.10.05.115
12844;169460;32.92;243;04.10.05.115
12888;169461;32.92;244;04.10.05.115
12884;169457;32.92;245;04.10.05.126
12896;169451;32.92;246;04.10.05.126
12868;169445;32.92;247;04.10.05.126
12868;169449;32.92;248;04.10.05.126
12912;169448;32.92;249;04.10.05.126
12900;169439;32.92;250;04.10.05.236
12860;169430;32.92;251;04.10.05.236
12884;169422;32.92;252;04.10.05.236
12864;169429;32.92;253;04.10.05.247
12872;169417;32.92;254;04.10.05.247
12880;169417;32.92;255;04.10.05.247
12896;169422;32.92;256;04.10.05.247
12892;169419;32.92;257;04.10.05.247
12888;169412;32.92;258;04.10.05.247
12880;169417;32.92;259;04.10.05.247
12892;169409;32.92;260;04.10.05.247
12888;169408;32.92;261;04.10.05.247
12900;169406;32.92;262;04.10.05.247
12900;169409;32.92;263;04.10.05.247
12872;169408;32.92;264;04.10.05.247
12880;169402;32.92;265;04.10.05.247
12884;169398;32.92;266;04.10.05.258
12888;169405;32.92;267;04.10.05.258
12900;169402;32.92;268;04.10.05.258
12900;169406;32.92;269;04.10.05.258
12888;169410;32.92;270;04.10.05.258
12884;169399;32.92;271;04.10.05.258
12880;169402;32.92;272;04.10.05.258
12860;169399;32.92;273;04.10.05.258
12904;169413;32.92;274;04.10.05.258
12880;169406;32.92;275;04.10.05.356
12912;169408;32.92;276;04.10.05.356
12868;169401;32.92;277;04.10.05.356
12884;169407;32.92;278;04.10.05.356
12876;169408;32.92;279;04.10.05.356
12900;169400;32.92;280;04.10.05.356
12876;169404;32.92;281;04.10.05.356
12896;169401;32.92;282;04.10.05.356
12880;169402;32.92;283;04.10.05.367
12896;169402;32.92;284;04.10.05.367
12912;169409;32.92;285;04.10.05.367
12876;169407;32.92;286;04.10.05.367
12884;169407;32.92;287;04.10.05.367
12860;169407;32.92;288;04.10.05.367
12884;169410;32.92;289;04.10.05.367
12876;169406;32.92;290;04.10.05.367
12872;169406;32.92;291;04.10.05.367
12944;169415;32.92;292;04.10.05.367
12880;169411;32.92;293;04.10.05.367
12908;169406;32.92;294;04.10.05.367
12928;169415;32.92;295;04.10.05.378
12888;169408;32.92;296;04.10.05.378
12916;169417;32.92;297;04.10.05.378
12880;169409;32.92;298;04.10.05.378
12884;169418;32.92;299;04.10.05.378
12904;169420;32.92;300;04.10.05.476
12872;169416;32.92;301;04.10.05.476
12896;169417;32.92;302;04.10.05.476
12884;169415;32.92;303;04.10.05.476
12896;169404;32.92;304;04.10.05.476
12888;169409;32.92;305;04.10.05.476
12880;169424;32.92;306;04.10.05.476
12892;169415;32.92;307;04.10.05.476
12888;169406;32.92;308;04.10.05.487
12912;169414;32.92;309;04.10.05.487
12884;169416;32.92;310;04.10.05.487
12908;169411;32.92;311;04.10.05.487
12904;169411;32.92;312;04.10.05.487
12892;169422;32.92;313;04.10.05.487
12876;169417;32.92;314;04.10.05.487
12872;169416;32.92;315;04.10.05.487
12912;169415;32.92;316;04.10.05.487
12892;169428;32.92;317;04.10.05.487
12872;169429;32.92;318;04.10.05.487
12884;169423;32.92;319;04.10.05.487
12888;169421;32.92;320;04.10.05.487
12876;169423;32.92;321;04.10.05.498
12892;169428;32.92;322;04.10.05.498
12904;169431;32.92;323;04.10.05.498
12888;169427;32.92;324;04.10.05.498
12880;169430;32.92;325;04.10.05.597
12860;169424;32.92;326;04.10.05.597
12876;169435;32.92;327;04.10.05.597
12884;169431;32.92;328;04.10.05.597
12868;169433;32.92;329;04.10.05.597
12884;169439;32.92;330;04.10.05.608
12896;169435;32.92;331;04.10.05.608
12880;169439;32.92;332;04.10.05.608
12904;169436;32.92;333;04.10.05.608
12900;169434;32.92;334;04.10.05.608
12880;169434;32.92;335;04.10.05.608
12900;169434;32.92;336;04.10.05.608
12876;169435;32.92;337;04.10.05.608
12888;169442;32.92;338;04.10.05.619
12892;169450;32.92;339;04.10.05.619
12888;169449;32.92;340;04.10.05.619
12876;169448;32.92;341;04.10.05.619
12892;169457;32.92;342;04.10.05.619
12888;169453;32.92;343;04.10.05.619
12876;169451;32.92;344;04.10.05.619
12904;169453;32.92;345;04.10.05.619
12876;169452;32.92;346;04.10.05.619
12864;169454;32.92;347;04.10.05.619
12896;169469;32.92;348;04.10.05.619
12888;169467;32.92;349;04.10.05.619
12896;169468;32.92;350;04.10.05.729
12884;169466;32.92;351;04.10.05.739
12888;169469;32.92;352;04.10.05.739
12904;169467;32.92;353;04.10.05.739
12900;169470;32.92;354;04.10.05.739
12876;169463;32.92;355;04.10.05.739
12876;169477;32.92;356;04.10.05.739
12888;169475;32.92;357;04.10.05.739
12876;169474;32.92;358;04.10.05.739
12896;169472;32.92;359;04.10.05.739
12892;169470;32.92;360;04.10.05.739
12868;169474;32.92;361;04.10.05.739
12892;169473;32.92;362;04.10.05.739
12900;169480;32.92;363;04.10.05.750
12868;169480;32.92;364;04.10.05.750
12884;169481;32.92;365;04.10.05.750
12876;169491;32.92;366;04.10.05.750
12904;169484;32.92;367;04.10.05.750
12884;169490;32.92;368;04.10.05.750
12884;169489;32.92;369;04.10.05.750
12904;169484;32.92;370;04.10.05.750
12888;169489;32.92;371;04.10.05.750
12896;169486;32.92;372;04.10.05.750
12892;169499;32.92;373;04.10.05.750
12900;169491;32.92;374;04.10.05.750
12888;169505;32.96;375;04.10.05.872
12872;169507;32.96;376;04.10.05.872
12920;169506;32.96;377;04.10.05.872
12912;169502;32.96;378;04.10.05.872
12904;169507;32.96;379;04.10.05.872
12904;169504;32.96;380;04.10.05.872
12896;169504;32.96;381;04.10.05.872
12880;169516;32.96;382;04.10.05.872
12912;169510;32.96;383;04.10.05.872
12872;169514;32.96;384;04.10.05.872
12888;169518;32.96;385;04.10.05.872
12928;169517;32.96;386;04.10.05.883
12896;169519;32.96;387;04.10.05.883
12892;169523;32.96;388;04.10.05.883
12876;169526;32.96;389;04.10.05.883
12892;169528;32.96;390;04.10.05.883
12884;169528;32.96;391;04.10.05.883
12876;169529;32.96;392;04.10.05.883
12880;169524;32.96;393;04.10.05.883
12888;169531;32.96;394;04.10.05.883
12884;169532;32.96;395;04.10.05.883
12860;169535;32.96;396;04.10.05.883
12884;169525;32.96;397;04.10.05.883
12896;169527;32.96;398;04.10.05.883
12928;169523;32.96;399;04.10.05.894
12864;169515;32.96;400;04.10.05.982
12892;169512;32.96;401;04.10.05.982
12872;169509;32.96;402;04.10.05.982
12876;169507;32.96;403;04.10.05.982
12888;169498;32.96;404;04.10.05.982
12884;169494;32.96;405;04.10.05.982
12884;169493;32.96;406;04.10.05.982
12888;169483;32.96;407;04.10.05.982
12888;169489;32.96;408;04.10.05.993
12876;169490;32.96;409;04.10.05.993
12896;169475;32.96;410;04.10.05.993
12876;169475;32.96;411;04.10.05.993
12856;169474;32.96;412;04.10.05.993
12880;169471;32.96;413;04.10.05.993
12880;169471;32.96;414;04.10.05.993
12900;169466;32.96;415;04.10.05.993
12868;169464;32.96;416;04.10.05.993
12904;169470;32.96;417;04.10.06.004
12892;169457;32.96;418;04.10.06.004
12884;169463;32.96;419;04.10.06.004
12892;169461;32.96;420;04.10.06.004
12896;169459;32.96;421;04.10.06.004
12884;169451;32.96;422;04.10.06.004
12900;169452;32.96;423;04.10.06.004
12884;169449;32.96;424;04.10.06.004
12888;169457;32.92;425;04.10.06.113
12896;169457;32.92;426;04.10.06.113
12880;169448;32.92;427;04.10.06.113
12896;169450;32.92;428;04.10.06.113
12876;169449;32.92;429;04.10.06.124
12844;169443;32.92;430;04.10.06.124
12888;169459;32.92;431;04.10.06.124
12892;169450;32.92;432;04.10.06.124
12864;169453;32.92;433;04.10.06.124
12880;169455;32.92;434;04.10.06.124
12896;169457;32.92;435;04.10.06.124
12912;169458;32.92;436;04.10.06.124
12880;169462;32.92;437;04.10.06.124
12868;169455;32.92;438;04.10.06.125
12876;169456;32.92;439;04.10.06.136
12892;169460;32.92;440;04.10.06.136
12884;169458;32.92;441;04.10.06.136
12892;169450;32.92;442;04.10.06.136
12900;169455;32.92;443;04.10.06.136
12896;169454;32.92;444;04.10.06.136
12896;169460;32.92;445;04.10.06.136
12876;169461;32.92;446;04.10.06.136
12880;169463;32.92;447;04.10.06.147
12904;169466;32.92;448;04.10.06.147
12900;169461;32.92;449;04.10.06.147
12896;169460;32.92;450;04.10.06.224
12880;169461;32.92;451;04.10.06.235
12880;169466;32.92;452;04.10.06.235
12904;169460;32.92;453;04.10.06.235
12904;169467;32.92;454;04.10.06.235
12884;169462;32.92;455;04.10.06.235
12892;169465;32.92;456;04.10.06.235
12896;169455;32.92;457;04.10.06.235
12868;169469;32.92;458;04.10.06.235
12888;169466;32.92;459;04.10.06.235
12928;169459;32.92;460;04.10.06.235
12884;169470;32.92;461;04.10.06.235
12896;169469;32.92;462;04.10.06.235
12884;169470;32.92;463;04.10.06.235
12868;169459;32.92;464;04.10.06.235
12880;169469;32.92;465;04.10.06.246
12864;169473;32.92;466;04.10.06.246
12896;169473;32.92;467;04.10.06.246
12884;169466;32.92;468;04.10.06.246
12856;169469;32.92;469;04.10.06.246
12896;169458;32.92;470;04.10.06.246
12888;169471;32.92;471;04.10.06.246
12860;169471;32.92;472;04.10.06.246
12928;169470;32.92;473;04.10.06.246
12900;169468;32.92;474;04.10.06.246
12876;169472;32.96;475;04.10.06.367
12916;169469;32.96;476;04.10.06.367
12892;169465;32.96;477;04.10.06.367
12912;169467;32.96;478;04.10.06.367
12904;169469;32.96;479;04.10.06.367
12884;169468;32.96;480;04.10.06.367
12880;169468;32.96;481;04.10.06.367
12876;169468;32.96;482;04.10.06.367
12888;169476;32.96;483;04.10.06.367
12888;169481;32.96;484;04.10.06.367
12896;169475;32.96;485;04.10.06.378
12888;169475;32.96;486;04.10.06.378
12876;169481;32.96;487;04.10.06.378
12880;169481;32.96;488;04.10.06.378
12868;169482;32.96;489;04.10.06.378
12904;169478;32.96;490;04.10.06.378
12884;169490;32.96;491;04.10.06.378
12884;169492;32.96;492;04.10.06.378
12880;169487;32.96;493;04.10.06.378
12892;169486;32.96;494;04.10.06.378
12904;169489;32.96;495;04.10.06.378
12900;169495;32.96;496;04.10.06.378
12900;169491;32.96;497;04.10.06.378
12860;169487;32.96;498;04.10.06.389
12892;169499;32.96;499;04.10.06.389
12856;169503;32.96;500;04.10.06.477
12900;169502;32.96;501;04.10.06.477
12876;169495;32.96;502;04.10.06.477
12880;169498;32.96;503;04.10.06.477
12888;169498;32.96;504;04.10.06.477
12876;169507;32.96;505;04.10.06.477
12876;169500;32.96;506;04.10.06.477
12896;169500;32.96;507;04.10.06.487
12896;169505;32.96;508;04.10.06.498
12884;169502;32.96;509;04.10.06.498
12864;169505;32.96;510;04.10.06.498
12900;169507;32.96;511;04.10.06.498
12888;169505;32.96;512;04.10.06.498
12904;169508;32.96;513;04.10.06.498
12900;169510;32.96;514;04.10.06.509
12892;169516;32.96;515;04.10.06.509
12888;169527;32.96;516;04.10.06.509
12860;169520;32.96;517;04.10.06.509
12896;169506;32.96;518;04.10.06.509
12904;169517;32.96;519;04.10.06.509
12900;169516;32.96;520;04.10.06.509
12900;169516;32.96;521;04.10.06.509
12856;169513;32.96;522;04.10.06.509
12892;169526;32.96;523;04.10.06.509
12892;169525;32.96;524;04.10.06.509
12904;169521;32.92;525;04.10.06.597
12900;169522;32.92;526;04.10.06.597
12888;169526;32.92;527;04.10.06.597
12896;169519;32.92;528;04.10.06.608
12900;169530;32.92;529;04.10.06.608
12880;169525;32.92;530;04.10.06.608
12880;169529;32.92;531;04.10.06.608
12892;169525;32.92;532;04.10.06.608
12928;169531;32.92;533;04.10.06.608
12900;169538;32.92;534;04.10.06.608
12888;169534;32.92;535;04.10.06.608
12876;169525;32.92;536;04.10.06.608
12904;169534;32.92;537;04.10.06.608
12880;169538;32.92;538;04.10.06.608
12896;169532;32.92;539;04.10.06.608
12872;169528;32.92;540;04.10.06.608
12904;169539;32.92;541;04.10.06.619
12860;169541;32.92;542;04.10.06.619
12860;169549;32.92;543;04.10.06.619
12876;169546;32.92;544;04.10.06.619
12884;169548;32.92;545;04.10.06.619
12860;169553;32.92;546;04.10.06.619
12896;169547;32.92;547;04.10.06.619
12868;169549;32.92;548;04.10.06.619
12876;169559;32.92;549;04.10.06.619
12888;169564;32.92;550;04.10.06.728
12876;169554;32.92;551;04.10.06.728
12884;169558;32.92;552;04.10.06.728
12876;169564;32.92;553;04.10.06.728
12884;169565;32.92;554;04.10.06.728
12896;169563;32.92;555;04.10.06.728
12888;169563;32.92;556;04.10.06.728
12896;169570;32.92;557;04.10.06.728
12884;169564;32.92;558;04.10.06.728
12884;169564;32.92;559;04.10.06.739
12892;169562;32.92;560;04.10.06.739
12860;169565;32.92;561;04.10.06.739
12904;169552;32.92;562;04.10.06.739
12872;169552;32.92;563;04.10.06.739
12852;169555;32.92;564;04.10.06.739
12912;169542;32.92;565;04.10.06.739
12888;169551;32.92;566;04.10.06.739
12876;169536;32.92;567;04.10.06.739
12916;169523;32.92;568;04.10.06.739
12872;169530;32.92;569;04.10.06.739
12876;169528;32.92;570;04.10.06.750
12900;169520;32.92;571;04.10.06.750
12896;169518;32.92;572;04.10.06.750
12904;169514;32.92;573;04.10.06.750
12928;169505;32.92;574;04.10.06.750
12912;169502;32.92;575;04.10.06.871
12884;169502;32.92;576;04.10.06.871
12860;169506;32.92;577;04.10.06.871
12900;169490;32.92;578;04.10.06.871
12900;169491;32.92;579;04.10.06.871
12896;169502;32.92;580;04.10.06.871
12876;169493;32.92;581;04.10.06.871
12888;169495;32.92;582;04.10.06.871
12904;169490;32.92;583;04.10.06.882
12896;169493;32.92;584;04.10.06.882
12908;169490;32.92;585;04.10.06.882
12888;169489;32.92;586;04.10.06.882
12884;169488;32.92;587;04.10.06.882
12888;169488;32.92;588;04.10.06.882
12884;169489;32.92;589;04.10.06.882
12896;169487;32.92;590;04.10.06.882
12852;169485;32.92;591;04.10.06.893
12888;169481;32.92;592;04.10.06.893
12880;169480;32.92;593;04.10.06.893
12892;169481;32.92;594;04.10.06.893
12880;169488;32.92;595;04.10.06.893
12876;169486;32.92;596;04.10.06.893
12884;169491;32.92;597;04.10.06.893
12860;169489;32.92;598;04.10.06.893
12872;169484;32.92;599;04.10.06.893
12876;169488;32.92;600;04.10.07.002
12880;169484;32.92;601;04.10.07.002
12896;169484;32.92;602;04.10.07.002
12876;169485;32.92;603;04.10.07.013
12904;169482;32.92;604;04.10.07.013
12896;169481;32.92;605;04.10.07.013
12884;169489;32.92;606;04.10.07.013
12892;169487;32.92;607;04.10.07.013
12884;169480;32.92;608;04.10.07.013
12896;169496;32.92;609;04.10.07.013
12896;169498;32.92;610;04.10.07.013
12900;169496;32.92;611;04.10.07.013
12868;169483;32.92;612;04.10.07.013
12884;169483;32.92;613;04.10.07.013
12900;169479;32.92;614;04.10.07.013
12876;169485;32.92;615;04.10.07.013
12900;169484;32.92;616;04.10.07.024
12896;169485;32.92;617;04.10.07.024
12896;169488;32.92;618;04.10.07.024
12900;169485;32.92;619;04.10.07.024
12872;169483;32.92;620;04.10.07.024
12872;169483;32.92;621;04.10.07.024
12900;169487;32.92;622;04.10.07.024
12872;169487;32.92;623;04.10.07.024
12900;169490;32.92;624;04.10.07.024
12892;169486;32.92;625;04.10.07.111
12896;169476;32.92;626;04.10.07.111
12884;169476;32.92;627;04.10.07.111
12912;169480;32.92;628;04.10.07.111
12916;169484;32.92;629;04.10.07.111
12896;169482;32.92;630;04.10.07.111
12888;169481;32.92;631;04.10.07.111
12884;169491;32.92;632;04.10.07.111
12896;169492;32.92;633;04.10.07.111
12876;169491;32.92;634;04.10.07.122
12892;169491;32.92;635;04.10.07.122
12876;169494;32.92;636;04.10.07.122
12860;169488;32.92;637;04.10.07.122
12872;169488;32.92;638;04.10.07.122
12900;169488;32.92;639;04.10.07.122
12892;169501;32.92;640;04.10.07.122
12888;169502;32.92;641;04.10.07.122
12888;169498;32.92;642;04.10.07.144
12904;169504;32.92;643;04.10.07.144
12876;169495;32.92;644;04.10.07.144
12864;169500;32.92;645;04.10.07.144
12928;169499;32.92;646;04.10.07.144
12880;169499;32.92;647;04.10.07.144
12900;169506;32.92;648;04.10.07.144
12896;169498;32.92;649;04.10.07.144
12880;169505;32.92;650;04.10.07.243
12872;169510;32.92;651;04.10.07.243
12864;169513;32.92;652;04.10.07.243
12888;169507;32.92;653;04.10.07.243
12896;169510;32.92;654;04.10.07.243
12856;169509;32.92;655;04.10.07.243
12896;169515;32.92;656;04.10.07.243
12884;169513;32.92;657;04.10.07.243
12884;169516;32.92;658;04.10.07.243
12876;169515;32.92;659;04.10.07.254
12896;169518;32.92;660;04.10.07.254
12896;169521;32.92;661;04.10.07.254
12876;169519;32.92;662;04.10.07.254
12896;169533;32.92;663;04.10.07.254
12896;169522;32.92;664;04.10.07.254
12896;169530;32.92;665;04.10.07.254
12888;169528;32.92;666;04.10.07.254
12888;169533;32.92;667;04.10.07.254
12880;169538;32.92;668;04.10.07.254
12860;169533;32.92;669;04.10.07.254
12912;169526;32.92;670;04.10.07.254
12880;169542;32.92;671;04.10.07.265
12928;169543;32.92;672;04.10.07.265
12892;169544;32.92;673;04.10.07.265
12892;169543;32.92;674;04.10.07.265
12896;169543;32.92;675;04.10.07.364
12892;169548;32.92;676;04.10.07.364
12896;169547;32.92;677;04.10.07.364
12904;169557;32.92;678;04.10.07.364
12896;169560;32.92;679;04.10.07.364
12904;169552;32.92;680;04.10.07.375
12884;169557;32.92;681;04.10.07.375
12908;169554;32.92;682;04.10.07.375
12892;169562;32.92;683;04.10.07.375
12876;169557;32.92;684;04.10.07.375
12896;169548;32.92;685;04.10.07.375
12892;169548;32.92;686;04.10.07.375
12860;169556;32.92;687;04.10.07.375
12872;169562;32.92;688;04.10.07.375
12908;169547;32.92;689;04.10.07.375
12912;169560;32.92;690;04.10.07.375
12900;169556;32.92;691;04.10.07.375
12884;169562;32.92;692;04.10.07.375
12888;169562;32.92;693;04.10.07.375
12904;169566;32.92;694;04.10.07.387
12888;169563;32.92;695;04.10.07.387
12880;169567;32.92;696;04.10.07.387
12896;169558;32.92;697;04.10.07.387
12892;169563;32.92;698;04.10.07.387
12888;169567;32.92;699;04.10.07.387
12912;169558;32.92;700;04.10.07.476
12860;169572;32.92;701;04.10.07.476
12872;169577;32.92;702;04.10.07.476
12860;169567;32.92;703;04.10.07.476
12876;169573;32.92;704;04.10.07.476
12912;169568;32.92;705;04.10.07.487
12884;169576;32.92;706;04.10.07.487
12896;169573;32.92;707;04.10.07.487
12876;169579;32.92;708;04.10.07.487
12884;169585;32.92;709;04.10.07.487
12904;169586;32.92;710;04.10.07.487
12884;169582;32.92;711;04.10.07.487
12900;169580;32.92;712;04.10.07.487
12864;169591;32.92;713;04.10.07.487
12876;169584;32.92;714;04.10.07.487
12868;169591;32.92;715;04.10.07.487
12884;169591;32.92;716;04.10.07.487
12884;169595;32.92;717;04.10.07.499
12872;169592;32.92;718;04.10.07.499
12896;169589;32.92;719;04.10.07.499
12876;169595;32.92;720;04.10.07.499
12892;169594;32.92;721;04.10.07.499
12872;169594;32.92;722;04.10.07.499
12892;169585;32.92;723;04.10.07.499
12900;169589;32.92;724;04.10.07.499
12864;169568;32.92;725;04.10.07.599
12916;169573;32.92;726;04.10.07.599
12880;169565;32.92;727;04.10.07.599
12876;169556;32.92;728;04.10.07.599
12892;169565;32.92;729;04.10.07.610
12880;169557;32.92;730;04.10.07.610
12892;169549;32.92;731;04.10.07.610
12860;169548;32.92;732;04.10.07.610
12884;169553;32.92;733;04.10.07.610
12908;169547;32.92;734;04.10.07.610
12888;169550;32.92;735;04.10.07.610
12904;169536;32.92;736;04.10.07.610
12900;169534;32.92;737;04.10.07.610
12872;169534;32.92;738;04.10.07.621
12860;169538;32.92;739;04.10.07.621
12896;169531;32.92;740;04.10.07.621
12872;169535;32.92;741;04.10.07.621
12888;169534;32.92;742;04.10.07.632
12868;169527;32.92;743;04.10.07.632
12872;169531;32.92;744;04.10.07.632
12876;169528;32.92;745;04.10.07.632
12896;169525;32.92;746;04.10.07.643
12884;169519;32.92;747;04.10.07.643
12928;169521;32.92;748;04.10.07.643
12884;169518;32.92;749;04.10.07.643
12872;169521;32.92;750;04.10.07.720
12888;169515;32.92;751;04.10.07.731
12868;169518;32.92;752;04.10.07.731
12888;169517;32.92;753;04.10.07.731
12876;169515;32.92;754;04.10.07.731
12884;169512;32.92;755;04.10.07.731
12892;169514;32.92;756;04.10.07.731
12872;169518;32.92;757;04.10.07.731
12888;169514;32.92;758;04.10.07.731
12912;169517;32.92;759;04.10.07.742
12852;169520;32.92;760;04.10.07.742
12892;169514;32.92;761;04.10.07.742
12892;169520;32.92;762;04.10.07.742
12904;169522;32.92;763;04.10.07.742
12900;169521;32.92;764;04.10.07.742
12912;169508;32.92;765;04.10.07.742
12892;169515;32.92;766;04.10.07.742
12900;169523;32.92;767;04.10.07.742
12860;169513;32.92;768;04.10.07.753
12888;169520;32.92;769;04.10.07.753
12896;169523;32.92;770;04.10.07.753
12872;169523;32.92;771;04.10.07.753
12888;169518;32.92;772;04.10.07.753
12872;169520;32.92;773;04.10.07.753
12900;169519;32.92;774;04.10.07.753
12876;169517;32.96;775;04.10.07.862
12880;169534;32.96;776;04.10.07.862
12896;169526;32.96;777;04.10.07.862
12888;169523;32.96;778;04.10.07.862
12872;169529;32.96;779;04.10.07.862
12892;169524;32.96;780;04.10.07.862
12872;169523;32.96;781;04.10.07.862
12856;169521;32.96;782;04.10.07.862
12876;169515;32.96;783;04.10.07.873
12856;169520;32.96;784;04.10.07.873
12876;169515;32.96;785;04.10.07.873
12896;169509;32.96;786;04.10.07.873
12868;169511;32.96;787;04.10.07.873
12880;169503;32.96;788;04.10.07.873
12888;169518;32.96;789;04.10.07.873
12892;169522;32.96;790;04.10.07.873
12868;169517;32.96;791;04.10.07.873
12868;169516;32.96;792;04.10.07.873
12860;169517;32.96;793;04.10.07.873
12884;169525;32.96;794;04.10.07.890
12884;169519;32.96;795;04.10.07.890
12876;169513;32.96;796;04.10.07.890
12892;169519;32.96;797;04.10.07.890
12904;169520;32.96;798;04.10.07.890
12888;169514;32.96;799;04.10.07.890
12892;169519;32.96;800;04.10.08.000
12896;169529;32.96;801;04.10.08.000
12876;169518;32.96;802;04.10.08.000
12892;169514;32.96;803;04.10.08.000
12900;169523;32.96;804;04.10.08.000
12876;169515;32.96;805;04.10.08.000
12876;169521;32.96;806;04.10.08.000
12896;169527;32.96;807;04.10.08.000
12876;169527;32.96;808;04.10.08.000
12888;169522;32.96;809;04.10.08.000
12896;169528;32.96;810;04.10.08.000
12884;169524;32.96;811;04.10.08.000
12888;169532;32.96;812;04.10.08.000
12896;169534;32.96;813;04.10.08.011
12888;169531;32.96;814;04.10.08.011
12880;169532;32.96;815;04.10.08.011
12904;169527;32.96;816;04.10.08.011
12904;169531;32.96;817;04.10.08.011
12844;169533;32.96;818;04.10.08.011
12872;169541;32.96;819;04.10.08.011
12892;169543;32.96;820;04.10.08.011
12880;169538;32.96;821;04.10.08.011
12860;169537;32.96;822;04.10.08.011
12904;169546;32.96;823;04.10.08.011
12896;169552;32.96;824;04.10.08.011
12876;169548;32.96;825;04.10.08.109
12860;169540;32.96;826;04.10.08.109
12864;169545;32.96;827;04.10.08.109
12876;169546;32.96;828;04.10.08.109
12876;169539;32.96;829;04.10.08.109
12888;169538;32.96;830;04.10.08.109
12884;169551;32.96;831;04.10.08.109
12888;169562;32.96;832;04.10.08.109
12884;169560;32.96;833;04.10.08.131
12868;169550;32.96;834;04.10.08.131
12896;169555;32.96;835;04.10.08.131
12896;169557;32.96;836;04.10.08.131
12884;169560;32.96;837;04.10.08.131
12876;169562;32.96;838;04.10.08.131
12884;169556;32.96;839;04.10.08.131
12884;169559;32.96;840;04.10.08.131
12884;169562;32.96;841;04.10.08.141
12904;169561;32.96;842;04.10.08.141
12884;169559;32.96;843;04.10.08.141
12860;169556;32.96;844;04.10.08.141
12868;169567;32.96;845;04.10.08.141
12904;169569;32.96;846;04.10.08.141
12900;169575;32.96;847;04.10.08.141
12888;169564;32.96;848;04.10.08.141
12864;169568;32.96;849;04.10.08.141
12880;169574;32.96;850;04.10.08.229
12876;169577;32.96;851;04.10.08.229
12876;169578;32.96;852;04.10.08.229
12892;169569;32.96;853;04.10.08.229
12868;169579;32.96;854;04.10.08.240
12880;169573;32.96;855;04.10.08.240
12868;169581;32.96;856;04.10.08.240
12884;169579;32.96;857;04.10.08.240
12880;169575;32.96;858;04.10.08.240
12900;169576;32.96;859;04.10.08.240
12896;169576;32.96;860;04.10.08.240
12888;169575;32.96;861;04.10.08.240
12876;169580;32.96;862;04.10.08.240
12892;169580;32.96;863;04.10.08.251
12876;169587;32.96;864;04.10.08.251
12860;169583;32.96;865;04.10.08.251
12892;169591;32.96;866;04.10.08.251
12896;169589;32.96;867;04.10.08.262
12876;169594;32.96;868;04.10.08.262
12900;169586;32.96;869;04.10.08.262
12884;169596;32.96;870;04.10.08.273
12884;169587;32.96;871;04.10.08.273
12880;169601;32.96;872;04.10.08.273
12864;169598;32.96;873;04.10.08.273
12912;169590;32.96;874;04.10.08.273
12884;169597;32.96;875;04.10.08.360
12868;169596;32.96;876;04.10.08.360
12888;169588;32.96;877;04.10.08.360
12900;169595;32.96;878;04.10.08.360
12904;169595;32.96;879;04.10.08.360
12892;169593;32.96;880;04.10.08.360
12888;169598;32.96;881;04.10.08.360
12860;169592;32.96;882;04.10.08.360
12888;169596;32.96;883;04.10.08.360
12888;169583;32.96;884;04.10.08.360
12900;169585;32.96;885;04.10.08.360
12884;169580;32.96;886;04.10.08.360
12900;169571;32.96;887;04.10.08.360
12896;169570;32.96;888;04.10.08.371
12912;169558;32.96;889;04.10.08.371
12884;169566;32.96;890;04.10.08.371
12880;169552;32.96;891;04.10.08.371
12852;169549;32.96;892;04.10.08.371
12872;169554;32.96;893;04.10.08.371
12880;169547;32.96;894;04.10.08.371
12880;169545;32.96;895;04.10.08.371
12852;169545;32.96;896;04.10.08.371
12888;169546;32.96;897;04.10.08.371
12912;169535;32.96;898;04.10.08.371
12928;169536;32.96;899;04.10.08.371
12860;169534;32.96;900;04.10.08.492
12872;169529;32.96;901;04.10.08.492
12876;169525;32.96;902;04.10.08.492
12872;169532;32.96;903;04.10.08.492
12904;169524;32.96;904;04.10.08.492
12904;169527;32.96;905;04.10.08.492
12872;169526;32.96;906;04.10.08.492
12880;169533;32.96;907;04.10.08.492
12896;169532;32.96;908;04.10.08.492
12868;169527;32.96;909;04.10.08.503
12884;169530;32.96;910;04.10.08.503
12852;169525;32.96;911;04.10.08.503
12860;169521;32.96;912;04.10.08.503
12892;169532;32.96;913;04.10.08.503
12896;169528;32.96;914;04.10.08.503
12888;169521;32.96;915;04.10.08.503
12876;169516;32.96;916;04.10.08.503
12896;169526;32.96;917;04.10.08.503
12884;169529;32.96;918;04.10.08.503
12884;169521;32.96;919;04.10.08.503
12888;169519;32.96;920;04.10.08.503
12880;169524;32.96;921;04.10.08.503
12880;169520;32.96;922;04.10.08.514
12888;169524;32.96;923;04.10.08.514
12892;169526;32.96;924;04.10.08.514
12900;169528;32.92;925;04.10.08.601
12884;169525;32.92;926;04.10.08.601
12896;169525;32.92;927;04.10.08.601
12888;169528;32.92;928;04.10.08.601
12880;169531;32.92;929;04.10.08.601
12896;169529;32.92;930;04.10.08.601
12872;169529;32.92;931;04.10.08.613
12884;169528;32.92;932;04.10.08.613
12860;169532;32.92;933;04.10.08.624
12872;169536;32.92;934;04.10.08.624
12884;169537;32.92;935;04.10.08.624
12900;169534;32.92;936;04.10.08.624
12888;169533;32.92;937;04.10.08.624
12892;169530;32.92;938;04.10.08.624
12904;169531;32.92;939;04.10.08.624
12880;169529;32.92;940;04.10.08.635
12884;169521;32.92;941;04.10.08.635
12880;169525;32.92;942;04.10.08.635
12880;169525;32.92;943;04.10.08.635
12876;169529;32.92;944;04.10.08.635
12880;169525;32.92;945;04.10.08.635
12928;169529;32.92;946;04.10.08.635
12928;169537;32.92;947;04.10.08.635
12860;169520;32.92;948;04.10.08.635
12880;169522;32.92;949;04.10.08.635
12856;169519;32.92;950;04.10.08.723
12880;169528;32.92;951;04.10.08.723
12864;169528;32.92;952;04.10.08.723
12904;169526;32.92;953;04.10.08.734
12888;169512;32.92;954;04.10.08.734
12888;169529;32.92;955;04.10.08.734
12880;169516;32.92;956;04.10.08.734
12896;169526;32.92;957;04.10.08.734
12904;169525;32.92;958;04.10.08.734
12896;169525;32.92;959;04.10.08.734
12880;169526;32.92;960;04.10.08.734
12896;169530;32.92;961;04.10.08.734
12888;169529;32.92;962;04.10.08.734
12896;169531;32.92;963;04.10.08.734
12872;169532;32.92;964;04.10.08.734
12900;169522;32.92;965;04.10.08.734
12872;169529;32.92;966;04.10.08.745
12896;169521;32.92;967;04.10.08.745
12872;169527;32.92;968;04.10.08.745
12912;169533;32.92;969;04.10.08.745
12896;169532;32.92;970;04.10.08.745
12880;169528;32.92;971;04.10.08.745
12888;169531;32.92;972;04.10.08.745
12880;169530;32.92;973;04.10.08.745
12912;169527;32.92;974;04.10.08.745
12884;169531;32.92;975;04.10.08.853
12884;169535;32.92;976;04.10.08.853
12916;169544;32.92;977;04.10.08.853
12860;169545;32.92;978;04.10.08.853
12880;169536;32.92;979;04.10.08.853
12892;169538;32.92;980;04.10.08.853
12912;169536;32.92;981;04.10.08.853
12880;169535;32.92;982;04.10.08.853
12880;169537;32.92;983;04.10.08.853
12888;169538;32.92;984;04.10.08.853
12896;169538;32.92;985;04.10.08.853
12884;169539;32.92;986;04.10.08.864
12904;169535;32.92;987;04.10.08.864
12880;169541;32.92;988;04.10.08.864
12900;169539;32.92;989;04.10.08.864
12872;169542;32.92;990;04.10.08.864
12876;169541;32.92;991;04.10.08.864
12888;169542;32.92;992;04.10.08.864
12884;169551;32.92;993;04.10.08.864
12896;169545;32.92;994;04.10.08.864
12876;169546;32.92;995;04.10.08.864
12880;169543;32.92;996;04.10.08.864
12892;169541;32.92;997;04.10.08.864
12892;169538;32.92;998;04.10.08.864
12904;169538;32.92;999;04.10.08.875
12912;169549;32.92;000;04.10.08.985
12900;169546;32.92;001;04.10.08.985
12864;169549;32.92;002;04.10.08.985
12900;169549;32.92;003;04.10.08.985
12888;169556;32.92;004;04.10.08.985
12892;169555;32.92;005;04.10.08.985
12880;169549;32.92;006;04.10.08.985
12864;169548;32.92;007;04.10.08.996
12896;169551;32.92;008;04.10.08.996
12900;169555;32.92;009;04.10.08.996
12896;169553;32.92;010;04.10.08.996
12852;169554;32.92;011;04.10.08.996
12884;169565;32.92;012;04.10.08.996
12860;169559;32.92;013;04.10.08.996
12904;169564;32.92;014;04.10.08.996
12880;169555;32.92;015;04.10.08.996
12900;169554;32.92;016;04.10.08.996
12888;169548;32.92;017;04.10.08.996
12860;169563;32.92;018;04.10.08.996
12864;169563;32.92;019;04.10.08.996
12884;169564;32.92;020;04.10.09.007
12884;169571;32.92;021;04.10.09.007
12888;169562;32.92;022;04.10.09.007
12884;169568;32.92;023;04.10.09.007
12900;169559;32.92;024;04.10.09.007
12892;169568;32.92;025;04.10.09.128
12884;169565;32.92;026;04.10.09.128
12892;169568;32.92;027;04.10.09.139
12892;169572;32.92;028;04.10.09.139
12884;169571;32.92;029;04.10.09.139
12892;169575;32.92;030;04.10.09.139
12892;169574;32.92;031;04.10.09.139
12852;169569;32.92;032;04.10.09.139
12880;169576;32.92;033;04.10.09.139
12880;169578;32.92;034;04.10.09.139
12844;169575;32.92;035;04.10.09.139
12896;169577;32.92;036;04.10.09.139
12896;169583;32.92;037;04.10.09.139
12880;169577;32.92;038;04.10.09.139
12880;169577;32.92;039;04.10.09.139
12884;169567;32.92;040;04.10.09.139
12876;169567;32.92;041;04.10.09.150
12892;169557;32.92;042;04.10.09.161
12888;169560;32.92;043;04.10.09.161
12900;169548;32.92;044;04.10.09.161
12884;169545;32.92;045;04.10.09.171
12892;169552;32.92;046;04.10.09.171
12888;169544;32.92;047;04.10.09.171
12852;169549;32.92;048;04.10.09.171
12900;169528;32.92;049;04.10.09.171
12868;169533;32.92;050;04.10.09.236
12880;169530;32.92;051;04.10.09.236
12860;169521;32.92;052;04.10.09.236
12876;169519;32.92;053;04.10.09.236
12880;169517;32.92;054;04.10.09.236
12896;169519;32.92;055;04.10.09.236
12872;169512;32.92;056;04.10.09.236
12888;169511;32.92;057;04.10.09.236
12852;169505;32.92;058;04.10.09.247
12892;169503;32.92;059;04.10.09.247
12860;169504;32.92;060;04.10.09.247
12884;169503;32.92;061;04.10.09.247
12884;169494;32.92;062;04.10.09.247
12896;169497;32.92;063;04.10.09.247
12884;169494;32.92;064;04.10.09.247
12892;169493;32.92;065;04.10.09.247
12880;169497;32.92;066;04.10.09.247
12896;169500;32.92;067;04.10.09.247
12892;169497;32.92;068;04.10.09.247
12884;169490;32.92;069;04.10.09.258
12856;169500;32.92;070;04.10.09.258
12912;169493;32.92;071;04.10.09.258
12876;169491;32.92;072;04.10.09.258
12896;169496;32.92;073;04.10.09.258
12916;169496;32.92;074;04.10.09.258
12884;169491;32.92;075;04.10.09.357
12876;169486;32.92;076;04.10.09.357
12880;169490;32.92;077;04.10.09.357
12868;169498;32.92;078;04.10.09.357
12872;169488;32.92;079;04.10.09.357
12900;169490;32.92;080;04.10.09.357
12912;169492;32.92;081;04.10.09.357
12892;169499;32.92;082;04.10.09.357
12872;169494;32.92;083;04.10.09.368
12852;169499;32.92;084;04.10.09.368
12860;169488;32.92;085;04.10.09.368
12900;169490;32.92;086;04.10.09.368
12888;169492;32.92;087;04.10.09.368
12884;169493;32.92;088;04.10.09.368
12896;169493;32.92;089;04.10.09.368
12904;169486;32.92;090;04.10.09.368
12868;169496;32.92;091;04.10.09.368
12884;169488;32.92;092;04.10.09.368
12880;169491;32.92;093;04.10.09.368
12896;169498;32.92;094;04.10.09.368
12896;169504;32.92;095;04.10.09.368
12896;169507;32.92;096;04.10.09.379
12900;169500;32.92;097;04.10.09.379
12896;169497;32.92;098;04.10.09.379
12880;169499;32.92;099;04.10.09.379
12884;169497;32.92;100;04.10.09.478
12888;169493;32.92;101;04.10.09.478
12860;169503;32.92;102;04.10.09.478
12880;169501;32.92;103;04.10.09.489
12884;169496;32.92;104;04.10.09.489
12884;169496;32.92;105;04.10.09.489
12896;169491;32.92;106;04.10.09.489
12864;169495;32.92;107;04.10.09.489
12860;169493;32.92;108;04.10.09.489
12900;169496;32.92;109;04.10.09.489
12884;169491;32.92;110;04.10.09.489
12880;169495;32.92;111;04.10.09.489
12896;169495;32.92;112;04.10.09.489
12880;169485;32.92;113;04.10.09.489
12904;169483;32.92;114;04.10.09.489
12872;169493;32.92;115;04.10.09.489
12888;169488;32.92;116;04.10.09.489
12876;169493;32.92;117;04.10.09.500
12900;169492;32.92;118;04.10.09.500
12892;169494;32.92;119;04.10.09.500
12896;169495;32.92;120;04.10.09.500
12892;169492;32.92;121;04.10.09.500
12896;169497;32.92;122;04.10.09.500
12900;169495;32.92;123;04.10.09.500
12904;169497;32.92;124;04.10.09.500
12880;169496;32.96;125;04.10.09.609
12896;169495;32.96;126;04.10.09.620
12880;169493;32.96;127;04.10.09.620
12868;169498;32.96;128;04.10.09.620
12896;169496;32.96;129;04.10.09.620
12892;169501;32.96;130;04.10.09.620
12888;169507;32.96;131;04.10.09.620
12872;169511;32.96;132;04.10.09.620
12896;169510;32.96;133;04.10.09.620
12888;169512;32.96;134;04.10.09.620
12892;169520;32.96;135;04.10.09.620
12892;169513;32.96;136;04.10.09.620
12876;169512;32.96;137;04.10.09.620
12884;169515;32.96;138;04.10.09.620
12888;169520;32.96;139;04.10.09.631
12876;169518;32.96;140;04.10.09.631
12888;169521;32.96;141;04.10.09.631
12896;169529;32.96;142;04.10.09.642
12884;169535;32.96;143;04.10.09.642
12868;169529;32.96;144;04.10.09.642
12880;169529;32.96;145;04.10.09.642
12880;169528;32.96;146;04.10.09.642
12876;169531;32.96;147;04.10.09.642
12912;169532;32.96;148;04.10.09.642
12876;169533;32.96;149;04.10.09.642
12896;169531;32.96;150;04.10.09.730
12892;169534;32.96;151;04.10.09.730
12904;169532;32.96;152;04.10.09.730
12908;169537;32.96;153;04.10.09.730
12900;169536;32.96;154;04.10.09.730
12892;169537;32.96;155;04.10.09.730
12884;169529;32.96;156;04.10.09.730
12896;169550;32.96;157;04.10.09.730
12904;169540;32.96;158;04.10.09.741
12888;169540;32.96;159;04.10.09.741
12892;169540;32.96;160;04.10.09.741
12888;169539;32.96;161;04.10.09.741
12900;169545;32.96;162;04.10.09.741
12884;169541;32.96;163;04.10.09.741
12892;169548;32.96;164;04.10.09.741
12856;169540;32.96;165;04.10.09.741
12900;169547;32.96;166;04.10.09.741
12884;169552;32.96;167;04.10.09.751
12876;169544;32.96;168;04.10.09.751
12912;169551;32.96;169;04.10.09.751
12880;169557;32.96;170;04.10.09.751
12860;169542;32.96;171;04.10.09.751
12876;169557;32.96;172;04.10.09.751
12904;169554;32.96;173;04.10.09.751
12892;169550;32.96;174;04.10.09.751
12888;169555;32.96;175;04.10.09.861
12860;169552;32.96;176;04.10.09.861
12908;169557;32.96;177;04.10.09.861
12888;169559;32.96;178;04.10.09.861
12900;169554;32.96;179;04.10.09.861
12892;169562;32.96;180;04.10.09.861
12904;169570;32.96;181;04.10.09.872
12900;169567;32.96;182;04.10.09.872
12912;169564;32.96;183;04.10.09.872
12884;169566;32.96;184;04.10.09.872
12880;169579;32.96;185;04.10.09.872
12888;169568;32.96;186;04.10.09.872
12856;169567;32.96;187;04.10.09.883
12884;169568;32.96;188;04.10.09.883
12892;169573;32.96;189;04.10.09.883
12868;169568;32.96;190;04.10.09.883
12892;169568;32.96;191;04.10.09.883
12900;169571;32.96;192;04.10.09.883
12876;169562;32.96;193;04.10.09.883
12896;169561;32.96;194;04.10.09.883
12880;169555;32.96;195;04.10.09.883
12884;169561;32.96;196;04.10.09.883
12888;169551;32.96;197;04.10.09.894
12928;169553;32.96;198;04.10.09.894
12904;169545;32.96;199;04.10.09.894
12884;169541;32.96;200;04.10.09.970
12880;169539;32.96;201;04.10.09.981
12888;169537;32.96;202;04.10.09.981
12872;169524;32.96;203;04.10.09.981
12888;169521;32.96;204;04.10.09.981
12876;169521;32.96;205;04.10.09.981
12880;169514;32.96;206;04.10.09.981
12880;169515;32.96;207;04.10.09.981
12888;169511;32.96;208;04.10.09.981
12904;169504;32.96;209;04.10.09.981
12880;169498;32.96;210;04.10.09.981
12868;169509;32.96;211;04.10.09.981
12912;169503;32.96;212;04.10.09.981
12888;169502;32.96;213;04.10.09.981
12868;169504;32.96;214;04.10.09.992
12876;169491;32.96;215;04.10.09.992
12880;169496;32.96;216;04.10.09.992
12900;169491;32.96;217;04.10.09.992
12904;169493;32.96;218;04.10.09.992
12868;169483;32.96;219;04.10.09.992
12860;169486;32.96;220;04.10.09.992
12904;169479;32.96;221;04.10.09.992
12884;169478;32.96;222;04.10.09.992
12884;169484;32.96;223;04.10.09.992
12916;169483;32.96;224;04.10.09.992
12904;169487;32.92;225;04.10.10.112
12868;169485;32.92;226;04.10.10.112
12860;169483;32.92;227;04.10.10.112
12916;169491;32.92;228;04.10.10.112
12880;169485;32.92;229;04.10.10.112
12868;169479;32.92;230;04.10.10.112
12888;169473;32.92;231;04.10.10.112
12896;169482;32.92;232;04.10.10.112
12888;169482;32.92;233;04.10.10.112
12884;169481;32.92;234;04.10.10.123
12888;169478;32.92;235;04.10.10.123
12888;169479;32.92;236;04.10.10.123
12876;169476;32.92;237;04.10.10.123
12880;169483;32.92;238;04.10.10.123
12880;169481;32.92;239;04.10.10.123
12888;169475;32.92;240;04.10.10.123
12900;169492;32.92;241;04.10.10.123
12888;169483;32.92;242;04.10.10.123
12912;169485;32.92;243;04.10.10.123
12856;169479;32.92;244;04.10.10.123
12872;169481;32.92;245;04.10.10.123
12884;169483;32.92;246;04.10.10.123
12896;169481;32.92;247;04.10.10.123
12884;169484;32.92;248;04.10.10.135
12904;169482;32.92;249;04.10.10.135
12892;169482;32.92;250;04.10.10.256
12876;169489;32.92;251;04.10.10.256
12920;169482;32.92;252;04.10.10.256
12872;169487;32.92;253;04.10.10.256
12904;169483;32.92;254;04.10.10.256
12888;169478;32.92;255;04.10.10.256
12884;169481;32.92;256;04.10.10.256
12896;169485;32.92;257;04.10.10.267
12896;169486;32.92;258;04.10.10.267
12932;169474;32.92;259;04.10.10.267
12844;169480;32.92;260;04.10.10.267
12872;169482;32.92;261;04.10.10.267
12872;169475;32.92;262;04.10.10.267
12884;169475;32.92;263;04.10.10.267
12892;169466;32.92;264;04.10.10.267
12876;169478;32.92;265;04.10.10.267
12892;169472;32.92;266;04.10.10.267
12872;169487;32.92;267;04.10.10.267
12896;169482;32.92;268;04.10.10.267
12868;169481;32.92;269;04.10.10.278
12896;169478;32.92;270;04.10.10.278
12856;169476;32.92;271;04.10.10.278
12876;169474;32.92;272;04.10.10.278
12880;169474;32.92;273;04.10.10.278
12916;169477;32.92;274;04.10.10.278
12904;169485;32.92;275;04.10.10.354
12884;169483;32.92;276;04.10.10.354
12896;169487;32.92;277;04.10.10.354
12868;169485;32.92;278;04.10.10.365
12888;169481;32.92;279;04.10.10.365
12876;169492;32.92;280;04.10.10.365
12912;169493;32.92;281;04.10.10.365
12876;169484;32.92;282;04.10.10.365
12856;169489;32.92;283;04.10.10.387
12908;169489;32.92;284;04.10.10.387
12884;169491;32.92;285;04.10.10.387
12896;169492;32.92;286;04.10.10.398
12892;169488;32.92;287;04.10.10.398
12896;169487;32.92;288;04.10.10.398
12892;169493;32.92;289;04.10.10.398
12876;169494;32.92;290;04.10.10.398
12884;169493;32.92;291;04.10.10.398
12880;169499;32.92;292;04.10.10.398
12880;169506;32.92;293;04.10.10.398
12904;169509;32.92;294;04.10.10.398
12884;169505;32.92;295;04.10.10.398
12888;169504;32.92;296;04.10.10.398
12852;169509;32.92;297;04.10.10.398
12880;169514;32.92;298;04.10.10.398
12912;169510;32.92;299;04.10.10.409
12860;169504;32.92;300;04.10.10.486
12896;169514;32.92;301;04.10.10.486
12876;169498;32.92;302;04.10.10.486
12880;169501;32.92;303;04.10.10.486
12876;169509;32.92;304;04.10.10.486
12876;169502;32.92;305;04.10.10.486
12900;169504;32.92;306;04.10.10.486
12892;169512;32.92;307;04.10.10.486
12868;169510;32.92;308;04.10.10.486
12876;169513;32.92;309;04.10.10.486
12904;169515;32.92;310;04.10.10.486
12884;169518;32.92;311;04.10.10.497
12892;169517;32.92;312;04.10.10.497
12900;169515;32.92;313;04.10.10.497
12892;169514;32.92;314;04.10.10.497
12888;169524;32.92;315;04.10.10.497
12888;169526;32.92;316;04.10.10.497
12880;169520;32.92;317;04.10.10.497
12868;169525;32.92;318;04.10.10.497
12900;169522;32.92;319;04.10.10.497
12860;169524;32.92;320;04.10.10.497
12860;169524;32.92;321;04.10.10.497
12884;169522;32.92;322;04.10.10.497
12872;169528;32.92;323;04.10.10.497
12900;169529;32.92;324;04.10.10.497
12896;169526;32.96;325;04.10.10.629
12884;169530;32.96;326;04.10.10.629
12884;169534;32.96;327;04.10.10.629
12892;169530;32.96;328;04.10.10.629
12888;169538;32.96;329;04.10.10.629
12904;169530;32.96;330;04.10.10.629
12896;169534;32.96;331;04.10.10.629
12896;169539;32.96;332;04.10.10.629
12888;169533;32.96;333;04.10.10.640
12856;169533;32.96;334;04.10.10.640
12892;169538;32.96;335;04.10.10.640
12880;169540;32.96;336;04.10.10.640
12896;169544;32.96;337;04.10.10.640
12876;169542;32.96;338;04.10.10.640
12892;169536;32.96;339;04.10.10.640
12880;169534;32.96;340;04.10.10.640
12860;169532;32.96;341;04.10.10.640
12892;169533;32.96;342;04.10.10.661
12888;169541;32.96;343;04.10.10.661
12860;169532;32.96;344;04.10.10.661
12892;169530;32.96;345;04.10.10.661
12880;169523;32.96;346;04.10.10.661
12868;169520;32.96;347;04.10.10.661
12888;169515;32.96;348;04.10.10.661
12888;169518;32.96;349;04.10.10.661
12892;169509;32.96;350;04.10.10.727
12912;169506;32.96;351;04.10.10.727
12904;169499;32.96;352;04.10.10.727
12884;169502;32.96;353;04.10.10.727
12872;169483;32.96;354;04.10.10.727
12888;169488;32.96;355;04.10.10.727
12904;169480;32.96;356;04.10.10.738
12884;169477;32.96;357;04.10.10.738
12904;169474;32.96;358;04.10.10.749
12884;169480;32.96;359;04.10.10.749
12876;169475;32.96;360;04.10.10.749
12856;169467;32.96;361;04.10.10.749
12900;169472;32.96;362;04.10.10.749
12876;169464;32.96;363;04.10.10.749
12888;169463;32.96;364;04.10.10.760
12896;169461;32.96;365;04.10.10.760
12900;169462;32.96;366;04.10.10.760
12876;169466;32.96;367;04.10.10.760
12860;169468;32.96;368;04.10.10.760
12880;169460;32.96;369;04.10.10.760
12900;169459;32.96;370;04.10.10.760
12884;169450;32.96;371;04.10.10.760
12892;169456;32.96;372;04.10.10.771
12884;169462;32.96;373;04.10.10.771
12920;169460;32.96;374;04.10.10.771
12884;169458;32.96;375;04.10.10.848
12860;169461;32.96;376;04.10.10.848
12888;169455;32.96;377;04.10.10.859
12900;169450;32.96;378;04.10.10.859
12884;169457;32.96;379;04.10.10.859
12900;169456;32.96;380;04.10.10.859
12904;169460;32.96;381;04.10.10.859
12884;169464;32.96;382;04.10.10.859
12896;169455;32.96;383;04.10.10.859
12884;169451;32.96;384;04.10.10.859
12928;169453;32.96;385;04.10.10.859
12896;169458;32.96;386;04.10.10.859
12880;169451;32.96;387;04.10.10.859
12868;169450;32.96;388;04.10.10.859
12904;169460;32.96;389;04.10.10.859
12892;169464;32.96;390;04.10.10.870
12932;169457;32.96;391;04.10.10.870
12860;169459;32.96;392;04.10.10.881
12908;169458;32.96;393;04.10.10.881
12888;169458;32.96;394;04.10.10.892
12876;169463;32.96;395;04.10.10.892
12892;169464;32.96;396;04.10.10.892
12884;169467;32.96;397;04.10.10.892
12924;169463;32.96;398;04.10.10.892
12888;169464;32.96;399;04.10.10.892
12864;169467;32.96;400;04.10.10.980
12884;169465;32.96;401;04.10.10.980
12896;169463;32.96;402;04.10.10.980
12872;169461;32.96;403;04.10.10.980
12888;169471;32.96;404;04.10.10.980
12860;169466;32.96;405;04.10.10.980
12900;169464;32.96;406;04.10.10.980
12864;169462;32.96;407;04.10.10.980
12876;169466;32.96;408;04.10.10.980
12896;169467;32.96;409;04.10.10.980
12908;169475;32.96;410;04.10.10.980
12892;169465;32.96;411;04.10.10.991
12900;169456;32.96;412;04.10.10.991
12880;169461;32.96;413;04.10.10.991
12856;169456;32.96;414;04.10.10.991
12888;169465;32.96;415;04.10.10.991
12884;169470;32.96;416;04.10.10.991
12892;169468;32.96;417;04.10.10.991
12880;169466;32.96;418;04.10.10.991
12888;169466;32.96;419;04.10.10.991
12888;169462;32.96;420;04.10.10.991
12888;169460;32.96;421;04.10.10.991
12860;169467;32.96;422;04.10.10.991
12912;169466;32.96;423;04.10.10.991
12892;169464;32.96;424;04.10.11.002
12860;169469;32.96;425;04.10.11.122
12876;169466;32.96;426;04.10.11.122
12888;169471;32.96;427;04.10.11.122
12876;169469;32.96;428;04.10.11.122
12876;169468;32.96;429;04.10.11.122
12880;169470;32.96;430;04.10.11.122
12876;169477;32.96;431;04.10.11.122
12888;169476;32.96;432;04.10.11.133
12896;169479;32.96;433;04.10.11.133
12896;169475;32.96;434;04.10.11.133
12868;169478;32.96;435;04.10.11.133
12896;169473;32.96;436;04.10.11.133
12896;169482;32.96;437;04.10.11.133
12864;169480;32.96;438;04.10.11.133
12884;169480;32.96;439;04.10.11.133
12856;169476;32.96;440;04.10.11.133
12900;169482;32.96;441;04.10.11.144
12896;169485;32.96;442;04.10.11.155
12912;169482;32.96;443;04.10.11.155
12892;169487;32.96;444;04.10.11.155
12904;169485;32.96;445;04.10.11.155
12912;169480;32.96;446;04.10.11.155
12880;169493;32.96;447;04.10.11.155
12884;169489;32.96;448;04.10.11.155
12928;169484;32.96;449;04.10.11.166
12892;169490;32.96;450;04.10.11.242
12872;169488;32.96;451;04.10.11.242
12900;169490;32.96;452;04.10.11.242
12888;169494;32.96;453;04.10.11.253
12876;169495;32.96;454;04.10.11.253
12868;169504;32.96;455;04.10.11.253
12944;169498;32.96;456;04.10.11.253
12884;169498;32.96;457;04.10.11.253
12876;169493;32.96;458;04.10.11.253
12880;169496;32.96;459;04.10.11.253
12896;169493;32.96;460;04.10.11.253
12876;169496;32.96;461;04.10.11.264
12872;169509;32.96;462;04.10.11.264
12888;169501;32.96;463;04.10.11.264
12880;169505;32.96;464;04.10.11.264
12888;169507;32.96;465;04.10.11.264
12860;169513;32.96;466;04.10.11.264
12876;169505;32.96;467;04.10.11.264
12896;169507;32.96;468;04.10.11.264
12884;169502;32.96;469;04.10.11.264
12908;169507;32.96;470;04.10.11.264
12896;169506;32.96;471;04.10.11.264
12888;169517;32.96;472;04.10.11.264
12900;169512;32.96;473;04.10.11.275
12888;169513;32.96;474;04.10.11.275
12864;169516;32.96;475;04.10.11.384
12876;169514;32.96;476;04.10.11.384
12884;169513;32.96;477;04.10.11.384
12892;169521;32.96;478;04.10.11.384
12876;169518;32.96;479;04.10.11.384
12880;169522;32.96;480;04.10.11.384
12888;169514;32.96;481;04.10.11.384
12888;169526;32.96;482;04.10.11.384
12896;169511;32.96;483;04.10.11.384
12896;169533;32.96;484;04.10.11.384
12864;169532;32.96;485;04.10.11.384
12888;169518;32.96;486;04.10.11.384
12888;169528;32.96;487;04.10.11.395
12876;169529;32.96;488;04.10.11.395
12916;169530;32.96;489;04.10.11.395
12872;169528;32.96;490;04.10.11.395
12912;169518;32.96;491;04.10.11.395
12876;169505;32.96;492;04.10.11.395
12892;169514;32.96;493;04.10.11.395
12876;169496;32.96;494;04.10.11.395
12904;169493;32.96;495;04.10.11.395
12912;169499;32.96;496;04.10.11.395
12904;169493;32.96;497;04.10.11.395
12920;169492;32.96;498;04.10.11.395
12884;169476;32.96;499;04.10.11.395
12876;169471;32.96;500;04.10.11.482
12920;169468;32.96;501;04.10.11.482
12904;169467;32.96;502;04.10.11.482
12928;169460;32.96;503;04.10.11.482
12888;169453;32.96;504;04.10.11.482
12884;169458;32.96;505;04.10.11.493
12892;169454;32.96;506;04.10.11.493
12884;169447;32.96;507;04.10.11.493
12900;169442;32.96;508;04.10.11.493
12884;169440;32.96;509;04.10.11.493
12872;169443;32.96;510;04.10.11.493
12880;169442;32.96;511;04.10.11.493
12884;169434;32.96;512;04.10.11.493
12876;169438;32.96;513;04.10.11.493
12880;169435;32.96;514;04.10.11.493
12892;169437;32.96;515;04.10.11.504
12892;169433;32.96;516;04.10.11.504
12896;169431;32.96;517;04.10.11.515
12888;169430;32.96;518;04.10.11.515
12896;169435;32.96;519;04.10.11.515
12896;169432;32.96;520;04.10.11.515
12888;169435;32.96;521;04.10.11.515
12904;169432;32.96;522;04.10.11.515
12860;169430;32.96;523;04.10.11.526
12908;169424;32.96;524;04.10.11.526
12892;169435;32.96;525;04.10.11.614
12888;169431;32.96;526;04.10.11.625
12864;169429;32.96;527;04.10.11.625
12908;169434;32.96;528;04.10.11.625
12888;169427;32.96;529;04.10.11.625
12900;169430;32.96;530;04.10.11.625
12860;169427;32.96;531;04.10.11.625
12876;169427;32.96;532;04.10.11.625
12896;169435;32.96;533;04.10.11.625
12880;169436;32.96;534;04.10.11.625
12916;169436;32.96;535;04.10.11.625
12876;169436;32.96;536;04.10.11.636
12908;169440;32.96;537;04.10.11.636
12908;169437;32.96;538;04.10.11.636
12904;169441;32.96;539;04.10.11.636
12908;169437;32.96;540;04.10.11.636
12904;169435;32.96;541;04.10.11.636
12888;169445;32.96;542;04.10.11.647
12888;169444;32.96;543;04.10.11.647
12888;169435;32.96;544;04.10.11.657
12904;169441;32.96;545;04.10.11.657
12896;169438;32.96;546;04.10.11.657
12892;169432;32.96;547;04.10.11.657
12904;169442;32.96;548;04.10.11.657
12880;169425;32.96;549;04.10.11.657
12896;169432;32.96;550;04.10.11.756
12908;169424;32.96;551;04.10.11.756
12860;169435;32.96;552;04.10.11.756
12896;169431;32.96;553;04.10.11.756
12892;169436;32.96;554;04.10.11.756
12928;169431;32.96;555;04.10.11.756
12888;169433;32.96;556;04.10.11.756
12896;169426;32.96;557;04.10.11.756
12912;169431;32.96;558;04.10.11.756
12860;169432;32.96;559;04.10.11.756
12908;169430;32.96;560;04.10.11.756
12904;169431;32.96;561;04.10.11.767
12904;169442;32.96;562;04.10.11.767
12892;169431;32.96;563;04.10.11.767
12876;169425;32.96;564;04.10.11.767
12892;169427;32.96;565;04.10.11.767
12900;169420;32.96;566;04.10.11.767
12880;169421;32.96;567;04.10.11.767
12900;169427;32.96;568;04.10.11.767
12888;169422;32.96;569;04.10.11.767
12892;169425;32.96;570;04.10.11.767
12888;169424;32.96;571;04.10.11.767
12880;169424;32.96;572;04.10.11.767
12872;169423;32.96;573;04.10.11.767
12908;169438;32.96;574;04.10.11.778
12912;169437;32.96;575;04.10.11.876
12896;169430;32.96;576;04.10.11.876
12860;169428;32.96;577;04.10.11.876
12896;169433;32.96;578;04.10.11.876
12844;169438;32.96;579;04.10.11.876
12904;169434;32.96;580;04.10.11.876
12892;169443;32.96;581;04.10.11.876
12876;169447;32.96;582;04.10.11.887
12864;169439;32.96;583;04.10.11.887
12876;169446;32.96;584;04.10.11.887
12884;169441;32.96;585;04.10.11.887
12896;169442;32.96;586;04.10.11.887
12896;169445;32.96;587;04.10.11.887
12896;169441;32.96;588;04.10.11.887
12912;169446;32.96;589;04.10.11.887
12876;169448;32.96;590;04.10.11.887
12864;169451;32.96;591;04.10.11.887
12888;169439;32.96;592;04.10.11.887
12908;169448;32.96;593;04.10.11.887
12896;169456;32.96;594;04.10.11.887
12896;169461;32.96;595;04.10.11.887
12892;169456;32.96;596;04.10.11.898
12852;169455;32.96;597;04.10.11.898
12880;169459;32.96;598;04.10.11.898
12900;169456;32.96;599;04.10.11.898
12888;169462;32.96;600;04.10.11.975
12856;169459;32.96;601;04.10.11.975
12852;169455;32.96;602;04.10.11.975
12896;169465;32.96;603;04.10.11.975
12892;169467;32.96;604;04.10.11.986
12912;169469;32.96;605;04.10.11.986
12928;169466;32.96;606;04.10.11.986
12876;169474;32.96;607;04.10.11.986
12876;169467;32.96;608;04.10.11.986
12904;169468;32.96;609;04.10.11.986
12884;169473;32.96;610;04.10.11.986
12892;169466;32.96;611;04.10.11.986
12888;169469;32.96;612;04.10.11.986
12896;169473;32.96;613;04.10.11.986
12896;169473;32.96;614;04.10.11.997
12880;169470;32.96;615;04.10.11.997
12900;169476;32.96;616;04.10.11.997
12888;169473;32.96;617;04.10.11.997
12876;169473;32.96;618;04.10.11.997
12896;169482;32.96;619;04.10.11.997
12904;169472;32.96;620;04.10.11.997
12888;169483;32.96;621;04.10.11.997
12892;169486;32.96;622;04.10.11.997
12912;169480;32.96;623;04.10.11.997
12920;169488;32.96;624;04.10.11.997
12892;169488;32.96;625;04.10.12.096
12860;169485;32.96;626;04.10.12.107
12896;169483;32.96;627;04.10.12.107
12888;169487;32.96;628;04.10.12.107
12880;169484;32.96;629;04.10.12.107
12900;169487;32.96;630;04.10.12.107
12880;169482;32.96;631;04.10.12.107
12888;169487;32.96;632;04.10.12.107
12896;169485;32.96;633;04.10.12.107
12904;169484;32.96;634;04.10.12.107
12876;169487;32.96;635;04.10.12.107
12912;169473;32.96;636;04.10.12.107
12892;169467;32.96;637;04.10.12.107
12876;169471;32.96;638;04.10.12.107
12896;169469;32.96;639;04.10.12.118
12884;169462;32.96;640;04.10.12.118
12892;169445;32.96;641;04.10.12.118
12904;169448;32.96;642;04.10.12.118
12860;169452;32.96;643;04.10.12.118
12892;169449;32.96;644;04.10.12.118
12896;169442;32.96;645;04.10.12.118
12872;169435;32.96;646;04.10.12.118
12908;169426;32.96;647;04.10.12.118
12900;169431;32.96;648;04.10.12.118
12912;169422;32.96;649;04.10.12.118
12880;169423;32.96;650;04.10.12.239
12876;169421;32.96;651;04.10.12.239
12896;169420;32.96;652;04.10.12.239
12892;169415;32.96;653;04.10.12.239
12872;169411;32.96;654;04.10.12.239
12908;169410;32.96;655;04.10.12.239
12872;169411;32.96;656;04.10.12.239
12896;169402;32.96;657;04.10.12.239
12888;169405;32.96;658;04.10.12.239
12896;169407;32.96;659;04.10.12.239
12864;169396;32.96;660;04.10.12.249
12896;169405;32.96;661;04.10.12.249
12916;169401;32.96;662;04.10.12.249
12872;169407;32.96;663;04.10.12.249
12884;169402;32.96;664;04.10.12.249
12916;169396;32.96;665;04.10.12.249
12864;169395;32.96;666;04.10.12.249
12900;169398;32.96;667;04.10.12.249
12896;169405;32.96;668;04.10.12.249
12860;169401;32.96;669;04.10.12.249
12872;169406;32.96;670;04.10.12.249
12880;169394;32.96;671;04.10.12.249
12860;169400;32.96;672;04.10.12.260
12896;169402;32.96;673;04.10.12.260
12892;169403;32.96;674;04.10.12.260
12888;169394;32.96;675;04.10.12.370
12884;169406;32.96;676;04.10.12.370
12880;169389;32.96;677;04.10.12.370
12872;169395;32.96;678;04.10.12.370
12860;169393;32.96;679;04.10.12.370
12868;169386;32.96;680;04.10.12.370
12884;169391;32.96;681;04.10.12.381
12884;169389;32.96;682;04.10.12.381
12888;169390;32.96;683;04.10.12.381
12892;169390;32.96;684;04.10.12.381
12900;169392;32.96;685;04.10.12.381
12856;169396;32.96;686;04.10.12.381
12888;169393;32.96;687;04.10.12.381
12888;169396;32.96;688;04.10.12.381
12896;169402;32.96;689;04.10.12.381
12888;169393;32.96;690;04.10.12.381
12888;169401;32.96;691;04.10.12.381
12900;169395;32.96;692;04.10.12.381
12892;169401;32.96;693;04.10.12.381
12880;169391;32.96;694;04.10.12.392
12896;169391;32.96;695;04.10.12.392
12888;169400;32.96;696;04.10.12.392
12876;169390;32.96;697;04.10.12.392
12920;169395;32.96;698;04.10.12.392
12884;169394;32.96;699;04.10.12.392
12896;169390;32.96;700;04.10.12.480
12872;169388;32.96;701;04.10.12.480
12888;169388;32.96;702;04.10.12.491
12912;169388;32.96;703;04.10.12.491
12908;169389;32.96;704;04.10.12.491
12884;169388;32.96;705;04.10.12.491
12892;169398;32.96;706;04.10.12.491
12892;169390;32.96;707;04.10.12.491
12888;169391;32.96;708;04.10.12.491
12896;169384;32.96;709;04.10.12.502
12884;169392;32.96;710;04.10.12.502
12876;169390;32.96;711;04.10.12.502
12916;169383;32.96;712;04.10.12.502
12896;169392;32.96;713;04.10.12.502
12892;169388;32.96;714;04.10.12.502
12860;169393;32.96;715;04.10.12.502
12900;169388;32.96;716;04.10.12.502
12892;169389;32.96;717;04.10.12.502
12880;169394;32.96;718;04.10.12.502
12892;169387;32.96;719;04.10.12.502
12880;169402;32.96;720;04.10.12.502
12900;169396;32.96;721;04.10.12.502
12892;169401;32.96;722;04.10.12.513
12884;169396;32.96;723;04.10.12.513
12892;169400;32.96;724;04.10.12.513
12888;169397;32.92;725;04.10.12.622
12876;169401;32.92;726;04.10.12.622
12892;169396;32.92;727;04.10.12.622
12908;169399;32.92;728;04.10.12.622
12896;169408;32.92;729;04.10.12.622
12888;169407;32.92;730;04.10.12.622
12900;169401;32.92;731;04.10.12.622
12880;169409;32.92;732;04.10.12.622
12868;169408;32.92;733;04.10.12.633
12852;169409;32.92;734;04.10.12.633
12912;169408;32.92;735;04.10.12.633
12900;169411;32.92;736;04.10.12.633
12896;169410;32.92;737;04.10.12.633
12884;169422;32.92;738;04.10.12.633
12904;169419;32.92;739;04.10.12.633
12884;169420;32.92;740;04.10.12.633
12888;169421;32.92;741;04.10.12.633
12876;169425;32.92;742;04.10.12.633
12860;169426;32.92;743;04.10.12.633
12844;169420;32.92;744;04.10.12.644
12868;169429;32.92;745;04.10.12.644
12904;169426;32.92;746;04.10.12.644
12896;169433;32.92;747;04.10.12.644
12904;169431;32.92;748;04.10.12.644
12896;169429;32.92;749;04.10.12.644
12868;169438;32.92;750;04.10.12.743
12884;169435;32.92;751;04.10.12.743
12880;169442;32.92;752;04.10.12.743
12880;169438;32.92;753;04.10.12.743
12888;169437;32.92;754;04.10.12.743
12896;169443;32.92;755;04.10.12.743
12876;169452;32.92;756;04.10.12.743
12904;169447;32.92;757;04.10.12.743
12860;169449;32.92;758;04.10.12.754
12884;169443;32.92;759;04.10.12.754
12892;169441;32.92;760;04.10.12.754
12912;169452;32.92;761;04.10.12.754
12888;169455;32.92;762;04.10.12.754
12892;169452;32.92;763;04.10.12.754
12888;169456;32.92;764;04.10.12.754
12896;169454;32.92;765;04.10.12.754
12880;169452;32.92;766;04.10.12.754
12880;169459;32.92;767;04.10.12.754
12896;169464;32.92;768;04.10.12.754
12888;169465;32.92;769;04.10.12.754
12880;169468;32.92;770;04.10.12.754
12880;169466;32.92;771;04.10.12.765
12884;169461;32.92;772;04.10.12.765
12892;169463;32.92;773;04.10.12.765
12904;169468;32.92;774;04.10.12.765
12860;169473;32.92;775;04.10.12.863
12912;169475;32.92;776;04.10.12.863
12884;169480;32.92;777;04.10.12.863
12888;169477;32.92;778;04.10.12.863
12876;169474;32.92;779;04.10.12.874
12860;169483;32.92;780;04.10.12.874
12860;169479;32.92;781;04.10.12.874
12896;169481;32.92;782;04.10.12.874
12868;169484;32.92;783;04.10.12.874
12904;169474;32.92;784;04.10.12.874
12896;169469;32.92;785;04.10.12.874
12896;169470;32.92;786;04.10.12.874
12880;169473;32.92;787;04.10.12.874
12868;169463;32.92;788;04.10.12.874
12876;169464;32.92;789;04.10.12.874
12904;169460;32.92;790;04.10.12.874
12892;169451;32.92;791;04.10.12.874
12880;169456;32.92;792;04.10.12.885
12928;169449;32.92;793;04.10.12.885
12860;169437;32.92;794;04.10.12.885
12892;169437;32.92;795;04.10.12.885
12916;169438;32.92;796;04.10.12.885
12892;169436;32.92;797;04.10.12.885
12900;169429;32.92;798;04.10.12.885
12908;169432;32.92;799;04.10.12.885
12896;169424;32.92;800;04.10.12.984
12884;169421;32.92;801;04.10.12.984
12896;169423;32.92;802;04.10.12.984
12884;169427;32.92;803;04.10.12.984
12884;169425;32.92;804;04.10.12.984
12892;169421;32.92;805;04.10.12.984
12928;169423;32.92;806;04.10.12.984
12908;169419;32.92;807;04.10.12.984
12900;169424;32.92;808;04.10.12.984
12884;169419;32.92;809;04.10.12.984
12904;169423;32.92;810;04.10.12.995
12892;169409;32.92;811;04.10.12.995
12884;169424;32.92;812;04.10.12.995
12904;169412;32.92;813;04.10.12.995
12852;169416;32.92;814;04.10.12.995
12872;169417;32.92;815;04.10.12.995
12860;169414;32.92;816;04.10.12.995
12876;169414;32.92;817;04.10.13.006
12904;169413;32.92;818;04.10.13.006
12888;169413;32.92;819;04.10.13.006
12876;169414;32.92;820;04.10.13.006
12872;169410;32.92;821;04.10.13.006
12896;169415;32.92;822;04.10.13.006
12892;169408;32.92;823;04.10.13.006
12904;169423;32.92;824;04.10.13.006
12928;169417;32.96;825;04.10.13.104
12884;169413;32.96;826;04.10.13.104
12896;169417;32.96;827;04.10.13.104
12896;169416;32.96;828;04.10.13.104
12880;169424;32.96;829;04.10.13.104
12904;169421;32.96;830;04.10.13.104
12880;169414;32.96;831;04.10.13.104
12872;169418;32.96;832;04.10.13.104
12876;169425;32.96;833;04.10.13.104
12884;169425;32.96;834;04.10.13.115
12884;169417;32.96;835;04.10.13.115
12888;169424;32.96;836;04.10.13.115
12912;169425;32.96;837;04.10.13.115
12888;169420;32.96;838;04.10.13.115
12900;169425;32.96;839;04.10.13.115
12860;169423;32.96;840;04.10.13.115
12896;169424;32.96;841;04.10.13.115
12884;169422;32.96;842;04.10.13.115
12888;169423;32.96;843;04.10.13.115
12892;169423;32.96;844;04.10.13.115
12896;169426;32.96;845;04.10.13.115
12892;169430;32.96;846;04.10.13.115
12884;169426;32.96;847;04.10.13.126
12892;169428;32.96;848;04.10.13.126
12908;169425;32.96;849;04.10.13.126
12904;169420;32.96;850;04.10.13.236
12884;169427;32.96;851;04.10.13.236
12896;169426;32.96;852;04.10.13.236
12896;169428;32.96;853;04.10.13.236
12892;169427;32.96;854;04.10.13.236
12896;169423;32.96;855;04.10.13.247
12872;169426;32.96;856;04.10.13.247
12892;169436;32.96;857;04.10.13.247
12876;169425;32.96;858;04.10.13.247
12912;169431;32.96;859;04.10.13.247
12876;169428;32.96;860;04.10.13.247
12888;169433;32.96;861;04.10.13.247
12900;169425;32.96;862;04.10.13.247
12892;169437;32.96;863;04.10.13.247
12872;169435;32.96;864;04.10.13.247
12912;169444;32.96;865;04.10.13.247
12896;169435;32.96;866;04.10.13.247
12936;169436;32.96;867;04.10.13.247
12880;169439;32.96;868;04.10.13.258
12888;169445;32.96;869;04.10.13.258
12888;169447;32.96;870;04.10.13.258
12904;169444;32.96;871;04.10.13.258
12892;169444;32.96;872;04.10.13.258
12876;169450;32.96;873;04.10.13.258
12916;169448;32.96;874;04.10.13.258
12896;169449;32.96;875;04.10.13.357
12876;169459;32.96;876;04.10.13.368
12892;169453;32.96;877;04.10.13.368
12900;169451;32.96;878;04.10.13.368
12896;169456;32.96;879;04.10.13.368
12908;169461;32.96;880;04.10.13.368
12892;169467;32.96;881;04.10.13.368
12892;169467;32.96;882;04.10.13.368
12888;169467;32.96;883;04.10.13.368
12888;169465;32.96;884;04.10.13.368
12872;169467;32.96;885;04.10.13.368
12860;169466;32.96;886;04.10.13.368
12880;169469;32.96;887;04.10.13.368
12928;169466;32.96;888;04.10.13.368
12892;169467;32.96;889;04.10.13.378
12896;169464;32.96;890;04.10.13.378
12876;169476;32.96;891;04.10.13.378
12880;169477;32.96;892;04.10.13.378
12896;169473;32.96;893;04.10.13.378
12868;169473;32.96;894;04.10.13.378
12892;169476;32.96;895;04.10.13.378
12880;169475;32.96;896;04.10.13.378
12892;169483;32.96;897;04.10.13.378
12892;169469;32.96;898;04.10.13.378
12888;169480;32.96;899;04.10.13.378
12884;169473;32.96;900;04.10.13.498
12860;169474;32.96;901;04.10.13.498
12892;169485;32.96;902;04.10.13.498
12888;169483;32.96;903;04.10.13.498
12892;169480;32.96;904;04.10.13.498
12896;169486;32.96;905;04.10.13.498
12888;169492;32.96;906;04.10.13.498
12888;169488;32.96;907;04.10.13.498
12880;169490;32.96;908;04.10.13.498
12876;169492;32.96;909;04.10.13.498
12884;169498;32.96;910;04.10.13.498
12896;169500;32.96;911;04.10.13.509
12920;169492;32.96;912;04.10.13.509
12888;169495;32.96;913;04.10.13.509
12892;169499;32.96;914;04.10.13.509
12888;169501;32.96;915;04.10.13.509
12904;169500;32.96;916;04.10.13.509
12896;169503;32.96;917;04.10.13.509
12880;169496;32.96;918;04.10.13.509
12928;169506;32.96;919;04.10.13.509
12900;169512;32.96;920;04.10.13.509
12900;169517;32.96;921;04.10.13.509
12872;169510;32.96;922;04.10.13.509
12912;169513;32.96;923;04.10.13.520
12904;169505;32.96;924;04.10.13.520
12860;169501;32.96;925;04.10.13.608
12896;169497;32.96;926;04.10.13.608
12844;169491;32.96;927;04.10.13.608
12904;169496;32.96;928;04.10.13.608
12896;169490;32.96;929;04.10.13.608
12900;169479;32.96;930;04.10.13.608
12868;169480;32.96;931;04.10.13.619
12876;169475;32.96;932;04.10.13.619
12904;169469;32.96;933;04.10.13.641
12884;169461;32.96;934;04.10.13.641
12900;169470;32.96;935;04.10.13.641
12884;169455;32.96;936;04.10.13.641
12872;169456;32.96;937;04.10.13.641
12896;169452;32.96;938;04.10.13.641
12884;169457;32.96;939;04.10.13.652
12912;169447;32.96;940;04.10.13.652
12860;169440;32.96;941;04.10.13.652
12880;169442;32.96;942;04.10.13.652
12876;169440;32.96;943;04.10.13.652
12896;169444;32.96;944;04.10.13.652
12892;169442;32.96;945;04.10.13.652
12880;169432;32.96;946;04.10.13.652
12876;169437;32.96;947;04.10.13.652
12920;169440;32.96;948;04.10.13.652
12944;169434;32.96;949;04.10.13.652
12888;169436;32.96;950;04.10.13.782
12900;169432;32.96;951;04.10.13.782
12880;169429;32.96;952;04.10.13.782
12888;169437;32.96;953;04.10.13.782
12912;169435;32.96;954;04.10.13.782
12884;169431;32.96;955;04.10.13.782
12896;169426;32.96;956;04.10.13.782
12904;169431;32.96;957;04.10.13.782
12888;169420;32.96;958;04.10.13.782
12896;169436;32.96;959;04.10.13.782
12876;169437;32.96;960;04.10.13.782
12880;169443;32.96;961;04.10.13.782
12904;169440;32.96;962;04.10.13.782
12916;169438;32.96;963;04.10.13.793
12876;169439;32.96;964;04.10.13.793
12924;169437;32.96;965;04.10.13.793
12896;169442;32.96;966;04.10.13.793
12892;169439;32.96;967;04.10.13.793
12860;169439;32.96;968;04.10.13.793
12876;169436;32.96;969;04.10.13.793
12896;169449;32.96;970;04.10.13.793
12880;169448;32.96;971;04.10.13.793
12876;169442;32.96;972;04.10.13.793
12892;169446;32.96;973;04.10.13.793
12924;169445;32.96;974;04.10.13.793
12912;169437;32.92;975;04.10.13.870
12916;169443;32.92;976;04.10.13.870
12888;169433;32.92;977;04.10.13.870
12884;169436;32.92;978;04.10.13.870
12900;169449;32.92;979;04.10.13.870
12904;169440;32.92;980;04.10.13.870
12880;169436;32.92;981;04.10.13.870
12900;169439;32.92;982;04.10.13.870
12884;169448;32.92;983;04.10.13.870
12864;169446;32.92;984;04.10.13.870
12896;169444;32.92;985;04.10.13.881
12900;169442;32.92;986;04.10.13.881
12868;169440;32.92;987;04.10.13.881
12892;169442;32.92;988;04.10.13.881
12884;169436;32.92;989;04.10.13.881
12896;169434;32.92;990;04.10.13.881
12876;169442;32.92;991;04.10.13.881
12916;169442;32.92;992;04.10.13.881
12908;169443;32.92;993;04.10.13.881
12892;169437;32.92;994;04.10.13.881
12908;169439;32.92;995;04.10.13.881
12896;169440;32.92;996;04.10.13.881
12900;169448;32.92;997;04.10.13.881
12876;169443;32.92;998;04.10.13.892
12896;169445;32.92;999;04.10.13.892
12888;169441;32.92;000;04.10.13.980
12900;169440;32.92;001;04.10.13.980
12888;169442;32.92;002;04.10.13.980
12872;169446;32.92;003;04.10.13.980
12876;169442;32.92;004;04.10.13.980
12884;169444;32.92;005;04.10.13.980
12928;169445;32.92;006;04.10.13.980
12896;169449;32.92;007;04.10.13.991
12896;169454;32.92;008;04.10.14.013
12880;169450;32.92;009;04.10.14.013
12888;169444;32.92;010;04.10.14.013
12900;169451;32.92;011;04.10.14.013
12904;169452;32.92;012;04.10.14.013
12896;169453;32.92;013;04.10.14.013
12888;169458;32.92;014;04.10.14.013
12876;169455;32.92;015;04.10.14.013
12896;169461;32.92;016;04.10.14.024
12896;169463;32.92;017;04.10.14.024
12912;169461;32.92;018;04.10.14.024
12888;169466;32.92;019;04.10.14.024
12868;169456;32.92;020;04.10.14.024
12872;169462;32.92;021;04.10.14.024
12864;169465;32.92;022;04.10.14.024
12896;169460;32.92;023;04.10.14.024
12912;169470;32.92;024;04.10.14.024
12896;169471;32.96;025;04.10.14.101
12872;169472;32.96;026;04.10.14.101
12884;169468;32.96;027;04.10.14.101
12904;169468;32.96;028;04.10.14.111
12916;169473;32.96;029;04.10.14.111
12876;169473;32.96;030;04.10.14.111
12872;169486;32.96;031;04.10.14.111
12888;169482;32.96;032;04.10.14.111
12892;169479;32.96;033;04.10.14.111
12888;169483;32.96;034;04.10.14.111
12896;169482;32.96;035;04.10.14.111
12872;169477;32.96;036;04.10.14.111
12892;169483;32.96;037;04.10.14.111
12880;169481;32.96;038;04.10.14.111
12892;169482;32.96;039;04.10.14.111
12868;169480;32.96;040;04.10.14.111
12884;169491;32.96;041;04.10.14.122
12888;169484;32.96;042;04.10.14.122
12900;169483;32.96;043;04.10.14.122
12848;169491;32.96;044;04.10.14.122
12928;169491;32.96;045;04.10.14.122
12904;169490;32.96;046;04.10.14.122
12860;169488;32.96;047;04.10.14.122
12904;169486;32.96;048;04.10.14.122
12936;169490;32.96;049;04.10.14.122
12872;169489;32.96;050;04.10.14.231
12892;169499;32.96;051;04.10.14.231
12880;169498;32.96;052;04.10.14.231
12876;169503;32.96;053;04.10.14.231
12876;169498;32.96;054;04.10.14.231
12888;169491;32.96;055;04.10.14.231
12896;169493;32.96;056;04.10.14.231
12884;169489;32.96;057;04.10.14.231
12880;169487;32.96;058;04.10.14.231
12900;169483;32.96;059;04.10.14.231
12908;169473;32.96;060;04.10.14.231
12900;169478;32.96;061;04.10.14.242
12896;169471;32.96;062;04.10.14.242
12880;169463;32.96;063;04.10.14.242
12904;169458;32.96;064;04.10.14.242
12904;169446;32.96;065;04.10.14.242
12876;169442;32.96;066;04.10.14.242
12888;169442;32.96;067;04.10.14.242
12904;169438;32.96;068;04.10.14.242
12896;169431;32.96;069;04.10.14.242
12880;169431;32.96;070;04.10.14.242
12888;169423;32.96;071;04.10.14.242
12872;169423;32.96;072;04.10.14.242
12900;169420;32.96;073;04.10.14.242
12908;169421;32.96;074;04.10.14.253
12912;169408;32.96;075;04.10.14.363
12892;169411;32.96;076;04.10.14.363
12904;169411;32.96;077;04.10.14.363
12876;169401;32.96;078;04.10.14.363
12880;169397;32.96;079;04.10.14.363
12888;169397;32.96;080;04.10.14.363
12912;169395;32.96;081;04.10.14.363
12892;169399;32.96;082;04.10.14.374
12888;169398;32.96;083;04.10.14.374
12856;169390;32.96;084;04.10.14.374
12896;169395;32.96;085;04.10.14.374
12896;169391;32.96;086;04.10.14.374
12900;169396;32.96;087;04.10.14.374
12880;169392;32.96;088;04.10.14.374
12888;169395;32.96;089;04.10.14.374
12880;169391;32.96;090;04.10.14.374
12884;169388;32.96;091;04.10.14.374
12888;169393;32.96;092;04.10.14.374
12872;169388;32.96;093;04.10.14.374
12892;169393;32.96;094;04.10.14.385
12892;169390;32.96;095;04.10.14.385
12888;169393;32.96;096;04.10.14.385
12896;169387;32.96;097;04.10.14.385
12904;169385;32.96;098;04.10.14.385
12904;169383;32.96;099;04.10.14.385
12908;169386;32.96;100;04.10.14.494
12876;169382;32.96;101;04.10.14.494
12860;169391;32.96;102;04.10.14.505
12912;169390;32.96;103;04.10.14.505
12876;169390;32.96;104;04.10.14.505
12880;169384;32.96;105;04.10.14.505
12884;169390;32.96;106;04.10.14.505
12880;169384;32.96;107;04.10.14.505
12896;169382;32.96;108;04.10.14.505
12876;169383;32.96;109;04.10.14.505
12880;169391;32.96;110;04.10.14.505
12916;169388;32.96;111;04.10.14.505
12868;169394;32.96;112;04.10.14.505
12928;169393;32.96;113;04.10.14.505
12896;169383;32.96;114;04.10.14.505
12900;169394;32.96;115;04.10.14.516
12860;169385;32.96;116;04.10.14.516
12896;169379;32.96;117;04.10.14.516
12896;169387;32.96;118;04.10.14.516
12856;169385;32.96;119;04.10.14.516
12892;169384;32.96;120;04.10.14.516
12888;169393;32.96;121;04.10.14.516
12896;169377;32.96;122;04.10.14.516
12888;169385;32.96;123;04.10.14.516
12896;169387;32.96;124;04.10.14.516
12876;169392;32.96;125;04.10.14.636
12856;169396;32.96;126;04.10.14.636
12864;169392;32.96;127;04.10.14.636
12868;169394;32.96;128;04.10.14.636
12872;169399;32.96;129;04.10.14.636
12880;169398;32.96;130;04.10.14.636
12860;169399;32.96;131;04.10.14.636
12880;169394;32.96;132;04.10.14.636
12868;169393;32.96;133;04.10.14.647
12852;169399;32.96;134;04.10.14.647
12896;169399;32.96;135;04.10.14.647
12900;169402;32.96;136;04.10.14.647
12912;169403;32.96;137;04.10.14.647
12896;169393;32.96;138;04.10.14.647
12860;169398;32.96;139;04.10.14.647
12864;169395;32.96;140;04.10.14.647
12896;169404;32.96;141;04.10.14.647
12904;169398;32.96;142;04.10.14.647
12884;169405;32.96;143;04.10.14.647
12888;169402;32.96;144;04.10.14.647
12860;169400;32.96;145;04.10.14.658
12888;169404;32.96;146;04.10.14.658
12888;169408;32.96;147;04.10.14.658
12884;169402;32.96;148;04.10.14.658
12888;169413;32.96;149;04.10.14.658
12896;169410;32.96;150;04.10.14.735
12900;169408;32.96;151;04.10.14.735
12876;169413;32.96;152;04.10.14.735
12884;169415;32.96;153;04.10.14.735
12908;169418;32.96;154;04.10.14.735
12912;169414;32.96;155;04.10.14.735
12888;169420;32.96;156;04.10.14.735
12900;169411;32.96;157;04.10.14.735
12888;169413;32.96;158;04.10.14.746
12876;169426;32.96;159;04.10.14.746
12888;169423;32.96;160;04.10.14.746
12900;169421;32.96;161;04.10.14.746
12896;169423;32.96;162;04.10.14.746
12868;169426;32.96;163;04.10.14.746
12880;169435;32.96;164;04.10.14.746
12904;169427;32.96;165;04.10.14.746
12864;169429;32.96;166;04.10.14.746
12896;169445;32.96;167;04.10.14.768
12876;169446;32.96;168;04.10.14.768
12884;169438;32.96;169;04.10.14.768
12904;169451;32.96;170;04.10.14.768
12904;169442;32.96;171;04.10.14.768
12876;169450;32.96;172;04.10.14.768
12892;169448;32.96;173;04.10.14.768
12900;169438;32.96;174;04.10.14.768
12884;169439;32.96;175;04.10.14.856
12876;169447;32.96;176;04.10.14.856
12864;169444;32.96;177;04.10.14.856
12892;169440;32.96;178;04.10.14.856
12884;169448;32.96;179;04.10.14.856
12892;169453;32.96;180;04.10.14.867
12892;169446;32.96;181;04.10.14.867
12888;169446;32.96;182;04.10.14.867
12904;169451;32.96;183;04.10.14.867
12896;169462;32.96;184;04.10.14.867
12872;169455;32.96;185;04.10.14.867
12876;169465;32.96;186;04.10.14.867
12884;169453;32.96;187;04.10.14.867
12876;169455;32.96;188;04.10.14.867
12860;169445;32.96;189;04.10.14.867
12896;169444;32.96;190;04.10.14.867
12856;169439;32.96;191;04.10.14.867
12884;169433;32.96;192;04.10.14.867
12876;169434;32.96;193;04.10.14.878
12912;169427;32.96;194;04.10.14.878
12872;169424;32.96;195;04.10.14.878
12884;169422;32.96;196;04.10.14.878
12876;169412;32.96;197;04.10.14.878
12880;169416;32.96;198;04.10.14.878
12876;169406;32.96;199;04.10.14.878
12876;169398;32.96;200;04.10.15.008
12880;169401;32.96;201;04.10.15.008
12900;169397;32.96;202;04.10.15.008
12896;169393;32.96;203;04.10.15.008
12884;169394;32.96;204;04.10.15.008
12904;169390;32.96;205;04.10.15.008
12864;169394;32.96;206;04.10.15.008
12908;169382;32.96;207;04.10.15.008
12876;169385;32.96;208;04.10.15.008
12876;169377;32.96;209;04.10.15.008
12904;169379;32.96;210;04.10.15.008
12872;169376;32.96;211;04.10.15.008
12912;169376;32.96;212;04.10.15.019
12912;169367;32.96;213;04.10.15.019
12896;169375;32.96;214;04.10.15.019
12888;169374;32.96;215;04.10.15.019
12896;169365;32.96;216;04.10.15.019
12896;169369;32.96;217;04.10.15.041
12884;169363;32.96;218;04.10.15.041
12872;169370;32.96;219;04.10.15.041
12860;169367;32.96;220;04.10.15.041
12880;169364;32.96;221;04.10.15.041
12872;169372;32.96;222;04.10.15.041
12892;169371;32.96;223;04.10.15.041
12872;169366;32.96;224;04.10.15.041
12872;169375;32.92;225;04.10.15.107
12904;169376;32.92;226;04.10.15.107
12876;169381;32.92;227;04.10.15.107
12904;169372;32.92;228;04.10.15.107
12912;169369;32.92;229;04.10.15.107
12888;169377;32.92;230;04.10.15.107
12872;169376;32.92;231;04.10.15.107
12888;169378;32.92;232;04.10.15.107
12932;169371;32.92;233;04.10.15.118
12928;169375;32.92;234;04.10.15.118
12904;169375;32.92;235;04.10.15.118
12860;169378;32.92;236;04.10.15.118
12884;169382;32.92;237;04.10.15.118
12860;169377;32.92;238;04.10.15.118
12888;169379;32.92;239;04.10.15.118
12912;169389;32.92;240;04.10.15.118
12900;169379;32.92;241;04.10.15.118
12900;169385;32.92;242;04.10.15.118
12872;169386;32.92;243;04.10.15.129
12908;169387;32.92;244;04.10.15.129
12884;169377;32.92;245;04.10.15.129
12888;169378;32.92;246;04.10.15.129
12904;169384;32.92;247;04.10.15.129
12912;169381;32.92;248;04.10.15.129
12892;169380;32.92;249;04.10.15.129
12876;169387;32.92;250;04.10.15.261
12932;169370;32.92;251;04.10.15.261
12884;169379;32.92;252;04.10.15.261
12912;169382;32.92;253;04.10.15.261
12920;169384;32.92;254;04.10.15.261
12880;169385;32.92;255;04.10.15.272
12900;169382;32.92;256;04.10.15.272
12884;169379;32.92;257;04.10.15.272
12892;169385;32.92;258;04.10.15.272
12896;169383;32.92;259;04.10.15.272
12912;169387;32.92;260;04.10.15.272
12892;169384;32.92;261;04.10.15.272
12860;169390;32.92;262;04.10.15.272
12900;169382;32.92;263;04.10.15.272
12904;169391;32.92;264;04.10.15.272
12868;169387;32.92;265;04.10.15.272
12876;169393;32.92;266;04.10.15.272
12880;169387;32.92;267;04.10.15.272
12880;169389;32.92;268;04.10.15.283
12920;169391;32.92;269;04.10.15.283
12888;169395;32.92;270;04.10.15.283
12896;169388;32.92;271;04.10.15.283
12880;169399;32.92;272;04.10.15.283
12896;169402;32.92;273;04.10.15.283
12904;169401;32.92;274;04.10.15.283
12872;169399;32.96;275;04.10.15.348
12896;169394;32.96;276;04.10.15.348
12888;169397;32.96;277;04.10.15.359
12912;169400;32.96;278;04.10.15.359
12892;169405;32.96;279;04.10.15.359
12888;169397;32.96;280;04.10.15.359
12892;169409;32.96;281;04.10.15.359
12940;169407;32.96;282;04.10.15.359
12876;169408;32.96;283;04.10.15.359
12888;169409;32.96;284;04.10.15.359
12884;169408;32.96;285;04.10.15.359
12876;169412;32.96;286;04.10.15.359
12884;169415;32.96;287;04.10.15.359
12880;169412;32.96;288;04.10.15.359
12900;169417;32.96;289;04.10.15.359
12884;169419;32.96;290;04.10.15.370
12892;169419;32.96;291;04.10.15.370
12864;169422;32.96;292;04.10.15.370
12880;169422;32.96;293;04.10.15.370
12892;169434;32.96;294;04.10.15.370
12880;169428;32.96;295;04.10.15.370
12860;169434;32.96;296;04.10.15.370
12884;169430;32.96;297;04.10.15.370
12884;169436;32.96;298;04.10.15.370
12916;169442;32.96;299;04.10.15.370
12880;169441;32.96;300;04.10.15.491
12896;169445;32.96;301;04.10.15.491
12868;169450;32.96;302;04.10.15.491
12880;169451;32.96;303;04.10.15.491
12896;169451;32.96;304;04.10.15.491
12852;169443;32.96;305;04.10.15.491
12868;169456;32.96;306;04.10.15.491
12888;169445;32.96;307;04.10.15.491
12884;169450;32.96;308;04.10.15.491
12880;169451;32.96;309;04.10.15.491
12888;169459;32.96;310;04.10.15.491
12896;169452;32.96;311;04.10.15.502
12908;169456;32.96;312;04.10.15.502
12888;169448;32.96;313;04.10.15.502
12868;169454;32.96;314;04.10.15.502
12892;169456;32.96;315;04.10.15.502
12876;169457;32.96;316;04.10.15.502
12892;169465;32.96;317;04.10.15.502
12888;169471;32.96;318;04.10.15.502
12872;169466;32.96;319;04.10.15.502
12928;169461;32.96;320;04.10.15.502
12888;169471;32.96;321;04.10.15.502
12928;169461;32.96;322;04.10.15.502
12888;169458;32.96;323;04.10.15.502
12928;169458;32.96;324;04.10.15.513
12904;169464;32.92;325;04.10.15.623
12888;169463;32.92;326;04.10.15.623
12888;169472;32.92;327;04.10.15.623
12908;169474;32.92;328;04.10.15.623
12880;169468;32.92;329;04.10.15.623
12928;169459;32.92;330;04.10.15.623
12900;169464;32.92;331;04.10.15.623
12892;169457;32.92;332;04.10.15.634
12888;169452;32.92;333;04.10.15.634
12896;169456;32.92;334;04.10.15.634
12904;169455;32.92;335;04.10.15.634
12888;169450;32.92;336;04.10.15.634
12888;169438;32.92;337;04.10.15.634
12896;169440;32.92;338;04.10.15.634
12884;169435;32.92;339;04.10.15.634
12892;169433;32.92;340;04.10.15.634
12888;169422;32.92;341;04.10.15.634
12896;169424;32.92;342;04.10.15.634
12876;169429;32.92;343;04.10.15.634
12868;169417;32.92;344;04.10.15.634
12872;169416;32.92;345;04.10.15.645
12880;169412;32.92;346;04.10.15.645
12876;169412;32.92;347;04.10.15.645
12920;169410;32.92;348;04.10.15.645
12900;169409;32.92;349;04.10.15.645
12896;169410;32.92;350;04.10.15.732
12892;169404;32.92;351;04.10.15.732
12880;169409;32.92;352;04.10.15.732
12876;169408;32.92;353;04.10.15.732
12920;169400;32.92;354;04.10.15.743
12884;169395;32.92;355;04.10.15.743
12884;169397;32.92;356;04.10.15.743
12888;169398;32.92;357;04.10.15.743
12940;169395;32.92;358;04.10.15.743
12876;169391;32.92;359;04.10.15.743
12928;169393;32.92;360;04.10.15.743
12912;169390;32.92;361;04.10.15.754
12884;169392;32.92;362;04.10.15.754
12872;169389;32.92;363;04.10.15.754
12888;169392;32.92;364;04.10.15.754
12892;169386;32.92;365;04.10.15.754
12932;169387;32.92;366;04.10.15.754
12916;169384;32.92;367;04.10.15.754
12916;169381;32.92;368;04.10.15.754
12872;169381;32.92;369;04.10.15.754
12888;169372;32.92;370;04.10.15.754
12884;169379;32.92;371;04.10.15.765
12892;169382;32.92;372;04.10.15.765
12900;169380;32.92;373;04.10.15.765
12908;169375;32.92;374;04.10.15.765
12904;169374;32.96;375;04.10.15.864
12868;169377;32.96;376;04.10.15.864
12928;169383;32.96;377;04.10.15.864
12904;169378;32.96;378;04.10.15.864
12924;169383;32.96;379;04.10.15.864
12896;169385;32.96;380;04.10.15.864
12928;169382;32.96;381;04.10.15.864
12888;169386;32.96;382;04.10.15.864
12876;169386;32.96;383;04.10.15.864
12884;169387;32.96;384;04.10.15.864
12880;169379;32.96;385;04.10.15.864
12900;169386;32.96;386;04.10.15.864
12888;169395;32.96;387;04.10.15.864
12884;169391;32.96;388;04.10.15.875
12904;169388;32.96;389;04.10.15.875
12924;169389;32.96;390;04.10.15.875
12884;169389;32.96;391;04.10.15.875
12896;169386;32.96;392;04.10.15.875
12904;169395;32.96;393;04.10.15.875
12896;169380;32.96;394;04.10.15.875
12880;169390;32.96;395;04.10.15.875
12876;169385;32.96;396;04.10.15.875
12888;169391;32.96;397;04.10.15.875
12896;169378;32.96;398;04.10.15.875
12908;169379;32.96;399;04.10.15.875
12896;169380;32.96;400;04.10.15.984
12908;169387;32.96;401;04.10.15.984
12892;169385;32.96;402;04.10.15.984
12888;169378;32.96;403;04.10.15.984
12860;169387;32.96;404;04.10.15.984
12904;169378;32.96;405;04.10.15.984
12860;169383;32.96;406;04.10.15.984
12888;169388;32.96;407;04.10.15.984
12900;169390;32.96;408;04.10.15.984
12880;169394;32.96;409;04.10.15.995
12892;169389;32.96;410;04.10.15.995
12892;169387;32.96;411;04.10.15.995
12892;169379;32.96;412;04.10.15.995
12888;169396;32.96;413;04.10.15.995
12900;169392;32.96;414;04.10.15.995
12900;169395;32.96;415;04.10.15.995
12848;169397;32.96;416;04.10.15.995
12860;169394;32.96;417;04.10.15.995
12892;169397;32.96;418;04.10.15.995
12900;169401;32.96;419;04.10.15.995
12888;169399;32.96;420;04.10.15.995
12900;169400;32.96;421;04.10.16.006
12876;169400;32.96;422;04.10.16.006
12864;169406;32.96;423;04.10.16.006
12892;169412;32.96;424;04.10.16.006
12900;169399;32.96;425;04.10.16.115
12884;169400;32.96;426;04.10.16.115
12892;169409;32.96;427;04.10.16.115
12860;169408;32.96;428;04.10.16.115
12896;169411;32.96;429;04.10.16.126
12864;169415;32.96;430;04.10.16.126
12884;169409;32.96;431;04.10.16.126
12868;169419;32.96;432;04.10.16.126
12884;169418;32.96;433;04.10.16.126
12888;169422;32.96;434;04.10.16.126
12912;169417;32.96;435;04.10.16.126
12872;169423;32.96;436;04.10.16.126
12860;169428;32.96;437;04.10.16.126
12892;169430;32.96;438;04.10.16.126
12892;169424;32.96;439;04.10.16.126
12884;169422;32.96;440;04.10.16.126
12876;169422;32.96;441;04.10.16.126
12864;169428;32.96;442;04.10.16.126
12904;169428;32.96;443;04.10.16.137
12912;169429;32.96;444;04.10.16.137
12860;169428;32.96;445;04.10.16.137
12904;169434;32.96;446;04.10.16.137
12884;169434;32.96;447;04.10.16.137
12876;169434;32.96;448;04.10.16.137
12928;169434;32.96;449;04.10.16.137
12884;169438;32.96;450;04.10.16.225
12884;169441;32.96;451;04.10.16.236
12892;169441;32.96;452;04.10.16.236
12888;169448;32.96;453;04.10.16.236
12904;169452;32.96;454;04.10.16.236
12892;169444;32.96;455;04.10.16.236
12904;169452;32.96;456;04.10.16.236
12880;169452;32.96;457;04.10.16.236
12888;169451;32.96;458;04.10.16.236
12908;169465;32.96;459;04.10.16.247
12864;169466;32.96;460;04.10.16.247
12884;169459;32.96;461;04.10.16.247
12872;169463;32.96;462;04.10.16.247
12880;169458;32.96;463;04.10.16.247
12904;169466;32.96;464;04.10.16.247
12896;169459;32.96;465;04.10.16.247
12876;169469;32.96;466;04.10.16.247
12928;169474;32.96;467;04.10.16.247
12860;169476;32.96;468;04.10.16.247
12896;169481;32.96;469;04.10.16.247
12860;169473;32.96;470;04.10.16.247
12896;169480;32.96;471;04.10.16.247
12884;169477;32.96;472;04.10.16.258
12892;169484;32.96;473;04.10.16.258
12912;169481;32.96;474;04.10.16.258
12892;169486;32.96;475;04.10.16.357
12888;169491;32.96;476;04.10.16.357
12900;169493;32.96;477;04.10.16.357
12908;169490;32.96;478;04.10.16.357
12916;169497;32.96;479;04.10.16.357
12896;169491;32.96;480;04.10.16.357
12880;169496;32.96;481;04.10.16.357
12880;169492;32.96;482;04.10.16.357
12900;169501;32.96;483;04.10.16.357
12888;169499;32.96;484;04.10.16.357
12896;169496;32.96;485;04.10.16.368
12876;169500;32.96;486;04.10.16.368
12888;169499;32.96;487;04.10.16.368
12876;169505;32.96;488;04.10.16.368
12880;169503;32.96;489;04.10.16.368
12888;169512;32.96;490;04.10.16.368
12888;169504;32.96;491;04.10.16.368
12928;169497;32.96;492;04.10.16.390
12884;169498;32.96;493;04.10.16.390
12868;169490;32.96;494;04.10.16.390
12896;169491;32.96;495;04.10.16.390
12884;169495;32.96;496;04.10.16.390
12904;169487;32.96;497;04.10.16.390
12912;169476;32.96;498;04.10.16.390
12872;169475;32.96;499;04.10.16.390
12864;169471;32.96;500;04.10.16.477
12880;169463;32.96;501;04.10.16.477
12896;169463;32.96;502;04.10.16.477
12904;169459;32.96;503;04.10.16.477
12896;169453;32.96;504;04.10.16.477
12904;169448;32.96;505;04.10.16.477
12896;169448;32.96;506;04.10.16.477
12880;169446;32.96;507;04.10.16.489
12888;169441;32.96;508;04.10.16.489
12876;169437;32.96;509;04.10.16.489
12876;169442;32.96;510;04.10.16.489
12896;169433;32.96;511;04.10.16.489
12884;169433;32.96;512;04.10.16.489
12896;169426;32.96;513;04.10.16.489
12884;169430;32.96;514;04.10.16.489
12880;169422;32.96;515;04.10.16.489
12900;169430;32.96;516;04.10.16.489
12920;169427;32.96;517;04.10.16.489
12868;169418;32.96;518;04.10.16.489
12896;169423;32.96;519;04.10.16.489
12896;169425;32.96;520;04.10.16.499
12880;169420;32.96;521;04.10.16.499
12888;169414;32.96;522;04.10.16.499
12872;169417;32.96;523;04.10.16.499
12876;169421;32.96;524;04.10.16.499
12884;169422;32.96;525;04.10.16.609
12876;169415;32.96;526;04.10.16.609
12892;169414;32.96;527;04.10.16.609
12860;169412;32.96;528;04.10.16.620
12872;169416;32.96;529;04.10.16.620
12876;169414;32.96;530;04.10.16.620
12872;169415;32.96;531;04.10.16.620
12876;169418;32.96;532;04.10.16.620
12896;169410;32.96;533;04.10.16.620
12896;169410;32.96;534;04.10.16.620
12896;169412;32.96;535;04.10.16.620
12884;169411;32.96;536;04.10.16.620
12876;169419;32.96;537;04.10.16.631
12880;169413;32.96;538;04.10.16.631
12880;169414;32.96;539;04.10.16.631
12880;169421;32.96;540;04.10.16.631
12888;169404;32.96;541;04.10.16.631
12876;169412;32.96;542;04.10.16.631
12860;169415;32.96;543;04.10.16.631
12872;169424;32.96;544;04.10.16.631
12888;169431;32.96;545;04.10.16.631
12896;169426;32.96;546;04.10.16.631
12888;169427;32.96;547;04.10.16.631
12856;169422;32.96;548;04.10.16.631
12928;169433;32.96;549;04.10.16.631
12896;169422;32.96;550;04.10.16.763
12880;169418;32.96;551;04.10.16.763
12904;169425;32.96;552;04.10.16.763
12888;169422;32.96;553;04.10.16.763
12884;169427;32.96;554;04.10.16.763
12912;169423;32.96;555;04.10.16.763
12896;169424;32.96;556;04.10.16.763
12888;169422;32.96;557;04.10.16.763
12884;169417;32.96;558;04.10.16.763
12896;169419;32.96;559;04.10.16.763
12912;169422;32.96;560;04.10.16.763
12876;169417;32.96;561;04.10.16.763
12880;169419;32.96;562;04.10.16.774
12876;169424;32.96;563;04.10.16.774
12868;169421;32.96;564;04.10.16.774
12888;169420;32.96;565;04.10.16.774
12896;169424;32.96;566;04.10.16.774
12884;169419;32.96;567;04.10.16.774
12860;169418;32.96;568;04.10.16.774
12876;169424;32.96;569;04.10.16.774
12888;169417;32.96;570;04.10.16.774
12872;169429;32.96;571;04.10.16.774
12872;169431;32.96;572;04.10.16.774
12884;169427;32.96;573;04.10.16.774
12892;169429;32.96;574;04.10.16.785
12888;169424;32.96;575;04.10.16.862
12880;169427;32.96;576;04.10.16.862
12880;169431;32.96;577;04.10.16.862
12876;169429;32.96;578;04.10.16.862
12872;169428;32.96;579;04.10.16.862
12892;169435;32.96;580;04.10.16.862
12912;169439;32.96;581;04.10.16.862
12912;169439;32.96;582;04.10.16.862
12884;169436;32.96;583;04.10.16.883
12868;169438;32.96;584;04.10.16.883
12920;169441;32.96;585;04.10.16.883
12884;169442;32.96;586;04.10.16.883
12876;169453;32.96;587;04.10.16.883
12880;169440;32.96;588;04.10.16.883
12884;169446;32.96;589;04.10.16.883
12888;169450;32.96;590;04.10.16.883
12896;169456;32.96;591;04.10.16.883
12892;169454;32.96;592;04.10.16.894
12880;169459;32.96;593;04.10.16.894
12880;169452;32.96;594;04.10.16.894
12860;169459;32.96;595;04.10.16.894
12896;169464;32.96;596;04.10.16.894
12888;169469;32.96;597;04.10.16.894
12892;169463;32.96;598;04.10.16.894
12908;169475;32.96;599;04.10.16.894
12880;169469;32.96;600;04.10.16.981
12888;169463;32.96;601;04.10.16.981
