gsr; bvp; skt; skt2; Cont; time
12892;171025;34.80;375;03.42.39.678
12904;171031;34.80;376;03.42.39.678
12900;171028;34.80;377;03.42.39.678
12912;171029;34.80;378;03.42.39.678
12892;171035;34.80;379;03.42.39.678
12884;171042;34.80;380;03.42.39.678
12896;171033;34.80;381;03.42.39.678
12908;171033;34.80;382;03.42.39.678
12928;171039;34.80;383;03.42.39.678
12888;171039;34.80;384;03.42.39.689
12928;171036;34.80;385;03.42.39.689
12908;171044;34.80;386;03.42.39.689
12884;171042;34.80;387;03.42.39.689
12876;171046;34.80;388;03.42.39.689
12876;171043;34.80;389;03.42.39.689
12892;171047;34.80;390;03.42.39.689
12888;171047;34.80;391;03.42.39.689
12896;171049;34.80;392;03.42.39.689
12920;171050;34.80;393;03.42.39.689
12892;171050;34.80;394;03.42.39.689
12908;171047;34.80;395;03.42.39.689
12928;171051;34.80;396;03.42.39.689
12936;171056;34.80;397;03.42.39.700
12928;171062;34.80;398;03.42.39.700
12916;171060;34.80;399;03.42.39.700
12908;171064;34.76;400;03.42.39.810
12896;171060;34.76;401;03.42.39.810
12892;171060;34.76;402;03.42.39.810
12884;171067;34.76;403;03.42.39.810
12908;171066;34.76;404;03.42.39.810
12896;171067;34.76;405;03.42.39.811
12884;171068;34.76;406;03.42.39.822
12908;171068;34.76;407;03.42.39.822
12908;171072;34.76;408;03.42.39.822
12928;171066;34.76;409;03.42.39.822
12912;171066;34.76;410;03.42.39.822
12888;171067;34.76;411;03.42.39.822
12892;171056;34.76;412;03.42.39.822
12892;171056;34.76;413;03.42.39.822
12912;171058;34.76;414;03.42.39.822
12920;171048;34.76;415;03.42.39.822
12880;171042;34.76;416;03.42.39.822
12904;171043;34.76;417;03.42.39.854
12892;171029;34.76;418;03.42.39.854
12920;171025;34.76;419;03.42.39.854
12900;171027;34.76;420;03.42.39.854
12900;171023;34.76;421;03.42.39.854
12924;171020;34.76;422;03.42.39.854
12908;171018;34.76;423;03.42.39.865
12936;171002;34.76;424;03.42.39.865
12892;171010;34.76;425;03.42.39.942
12872;171003;34.76;426;03.42.39.942
12924;171011;34.76;427;03.42.39.953
12920;171000;34.76;428;03.42.39.953
12896;170997;34.76;429;03.42.39.953
12908;170995;34.76;430;03.42.39.953
12900;170988;34.76;431;03.42.39.953
12896;170993;34.76;432;03.42.39.953
12920;170994;34.76;433;03.42.39.953
12912;170987;34.76;434;03.42.39.953
12900;170984;34.76;435;03.42.39.953
12912;170988;34.76;436;03.42.39.953
12908;170973;34.76;437;03.42.39.953
12896;170980;34.76;438;03.42.39.953
12896;170981;34.76;439;03.42.39.953
12876;170981;34.76;440;03.42.39.964
12896;170983;34.76;441;03.42.39.964
12904;170972;34.76;442;03.42.39.986
12888;170978;34.76;443;03.42.39.986
12904;170976;34.76;444;03.42.39.997
12892;170975;34.76;445;03.42.39.997
12932;170976;34.76;446;03.42.39.997
12896;170975;34.76;447;03.42.39.997
12880;170981;34.76;448;03.42.39.997
12916;170968;34.76;449;03.42.39.997
12912;170978;34.76;450;03.42.40.084
12888;170976;34.76;451;03.42.40.084
12892;170978;34.76;452;03.42.40.084
12888;170976;34.76;453;03.42.40.084
12892;170974;34.76;454;03.42.40.084
12904;170979;34.76;455;03.42.40.084
12912;170965;34.76;456;03.42.40.084
12920;170970;34.76;457;03.42.40.084
12932;170979;34.76;458;03.42.40.084
12904;170986;34.76;459;03.42.40.084
12912;170986;34.76;460;03.42.40.084
12904;170991;34.76;461;03.42.40.095
12896;170983;34.76;462;03.42.40.095
12920;170983;34.76;463;03.42.40.095
12916;170977;34.76;464;03.42.40.095
12892;170990;34.76;465;03.42.40.095
12900;170989;34.76;466;03.42.40.095
12896;170981;34.76;467;03.42.40.095
12892;170987;34.76;468;03.42.40.095
12900;170974;34.76;469;03.42.40.095
12948;170978;34.76;470;03.42.40.095
12900;170978;34.76;471;03.42.40.095
12892;170983;34.76;472;03.42.40.095
12884;170981;34.76;473;03.42.40.095
12892;170985;34.76;474;03.42.40.106
12904;170978;34.76;475;03.42.40.183
12920;170982;34.76;476;03.42.40.183
12884;170975;34.76;477;03.42.40.183
12904;170989;34.76;478;03.42.40.183
12876;170979;34.76;479;03.42.40.183
12904;170985;34.76;480;03.42.40.183
12880;170977;34.76;481;03.42.40.183
12908;170981;34.76;482;03.42.40.183
12920;170984;34.76;483;03.42.40.205
12892;170982;34.76;484;03.42.40.205
12888;170982;34.76;485;03.42.40.205
12888;170992;34.76;486;03.42.40.205
12884;170974;34.76;487;03.42.40.205
12896;170982;34.76;488;03.42.40.205
12936;170982;34.76;489;03.42.40.205
12920;170982;34.76;490;03.42.40.205
12916;170985;34.76;491;03.42.40.216
12896;170980;34.76;492;03.42.40.216
12892;170981;34.76;493;03.42.40.216
12924;170981;34.76;494;03.42.40.216
12880;170982;34.76;495;03.42.40.216
12928;170984;34.76;496;03.42.40.216
12912;170985;34.76;497;03.42.40.216
12912;170989;34.76;498;03.42.40.216
12928;170982;34.76;499;03.42.40.216
12884;170986;34.76;500;03.42.40.315
12904;170987;34.76;501;03.42.40.315
12924;170988;34.76;502;03.42.40.315
12908;170991;34.76;503;03.42.40.315
12900;170989;34.76;504;03.42.40.326
12892;170987;34.76;505;03.42.40.326
12892;170995;34.76;506;03.42.40.326
12896;171006;34.76;507;03.42.40.326
12892;171001;34.76;508;03.42.40.326
12944;171000;34.76;509;03.42.40.326
12920;170993;34.76;510;03.42.40.326
12900;170990;34.76;511;03.42.40.326
12884;171003;34.76;512;03.42.40.326
12884;171002;34.76;513;03.42.40.326
12900;171000;34.76;514;03.42.40.326
12888;171008;34.76;515;03.42.40.326
12908;171006;34.76;516;03.42.40.326
12916;171016;34.76;517;03.42.40.326
12896;171010;34.76;518;03.42.40.338
12912;171013;34.76;519;03.42.40.338
12884;171013;34.76;520;03.42.40.338
12928;171015;34.76;521;03.42.40.338
12916;171016;34.76;522;03.42.40.338
12912;171014;34.76;523;03.42.40.338
12904;171017;34.76;524;03.42.40.338
12884;171022;34.76;525;03.42.40.438
12920;171029;34.76;526;03.42.40.438
12900;171026;34.76;527;03.42.40.449
12872;171016;34.76;528;03.42.40.449
12892;171024;34.76;529;03.42.40.449
12876;171027;34.76;530;03.42.40.449
12896;171027;34.76;531;03.42.40.449
12872;171029;34.76;532;03.42.40.449
12904;171032;34.76;533;03.42.40.449
12896;171037;34.76;534;03.42.40.449
12904;171027;34.76;535;03.42.40.449
12920;171037;34.76;536;03.42.40.449
12912;171031;34.76;537;03.42.40.449
12912;171038;34.76;538;03.42.40.449
12904;171027;34.76;539;03.42.40.449
12892;171036;34.76;540;03.42.40.449
12888;171039;34.76;541;03.42.40.459
12904;171038;34.76;542;03.42.40.459
12908;171038;34.76;543;03.42.40.459
12888;171041;34.76;544;03.42.40.459
12892;171039;34.76;545;03.42.40.459
12892;171048;34.76;546;03.42.40.459
12884;171049;34.76;547;03.42.40.459
12860;171052;34.76;548;03.42.40.459
12904;171044;34.76;549;03.42.40.459
12880;171046;34.76;550;03.42.40.580
12912;171045;34.76;551;03.42.40.580
12884;171045;34.76;552;03.42.40.580
12884;171053;34.76;553;03.42.40.580
12860;171054;34.76;554;03.42.40.580
12896;171046;34.76;555;03.42.40.580
12896;171056;34.76;556;03.42.40.580
12876;171051;34.76;557;03.42.40.580
12888;171052;34.76;558;03.42.40.580
12900;171056;34.76;559;03.42.40.580
12868;171063;34.76;560;03.42.40.580
12888;171056;34.76;561;03.42.40.591
12904;171070;34.76;562;03.42.40.591
12892;171068;34.76;563;03.42.40.591
12896;171064;34.76;564;03.42.40.591
12916;171063;34.76;565;03.42.40.591
12892;171067;34.76;566;03.42.40.591
12932;171073;34.76;567;03.42.40.591
12924;171061;34.76;568;03.42.40.591
12912;171074;34.76;569;03.42.40.591
12892;171071;34.76;570;03.42.40.591
12900;171070;34.76;571;03.42.40.591
12912;171075;34.76;572;03.42.40.591
12888;171080;34.76;573;03.42.40.591
12880;171080;34.76;574;03.42.40.602
12896;171079;34.76;575;03.42.40.679
12888;171075;34.76;576;03.42.40.679
12892;171076;34.76;577;03.42.40.679
12908;171084;34.76;578;03.42.40.679
12904;171083;34.76;579;03.42.40.679
12904;171091;34.76;580;03.42.40.679
12924;171082;34.76;581;03.42.40.679
12912;171090;34.76;582;03.42.40.679
12900;171092;34.76;583;03.42.40.723
12892;171078;34.76;584;03.42.40.723
12904;171076;34.76;585;03.42.40.723
12904;171078;34.76;586;03.42.40.723
12892;171076;34.76;587;03.42.40.723
12916;171080;34.76;588;03.42.40.723
12888;171068;34.76;589;03.42.40.723
12892;171058;34.76;590;03.42.40.723
12884;171053;34.76;591;03.42.40.723
12908;171059;34.76;592;03.42.40.734
12900;171056;34.76;593;03.42.40.734
12896;171047;34.76;594;03.42.40.734
12916;171041;34.76;595;03.42.40.734
12872;171040;34.76;596;03.42.40.734
12912;171039;34.76;597;03.42.40.734
12920;171033;34.76;598;03.42.40.734
12876;171032;34.76;599;03.42.40.734
12860;171024;34.76;600;03.42.40.800
12900;171023;34.76;601;03.42.40.800
12912;171018;34.76;602;03.42.40.800
12884;171016;34.76;603;03.42.40.800
12892;171014;34.76;604;03.42.40.811
12892;171016;34.76;605;03.42.40.811
12888;171015;34.76;606;03.42.40.811
12896;171010;34.76;607;03.42.40.811
12904;171004;34.76;608;03.42.40.811
12876;171000;34.76;609;03.42.40.811
12912;170997;34.76;610;03.42.40.811
12912;170996;34.76;611;03.42.40.811
12916;171000;34.76;612;03.42.40.811
12928;171005;34.76;613;03.42.40.811
12900;170993;34.76;614;03.42.40.811
12892;170994;34.76;615;03.42.40.811
12912;170989;34.76;616;03.42.40.811
12900;171001;34.76;617;03.42.40.811
12892;170988;34.76;618;03.42.40.822
12884;170988;34.76;619;03.42.40.822
12892;170988;34.76;620;03.42.40.822
12912;170991;34.76;621;03.42.40.822
12892;170988;34.76;622;03.42.40.822
12904;170982;34.76;623;03.42.40.822
12904;170987;34.76;624;03.42.40.822
12892;170990;34.76;625;03.42.40.941
12880;170981;34.76;626;03.42.40.941
12872;170983;34.76;627;03.42.40.941
12892;170991;34.76;628;03.42.40.941
12896;170990;34.76;629;03.42.40.941
12896;170989;34.76;630;03.42.40.941
12892;170986;34.76;631;03.42.40.941
12876;170994;34.76;632;03.42.40.941
12912;170994;34.76;633;03.42.40.941
12924;170990;34.76;634;03.42.40.941
12912;170992;34.76;635;03.42.40.941
12916;170997;34.76;636;03.42.40.941
12916;170991;34.76;637;03.42.40.952
12888;170995;34.76;638;03.42.40.952
12896;170989;34.76;639;03.42.40.952
12928;170990;34.76;640;03.42.40.952
12908;170995;34.76;641;03.42.40.952
12924;170989;34.76;642;03.42.40.952
12912;170993;34.76;643;03.42.40.952
12896;170998;34.76;644;03.42.40.952
12904;171004;34.76;645;03.42.40.952
12892;170993;34.76;646;03.42.40.952
12860;170996;34.76;647;03.42.40.952
12904;170993;34.76;648;03.42.40.952
12932;170997;34.76;649;03.42.40.952
12904;170993;34.80;650;03.42.41.072
12916;170992;34.80;651;03.42.41.072
12908;170991;34.80;652;03.42.41.072
12908;170992;34.80;653;03.42.41.072
12928;170990;34.80;654;03.42.41.072
12904;170994;34.80;655;03.42.41.072
12932;170993;34.80;656;03.42.41.072
12904;170992;34.80;657;03.42.41.072
12928;170987;34.80;658;03.42.41.083
12908;170984;34.80;659;03.42.41.083
12888;170983;34.80;660;03.42.41.083
12924;170990;34.80;661;03.42.41.083
12892;170998;34.80;662;03.42.41.083
12888;170986;34.80;663;03.42.41.083
12888;170986;34.80;664;03.42.41.083
12916;170976;34.80;665;03.42.41.083
12892;170997;34.80;666;03.42.41.083
12920;170985;34.80;667;03.42.41.083
12884;170987;34.80;668;03.42.41.083
12928;170998;34.80;669;03.42.41.083
12924;171000;34.80;670;03.42.41.083
12896;170995;34.80;671;03.42.41.094
12896;171005;34.80;672;03.42.41.094
12892;170992;34.80;673;03.42.41.094
12908;170995;34.80;674;03.42.41.094
12892;171001;34.80;675;03.42.41.181
12900;170995;34.80;676;03.42.41.181
12900;170996;34.80;677;03.42.41.181
12908;170990;34.80;678;03.42.41.181
12896;170998;34.80;679;03.42.41.192
12888;170999;34.80;680;03.42.41.192
12888;171012;34.80;681;03.42.41.192
12896;171007;34.80;682;03.42.41.192
12896;171008;34.80;683;03.42.41.203
12888;171000;34.80;684;03.42.41.203
12912;171001;34.80;685;03.42.41.203
12928;171002;34.80;686;03.42.41.203
12884;171004;34.80;687;03.42.41.213
12936;171007;34.80;688;03.42.41.213
12924;171017;34.80;689;03.42.41.213
12892;171007;34.80;690;03.42.41.213
12928;171017;34.80;691;03.42.41.213
12888;171013;34.80;692;03.42.41.213
12908;171013;34.80;693;03.42.41.213
12888;171017;34.80;694;03.42.41.224
12888;171012;34.80;695;03.42.41.224
12896;171014;34.80;696;03.42.41.224
12892;171018;34.80;697;03.42.41.224
12888;171021;34.80;698;03.42.41.224
12904;171011;34.80;699;03.42.41.224
12888;171011;34.76;700;03.42.41.311
12928;171025;34.76;701;03.42.41.311
12896;171023;34.76;702;03.42.41.311
12892;171029;34.76;703;03.42.41.311
12896;171027;34.76;704;03.42.41.311
12916;171022;34.76;705;03.42.41.311
12876;171020;34.76;706;03.42.41.311
12860;171030;34.76;707;03.42.41.311
12884;171028;34.76;708;03.42.41.311
12920;171026;34.76;709;03.42.41.311
12908;171035;34.76;710;03.42.41.311
12880;171035;34.76;711;03.42.41.322
12888;171031;34.76;712;03.42.41.322
12920;171041;34.76;713;03.42.41.322
12908;171034;34.76;714;03.42.41.322
12892;171046;34.76;715;03.42.41.322
12920;171040;34.76;716;03.42.41.322
12892;171044;34.76;717;03.42.41.322
12900;171038;34.76;718;03.42.41.322
12908;171051;34.76;719;03.42.41.322
12904;171044;34.76;720;03.42.41.322
12912;171052;34.76;721;03.42.41.322
12888;171048;34.76;722;03.42.41.322
12884;171053;34.76;723;03.42.41.322
12908;171053;34.76;724;03.42.41.322
12912;171059;34.76;725;03.42.41.432
12888;171056;34.76;726;03.42.41.432
12928;171045;34.76;727;03.42.41.432
12896;171057;34.76;728;03.42.41.432
12912;171054;34.76;729;03.42.41.432
12884;171058;34.76;730;03.42.41.432
12916;171064;34.76;731;03.42.41.432
12884;171058;34.76;732;03.42.41.432
12896;171058;34.76;733;03.42.41.443
12900;171060;34.76;734;03.42.41.443
12896;171056;34.76;735;03.42.41.443
12884;171063;34.76;736;03.42.41.443
12908;171059;34.76;737;03.42.41.443
12916;171073;34.76;738;03.42.41.443
12888;171065;34.76;739;03.42.41.443
12900;171066;34.76;740;03.42.41.443
12904;171074;34.76;741;03.42.41.443
12900;171073;34.76;742;03.42.41.443
12876;171074;34.76;743;03.42.41.443
12892;171079;34.76;744;03.42.41.443
12924;171081;34.76;745;03.42.41.443
12892;171081;34.76;746;03.42.41.454
12892;171082;34.76;747;03.42.41.454
12872;171083;34.76;748;03.42.41.454
12892;171080;34.76;749;03.42.41.454
12924;171083;34.80;750;03.42.41.563
12892;171083;34.80;751;03.42.41.563
12896;171076;34.80;752;03.42.41.563
12908;171081;34.80;753;03.42.41.574
12896;171087;34.80;754;03.42.41.574
12904;171090;34.80;755;03.42.41.574
12876;171080;34.80;756;03.42.41.574
12908;171086;34.80;757;03.42.41.574
12896;171083;34.80;758;03.42.41.574
12876;171072;34.80;759;03.42.41.574
12880;171085;34.80;760;03.42.41.574
12900;171075;34.80;761;03.42.41.574
12912;171068;34.80;762;03.42.41.574
12928;171056;34.80;763;03.42.41.574
12908;171069;34.80;764;03.42.41.574
12904;171055;34.80;765;03.42.41.574
12900;171057;34.80;766;03.42.41.574
12928;171052;34.80;767;03.42.41.575
12860;171042;34.80;768;03.42.41.586
12896;171043;34.80;769;03.42.41.586
12912;171036;34.80;770;03.42.41.586
12880;171026;34.80;771;03.42.41.586
12924;171021;34.80;772;03.42.41.586
12896;171021;34.80;773;03.42.41.586
12916;171023;34.80;774;03.42.41.586
12928;171010;34.80;775;03.42.41.674
12904;171018;34.80;776;03.42.41.685
12884;171016;34.80;777;03.42.41.685
12928;171012;34.80;778;03.42.41.685
12896;171002;34.80;779;03.42.41.685
12928;170997;34.80;780;03.42.41.685
12904;170998;34.80;781;03.42.41.685
12920;171004;34.80;782;03.42.41.685
12908;171004;34.80;783;03.42.41.707
12912;171008;34.80;784;03.42.41.718
12876;171005;34.80;785;03.42.41.718
12904;170999;34.80;786;03.42.41.718
12912;170998;34.80;787;03.42.41.718
12884;171009;34.80;788;03.42.41.718
12904;171003;34.80;789;03.42.41.718
12900;170996;34.80;790;03.42.41.718
12900;170998;34.80;791;03.42.41.718
12884;170993;34.80;792;03.42.41.718
12912;170995;34.80;793;03.42.41.718
12904;171001;34.80;794;03.42.41.718
12876;170992;34.80;795;03.42.41.718
12912;170993;34.80;796;03.42.41.718
12904;170995;34.80;797;03.42.41.729
12928;170993;34.80;798;03.42.41.729
12916;170992;34.80;799;03.42.41.729
12904;170991;34.76;800;03.42.41.806
12908;170989;34.76;801;03.42.41.806
12900;170982;34.76;802;03.42.41.806
12908;170985;34.76;803;03.42.41.806
12896;170988;34.76;804;03.42.41.806
12892;170991;34.76;805;03.42.41.806
12872;170984;34.76;806;03.42.41.806
12896;170993;34.76;807;03.42.41.806
12928;170991;34.76;808;03.42.41.828
12912;170990;34.76;809;03.42.41.828
12892;170988;34.76;810;03.42.41.828
12900;170991;34.76;811;03.42.41.828
12920;170992;34.76;812;03.42.41.828
12916;170986;34.76;813;03.42.41.828
12908;170987;34.76;814;03.42.41.828
12896;170989;34.76;815;03.42.41.828
12892;170993;34.76;816;03.42.41.828
12912;170987;34.76;817;03.42.41.839
12912;170999;34.76;818;03.42.41.839
12884;170988;34.76;819;03.42.41.839
12884;170984;34.76;820;03.42.41.839
12904;170982;34.76;821;03.42.41.839
12888;170993;34.76;822;03.42.41.839
12892;170981;34.76;823;03.42.41.839
12936;170984;34.76;824;03.42.41.839
12884;170983;34.76;825;03.42.41.926
12892;170988;34.76;826;03.42.41.926
12892;170990;34.76;827;03.42.41.926
12900;170984;34.76;828;03.42.41.926
12908;170983;34.76;829;03.42.41.926
12896;170987;34.76;830;03.42.41.926
12912;170981;34.76;831;03.42.41.926
12900;170983;34.76;832;03.42.41.937
12892;170973;34.76;833;03.42.41.937
12912;170984;34.76;834;03.42.41.937
12892;170985;34.76;835;03.42.41.937
12896;170984;34.76;836;03.42.41.937
12908;170994;34.76;837;03.42.41.937
12892;170994;34.76;838;03.42.41.937
12900;170985;34.76;839;03.42.41.937
12888;170990;34.76;840;03.42.41.937
12916;170995;34.76;841;03.42.41.937
12932;170995;34.76;842;03.42.41.937
12904;170996;34.76;843;03.42.41.937
12888;170993;34.76;844;03.42.41.937
12904;171001;34.76;845;03.42.41.948
12904;170996;34.76;846;03.42.41.948
12904;171001;34.76;847;03.42.41.948
12884;171004;34.76;848;03.42.41.948
12892;170999;34.76;849;03.42.41.948
12928;170998;34.80;850;03.42.42.069
12892;170998;34.80;851;03.42.42.069
12896;171001;34.80;852;03.42.42.069
12884;171009;34.80;853;03.42.42.080
12892;171010;34.80;854;03.42.42.080
12904;171002;34.80;855;03.42.42.080
12892;171006;34.80;856;03.42.42.080
12892;171005;34.80;857;03.42.42.080
12900;171001;34.80;858;03.42.42.080
12884;171004;34.80;859;03.42.42.080
12904;171003;34.80;860;03.42.42.080
12896;171014;34.80;861;03.42.42.091
12920;171007;34.80;862;03.42.42.091
12904;171013;34.80;863;03.42.42.091
12928;171015;34.80;864;03.42.42.091
12916;171015;34.80;865;03.42.42.091
12912;171013;34.80;866;03.42.42.091
12900;171019;34.80;867;03.42.42.102
12908;171024;34.80;868;03.42.42.102
12892;171021;34.80;869;03.42.42.102
12936;171021;34.80;870;03.42.42.113
12884;171018;34.80;871;03.42.42.113
12904;171027;34.80;872;03.42.42.113
12928;171022;34.80;873;03.42.42.113
12916;171026;34.80;874;03.42.42.113
12884;171029;34.80;875;03.42.42.201
12892;171029;34.80;876;03.42.42.201
12932;171034;34.80;877;03.42.42.201
12908;171024;34.80;878;03.42.42.201
12872;171023;34.80;879;03.42.42.201
12892;171021;34.80;880;03.42.42.201
12892;171032;34.80;881;03.42.42.201
12900;171027;34.80;882;03.42.42.201
12928;171037;34.80;883;03.42.42.201
12920;171039;34.80;884;03.42.42.212
12884;171030;34.80;885;03.42.42.212
12900;171042;34.80;886;03.42.42.212
12880;171034;34.80;887;03.42.42.212
12892;171044;34.80;888;03.42.42.212
12880;171049;34.80;889;03.42.42.212
12920;171040;34.80;890;03.42.42.212
12884;171040;34.80;891;03.42.42.212
12900;171050;34.80;892;03.42.42.212
12896;171050;34.80;893;03.42.42.212
12920;171049;34.80;894;03.42.42.212
12896;171054;34.80;895;03.42.42.212
12888;171052;34.80;896;03.42.42.212
12884;171053;34.80;897;03.42.42.223
12900;171057;34.80;898;03.42.42.223
12960;171056;34.80;899;03.42.42.223
12892;171054;34.76;900;03.42.42.310
12904;171058;34.76;901;03.42.42.310
12920;171060;34.76;902;03.42.42.310
12888;171059;34.76;903;03.42.42.310
12936;171058;34.76;904;03.42.42.310
12928;171068;34.76;905;03.42.42.310
12896;171062;34.76;906;03.42.42.310
12916;171065;34.76;907;03.42.42.310
12904;171062;34.76;908;03.42.42.332
12912;171064;34.76;909;03.42.42.332
12900;171067;34.76;910;03.42.42.332
12884;171064;34.76;911;03.42.42.332
12892;171073;34.76;912;03.42.42.332
12932;171067;34.76;913;03.42.42.332
12908;171078;34.76;914;03.42.42.332
12888;171078;34.76;915;03.42.42.332
12892;171074;34.76;916;03.42.42.332
12928;171070;34.76;917;03.42.42.343
12908;171078;34.76;918;03.42.42.343
12928;171077;34.76;919;03.42.42.343
12888;171077;34.76;920;03.42.42.343
12932;171084;34.76;921;03.42.42.343
12908;171083;34.76;922;03.42.42.343
12892;171084;34.76;923;03.42.42.343
12936;171084;34.76;924;03.42.42.343
12896;171085;34.76;925;03.42.42.431
12916;171078;34.76;926;03.42.42.431
12876;171068;34.76;927;03.42.42.431
12900;171068;34.76;928;03.42.42.431
12876;171055;34.76;929;03.42.42.431
12900;171056;34.76;930;03.42.42.442
12892;171051;34.76;931;03.42.42.442
12892;171055;34.76;932;03.42.42.442
12904;171043;34.76;933;03.42.42.442
12916;171042;34.76;934;03.42.42.442
12904;171031;34.76;935;03.42.42.442
12900;171032;34.76;936;03.42.42.442
12912;171022;34.76;937;03.42.42.442
12920;171022;34.76;938;03.42.42.442
12904;171016;34.76;939;03.42.42.442
12892;171010;34.76;940;03.42.42.442
12892;171016;34.76;941;03.42.42.442
12904;171006;34.76;942;03.42.42.442
12904;171002;34.76;943;03.42.42.453
12884;170998;34.76;944;03.42.42.453
12900;170995;34.76;945;03.42.42.453
12908;170991;34.76;946;03.42.42.453
12892;170995;34.76;947;03.42.42.453
12904;170996;34.76;948;03.42.42.453
12932;170984;34.76;949;03.42.42.453
12912;170984;34.76;950;03.42.42.552
12900;170987;34.76;951;03.42.42.563
12908;170984;34.76;952;03.42.42.563
12944;170985;34.76;953;03.42.42.563
12944;170975;34.76;954;03.42.42.563
12928;170982;34.76;955;03.42.42.563
12916;170977;34.76;956;03.42.42.563
12888;170978;34.76;957;03.42.42.563
12908;170973;34.76;958;03.42.42.563
12896;170980;34.76;959;03.42.42.563
12900;170979;34.76;960;03.42.42.563
12912;170983;34.76;961;03.42.42.563
12904;170982;34.76;962;03.42.42.563
12896;170980;34.76;963;03.42.42.563
12912;170976;34.76;964;03.42.42.573
12884;170982;34.76;965;03.42.42.573
12892;170975;34.76;966;03.42.42.573
12904;170982;34.76;967;03.42.42.573
12876;170977;34.76;968;03.42.42.573
12904;170981;34.76;969;03.42.42.573
12904;170982;34.76;970;03.42.42.573
12928;170980;34.76;971;03.42.42.573
12912;170971;34.76;972;03.42.42.573
12928;170979;34.76;973;03.42.42.573
12904;170977;34.76;974;03.42.42.573
12884;170984;34.76;975;03.42.42.693
12928;170989;34.76;976;03.42.42.693
12896;170981;34.76;977;03.42.42.693
12924;170982;34.76;978;03.42.42.693
12900;170977;34.76;979;03.42.42.693
12892;170981;34.76;980;03.42.42.693
12916;170984;34.76;981;03.42.42.693
12892;170990;34.76;982;03.42.42.693
12916;170977;34.76;983;03.42.42.693
12904;170981;34.76;984;03.42.42.704
12860;170988;34.76;985;03.42.42.704
12928;170985;34.76;986;03.42.42.704
12896;170978;34.76;987;03.42.42.704
12924;170979;34.76;988;03.42.42.704
12928;170978;34.76;989;03.42.42.704
12908;170978;34.76;990;03.42.42.704
12908;170979;34.76;991;03.42.42.704
12940;170982;34.76;992;03.42.42.704
12904;170978;34.76;993;03.42.42.704
12912;170984;34.76;994;03.42.42.704
12924;170991;34.76;995;03.42.42.704
12892;170975;34.76;996;03.42.42.704
12908;170989;34.76;997;03.42.42.715
12928;170982;34.76;998;03.42.42.715
12896;170984;34.76;999;03.42.42.715
12900;170987;34.76;000;03.42.42.813
12936;170993;34.76;001;03.42.42.813
12892;170988;34.76;002;03.42.42.813
12928;170994;34.76;003;03.42.42.813
12884;170978;34.76;004;03.42.42.814
12924;170986;34.76;005;03.42.42.814
12908;170989;34.76;006;03.42.42.826
12900;170992;34.76;007;03.42.42.826
12928;170993;34.76;008;03.42.42.826
12944;170992;34.76;009;03.42.42.826
12900;170991;34.76;010;03.42.42.826
12892;170995;34.76;011;03.42.42.826
12896;170989;34.76;012;03.42.42.826
12920;170998;34.76;013;03.42.42.826
12904;170990;34.76;014;03.42.42.826
12904;170992;34.76;015;03.42.42.826
12896;170999;34.76;016;03.42.42.826
12908;170992;34.76;017;03.42.42.826
12896;170996;34.76;018;03.42.42.826
12916;170992;34.76;019;03.42.42.826
12888;170998;34.76;020;03.42.42.837
12928;170993;34.76;021;03.42.42.837
12904;170990;34.76;022;03.42.42.837
12912;170986;34.76;023;03.42.42.837
12936;170986;34.76;024;03.42.42.837
12900;170997;34.76;025;03.42.42.925
12928;170990;34.76;026;03.42.42.925
12912;170992;34.76;027;03.42.42.925
12892;170999;34.76;028;03.42.42.925
12912;170991;34.76;029;03.42.42.936
12932;170986;34.76;030;03.42.42.936
12908;170987;34.76;031;03.42.42.936
12892;170988;34.76;032;03.42.42.936
12928;170994;34.76;033;03.42.42.936
12888;170996;34.76;034;03.42.42.936
12912;170995;34.76;035;03.42.42.936
12900;170993;34.76;036;03.42.42.936
12928;171000;34.76;037;03.42.42.936
12880;171000;34.76;038;03.42.42.936
12900;171000;34.76;039;03.42.42.936
12908;171010;34.76;040;03.42.42.936
12912;171010;34.76;041;03.42.42.936
12896;171013;34.76;042;03.42.42.947
12916;171005;34.76;043;03.42.42.947
12892;171011;34.76;044;03.42.42.947
12892;171013;34.76;045;03.42.42.947
12896;171012;34.76;046;03.42.42.947
12936;171008;34.76;047;03.42.42.947
12908;171005;34.76;048;03.42.42.947
12900;171014;34.76;049;03.42.42.947
12892;171015;34.80;050;03.42.43.067
12892;171013;34.80;051;03.42.43.067
12916;171012;34.80;052;03.42.43.067
12888;171007;34.80;053;03.42.43.067
12892;171009;34.80;054;03.42.43.067
12876;171014;34.80;055;03.42.43.067
12892;171009;34.80;056;03.42.43.067
12892;171023;34.80;057;03.42.43.067
12880;171014;34.80;058;03.42.43.067
12896;171023;34.80;059;03.42.43.067
12936;171018;34.80;060;03.42.43.067
12912;171014;34.80;061;03.42.43.067
12908;171020;34.80;062;03.42.43.078
12908;171022;34.80;063;03.42.43.078
12912;171026;34.80;064;03.42.43.078
12876;171016;34.80;065;03.42.43.078
12920;171017;34.80;066;03.42.43.078
12908;171025;34.80;067;03.42.43.078
12912;171021;34.80;068;03.42.43.078
12928;171031;34.80;069;03.42.43.078
12896;171035;34.80;070;03.42.43.078
12892;171029;34.80;071;03.42.43.078
12928;171030;34.80;072;03.42.43.078
12880;171031;34.80;073;03.42.43.078
12916;171035;34.80;074;03.42.43.089
12928;171029;34.80;075;03.42.43.197
12920;171036;34.80;076;03.42.43.197
12928;171038;34.80;077;03.42.43.197
12892;171031;34.80;078;03.42.43.197
12928;171029;34.80;079;03.42.43.197
12928;171030;34.80;080;03.42.43.197
12900;171037;34.80;081;03.42.43.208
12928;171027;34.80;082;03.42.43.208
12916;171036;34.80;083;03.42.43.208
12920;171028;34.80;084;03.42.43.208
12896;171029;34.80;085;03.42.43.208
12892;171020;34.80;086;03.42.43.208
12928;171027;34.80;087;03.42.43.208
12892;171024;34.80;088;03.42.43.208
12896;171012;34.80;089;03.42.43.208
12888;171010;34.80;090;03.42.43.208
12892;171006;34.80;091;03.42.43.208
12916;171000;34.80;092;03.42.43.208
12932;171001;34.80;093;03.42.43.208
12944;170992;34.80;094;03.42.43.208
12908;170988;34.80;095;03.42.43.219
12912;170990;34.80;096;03.42.43.219
12944;170984;34.80;097;03.42.43.219
12896;170978;34.80;098;03.42.43.219
12928;170972;34.80;099;03.42.43.219
12888;170965;34.80;100;03.42.43.328
12884;170981;34.80;101;03.42.43.328
12932;170970;34.80;102;03.42.43.339
12904;170963;34.80;103;03.42.43.339
12892;170954;34.80;104;03.42.43.339
12908;170969;34.80;105;03.42.43.339
12892;170967;34.80;106;03.42.43.339
12904;170961;34.80;107;03.42.43.339
12912;170954;34.80;108;03.42.43.339
12904;170961;34.80;109;03.42.43.339
12944;170959;34.80;110;03.42.43.339
12912;170950;34.80;111;03.42.43.339
12904;170941;34.80;112;03.42.43.339
12924;170943;34.80;113;03.42.43.339
12900;170948;34.80;114;03.42.43.339
12904;170944;34.80;115;03.42.43.350
12928;170940;34.80;116;03.42.43.350
12892;170953;34.80;117;03.42.43.350
12904;170948;34.80;118;03.42.43.350
12920;170947;34.80;119;03.42.43.350
12900;170942;34.80;120;03.42.43.350
12904;170937;34.80;121;03.42.43.350
12928;170942;34.80;122;03.42.43.350
12908;170937;34.80;123;03.42.43.350
12904;170941;34.80;124;03.42.43.350
12920;170936;34.80;125;03.42.43.438
12896;170933;34.80;126;03.42.43.438
12892;170933;34.80;127;03.42.43.438
12912;170941;34.80;128;03.42.43.438
12912;170927;34.80;129;03.42.43.438
12928;170941;34.80;130;03.42.43.438
12920;170937;34.80;131;03.42.43.438
12912;170944;34.80;132;03.42.43.438
12916;170938;34.80;133;03.42.43.449
12916;170946;34.80;134;03.42.43.449
12912;170927;34.80;135;03.42.43.449
12904;170944;34.80;136;03.42.43.449
12892;170942;34.80;137;03.42.43.449
12900;170930;34.80;138;03.42.43.449
12892;170945;34.80;139;03.42.43.449
12912;170939;34.80;140;03.42.43.449
12900;170936;34.80;141;03.42.43.449
12912;170937;34.80;142;03.42.43.449
12908;170932;34.80;143;03.42.43.449
12920;170937;34.80;144;03.42.43.460
12900;170929;34.80;145;03.42.43.460
12888;170937;34.80;146;03.42.43.460
12904;170937;34.80;147;03.42.43.460
12884;170936;34.80;148;03.42.43.460
12916;170926;34.80;149;03.42.43.460
12892;170939;34.76;150;03.42.43.559
12920;170933;34.76;151;03.42.43.559
12908;170934;34.76;152;03.42.43.559
12920;170938;34.76;153;03.42.43.559
12896;170927;34.76;154;03.42.43.559
12900;170929;34.76;155;03.42.43.559
12896;170922;34.76;156;03.42.43.559
12912;170929;34.76;157;03.42.43.559
12884;170929;34.76;158;03.42.43.570
12900;170932;34.76;159;03.42.43.570
12892;170929;34.76;160;03.42.43.570
12928;170925;34.76;161;03.42.43.570
12908;170925;34.76;162;03.42.43.570
12928;170927;34.76;163;03.42.43.570
12888;170929;34.76;164;03.42.43.570
12892;170923;34.76;165;03.42.43.570
12884;170915;34.76;166;03.42.43.570
12904;170920;34.76;167;03.42.43.570
12912;170930;34.76;168;03.42.43.570
12904;170925;34.76;169;03.42.43.570
12888;170932;34.76;170;03.42.43.570
12908;170933;34.76;171;03.42.43.581
12912;170941;34.76;172;03.42.43.581
12912;170935;34.76;173;03.42.43.581
12904;170930;34.76;174;03.42.43.581
12912;170937;34.76;175;03.42.43.701
12884;170934;34.76;176;03.42.43.701
12916;170938;34.76;177;03.42.43.701
12892;170937;34.76;178;03.42.43.701
12908;170942;34.76;179;03.42.43.712
12896;170936;34.76;180;03.42.43.712
12900;170943;34.76;181;03.42.43.712
12884;170944;34.76;182;03.42.43.712
12900;170943;34.76;183;03.42.43.712
12876;170955;34.76;184;03.42.43.712
12900;170958;34.76;185;03.42.43.712
12908;170955;34.76;186;03.42.43.712
12892;170949;34.76;187;03.42.43.712
12908;170953;34.76;188;03.42.43.723
12904;170955;34.76;189;03.42.43.723
12912;170957;34.76;190;03.42.43.723
12860;170963;34.76;191;03.42.43.723
12896;170959;34.76;192;03.42.43.734
12904;170955;34.76;193;03.42.43.734
12892;170970;34.76;194;03.42.43.734
12928;170968;34.76;195;03.42.43.734
12928;170964;34.76;196;03.42.43.745
12928;170960;34.76;197;03.42.43.745
12932;170964;34.76;198;03.42.43.745
12908;170965;34.76;199;03.42.43.745
12916;170963;34.80;200;03.42.43.800
12900;170971;34.80;201;03.42.43.812
12896;170968;34.80;202;03.42.43.812
12912;170970;34.80;203;03.42.43.812
12928;170958;34.80;204;03.42.43.812
12912;170966;34.80;205;03.42.43.812
12888;170963;34.80;206;03.42.43.812
12928;170967;34.80;207;03.42.43.812
12904;170966;34.80;208;03.42.43.812
12860;170966;34.80;209;03.42.43.812
12900;170977;34.80;210;03.42.43.812
12888;170977;34.80;211;03.42.43.812
12892;170978;34.80;212;03.42.43.812
12900;170977;34.80;213;03.42.43.812
12936;170983;34.80;214;03.42.43.823
12916;170977;34.80;215;03.42.43.823
12912;170983;34.80;216;03.42.43.823
12928;170982;34.80;217;03.42.43.834
12932;170979;34.80;218;03.42.43.834
12924;170988;34.80;219;03.42.43.845
12884;170987;34.80;220;03.42.43.845
12896;170986;34.80;221;03.42.43.845
12900;170985;34.80;222;03.42.43.845
12892;170994;34.80;223;03.42.43.845
12892;170995;34.80;224;03.42.43.845
12896;170995;34.80;225;03.42.43.933
12928;170990;34.80;226;03.42.43.933
12896;170998;34.80;227;03.42.43.933
12892;170999;34.80;228;03.42.43.933
12900;171006;34.80;229;03.42.43.933
12916;171005;34.80;230;03.42.43.933
12928;170998;34.80;231;03.42.43.933
12928;171004;34.80;232;03.42.43.933
12916;171005;34.80;233;03.42.43.933
12880;171003;34.80;234;03.42.43.933
12908;171001;34.80;235;03.42.43.933
12904;171010;34.80;236;03.42.43.933
12908;171008;34.80;237;03.42.43.933
12896;171007;34.80;238;03.42.43.945
12868;171012;34.80;239;03.42.43.945
12904;171007;34.80;240;03.42.43.945
12888;171013;34.80;241;03.42.43.945
12928;171005;34.80;242;03.42.43.967
12900;171008;34.80;243;03.42.43.967
12908;170999;34.80;244;03.42.43.967
12904;170999;34.80;245;03.42.43.967
12912;170998;34.80;246;03.42.43.967
12916;170986;34.80;247;03.42.43.967
12904;170979;34.80;248;03.42.43.967
12920;170973;34.80;249;03.42.43.967
12904;170978;34.76;250;03.42.44.054
12916;170977;34.76;251;03.42.44.054
12912;170975;34.76;252;03.42.44.054
12920;170963;34.76;253;03.42.44.054
12908;170965;34.76;254;03.42.44.054
12912;170959;34.76;255;03.42.44.054
12896;170951;34.76;256;03.42.44.054
12928;170954;34.76;257;03.42.44.054
12912;170950;34.76;258;03.42.44.054
12940;170946;34.76;259;03.42.44.065
12884;170948;34.76;260;03.42.44.065
12920;170949;34.76;261;03.42.44.065
12928;170942;34.76;262;03.42.44.065
12884;170936;34.76;263;03.42.44.065
12928;170943;34.76;264;03.42.44.065
12940;170933;34.76;265;03.42.44.065
12920;170932;34.76;266;03.42.44.065
12888;170932;34.76;267;03.42.44.065
12908;170932;34.76;268;03.42.44.065
12912;170934;34.76;269;03.42.44.065
12912;170936;34.76;270;03.42.44.065
12920;170930;34.76;271;03.42.44.065
12916;170930;34.76;272;03.42.44.076
12916;170932;34.76;273;03.42.44.076
12904;170927;34.76;274;03.42.44.076
12904;170937;34.76;275;03.42.44.186
12876;170929;34.76;276;03.42.44.186
12916;170927;34.76;277;03.42.44.186
12904;170924;34.76;278;03.42.44.186
12872;170932;34.76;279;03.42.44.186
12908;170926;34.76;280;03.42.44.197
12916;170934;34.76;281;03.42.44.197
12892;170930;34.76;282;03.42.44.197
12892;170929;34.76;283;03.42.44.197
12908;170932;34.76;284;03.42.44.197
12888;170925;34.76;285;03.42.44.197
12904;170928;34.76;286;03.42.44.197
12928;170932;34.76;287;03.42.44.197
12892;170933;34.76;288;03.42.44.197
12888;170934;34.76;289;03.42.44.197
12904;170938;34.76;290;03.42.44.197
12892;170925;34.76;291;03.42.44.197
12908;170930;34.76;292;03.42.44.197
12892;170934;34.76;293;03.42.44.208
12904;170933;34.76;294;03.42.44.208
12904;170938;34.76;295;03.42.44.208
12884;170930;34.76;296;03.42.44.208
12920;170950;34.76;297;03.42.44.208
12912;170948;34.76;298;03.42.44.208
12928;170934;34.76;299;03.42.44.208
12916;170946;34.80;300;03.42.44.318
12892;170939;34.80;301;03.42.44.318
12928;170946;34.80;302;03.42.44.329
12908;170947;34.80;303;03.42.44.329
12912;170942;34.80;304;03.42.44.329
12904;170952;34.80;305;03.42.44.329
12928;170948;34.80;306;03.42.44.329
12912;170950;34.80;307;03.42.44.329
12884;170953;34.80;308;03.42.44.329
12940;170949;34.80;309;03.42.44.329
12904;170946;34.80;310;03.42.44.329
12904;170950;34.80;311;03.42.44.329
12900;170950;34.80;312;03.42.44.329
12912;170942;34.80;313;03.42.44.329
12904;170944;34.80;314;03.42.44.339
12912;170955;34.80;315;03.42.44.339
12896;170942;34.80;316;03.42.44.339
12928;170948;34.80;317;03.42.44.339
12924;170945;34.80;318;03.42.44.339
12900;170950;34.80;319;03.42.44.339
12912;170951;34.80;320;03.42.44.339
12892;170958;34.80;321;03.42.44.339
12920;170951;34.80;322;03.42.44.339
12912;170948;34.80;323;03.42.44.339
12912;170953;34.80;324;03.42.44.339
12900;170952;34.80;325;03.42.44.438
12920;170955;34.80;326;03.42.44.438
12900;170951;34.80;327;03.42.44.438
12932;170957;34.80;328;03.42.44.438
12920;170952;34.80;329;03.42.44.438
12928;170963;34.80;330;03.42.44.438
12920;170954;34.80;331;03.42.44.438
12920;170957;34.80;332;03.42.44.438
12892;170962;34.80;333;03.42.44.438
12904;170959;34.80;334;03.42.44.438
12912;170966;34.80;335;03.42.44.449
12912;170967;34.80;336;03.42.44.449
12916;170962;34.80;337;03.42.44.449
12904;170966;34.80;338;03.42.44.449
12900;170973;34.80;339;03.42.44.449
12892;170965;34.80;340;03.42.44.449
12904;170968;34.80;341;03.42.44.449
12912;170967;34.80;342;03.42.44.460
12908;170964;34.80;343;03.42.44.460
12912;170968;34.80;344;03.42.44.460
12892;170965;34.80;345;03.42.44.460
12904;170971;34.80;346;03.42.44.460
12928;170973;34.80;347;03.42.44.460
12912;170977;34.80;348;03.42.44.460
12920;170970;34.80;349;03.42.44.460
12904;170978;34.80;350;03.42.44.558
12916;170984;34.80;351;03.42.44.558
12880;170977;34.80;352;03.42.44.558
12916;170990;34.80;353;03.42.44.558
12924;170990;34.80;354;03.42.44.558
12892;170987;34.80;355;03.42.44.558
12876;170989;34.80;356;03.42.44.569
12924;170989;34.80;357;03.42.44.569
12892;170987;34.80;358;03.42.44.569
12908;170996;34.80;359;03.42.44.569
12928;170995;34.80;360;03.42.44.569
12904;170999;34.80;361;03.42.44.569
12892;170999;34.80;362;03.42.44.569
12876;170995;34.80;363;03.42.44.569
12904;171002;34.80;364;03.42.44.569
12924;171000;34.80;365;03.42.44.580
12916;171007;34.80;366;03.42.44.580
12932;171005;34.80;367;03.42.44.591
12888;171007;34.80;368;03.42.44.591
12920;171003;34.80;369;03.42.44.591
12880;171010;34.80;370;03.42.44.591
12884;171007;34.80;371;03.42.44.591
12928;171008;34.80;372;03.42.44.591
12896;171012;34.80;373;03.42.44.591
12928;171008;34.80;374;03.42.44.602
12900;171014;34.80;375;03.42.44.678
12920;171021;34.80;376;03.42.44.689
12904;171024;34.80;377;03.42.44.689
12920;171018;34.80;378;03.42.44.689
12904;171016;34.80;379;03.42.44.689
12908;171017;34.80;380;03.42.44.689
12892;171016;34.80;381;03.42.44.689
12904;171023;34.80;382;03.42.44.689
12912;171030;34.80;383;03.42.44.689
12892;171022;34.80;384;03.42.44.689
12932;171023;34.80;385;03.42.44.689
12892;171023;34.80;386;03.42.44.689
12904;171025;34.80;387;03.42.44.689
12892;171028;34.80;388;03.42.44.689
12920;171016;34.80;389;03.42.44.689
12900;171034;34.80;390;03.42.44.690
12916;171029;34.80;391;03.42.44.701
12876;171027;34.80;392;03.42.44.701
12912;171020;34.80;393;03.42.44.701
12920;171024;34.80;394;03.42.44.701
12900;171011;34.80;395;03.42.44.701
12900;171022;34.80;396;03.42.44.701
12928;171011;34.80;397;03.42.44.701
12912;171007;34.80;398;03.42.44.701
12936;171001;34.80;399;03.42.44.701
12916;170998;34.76;400;03.42.44.822
12904;171001;34.76;401;03.42.44.822
12904;170991;34.76;402;03.42.44.822
12928;170982;34.76;403;03.42.44.822
12880;170979;34.76;404;03.42.44.822
12888;170977;34.76;405;03.42.44.822
12920;170968;34.76;406;03.42.44.822
12916;170967;34.76;407;03.42.44.822
12912;170963;34.76;408;03.42.44.822
12920;170959;34.76;409;03.42.44.822
12920;170963;34.76;410;03.42.44.822
12912;170960;34.76;411;03.42.44.822
12908;170949;34.76;412;03.42.44.833
12916;170953;34.76;413;03.42.44.833
12892;170952;34.76;414;03.42.44.833
12884;170946;34.76;415;03.42.44.833
12876;170949;34.76;416;03.42.44.833
12928;170943;34.76;417;03.42.44.833
12912;170950;34.76;418;03.42.44.833
12884;170950;34.76;419;03.42.44.833
12892;170941;34.76;420;03.42.44.833
12892;170939;34.76;421;03.42.44.833
12904;170937;34.76;422;03.42.44.833
12928;170951;34.76;423;03.42.44.833
12920;170935;34.76;424;03.42.44.844
12928;170940;34.76;425;03.42.44.931
12900;170948;34.76;426;03.42.44.931
12880;170937;34.76;427;03.42.44.931
12912;170938;34.76;428;03.42.44.931
12860;170941;34.76;429;03.42.44.931
12896;170935;34.76;430;03.42.44.931
12904;170935;34.76;431;03.42.44.931
12932;170940;34.76;432;03.42.44.931
12892;170940;34.76;433;03.42.44.942
12860;170942;34.76;434;03.42.44.942
12912;170933;34.76;435;03.42.44.942
12884;170943;34.76;436;03.42.44.942
12908;170937;34.76;437;03.42.44.942
12892;170939;34.76;438;03.42.44.942
12896;170946;34.76;439;03.42.44.942
12904;170938;34.76;440;03.42.44.942
12924;170942;34.76;441;03.42.44.953
12924;170940;34.76;442;03.42.44.953
12928;170940;34.76;443;03.42.44.953
12900;170940;34.76;444;03.42.44.953
12888;170942;34.76;445;03.42.44.953
12912;170942;34.76;446;03.42.44.953
12892;170942;34.76;447;03.42.44.953
12900;170951;34.76;448;03.42.44.953
12936;170942;34.76;449;03.42.44.953
12904;170937;34.80;450;03.42.45.052
12892;170944;34.80;451;03.42.45.052
12900;170942;34.80;452;03.42.45.052
12920;170947;34.80;453;03.42.45.052
12892;170949;34.80;454;03.42.45.052
12884;170949;34.80;455;03.42.45.052
12920;170946;34.80;456;03.42.45.063
12912;170950;34.80;457;03.42.45.063
12916;170940;34.80;458;03.42.45.063
12912;170950;34.80;459;03.42.45.063
12908;170947;34.80;460;03.42.45.063
12892;170950;34.80;461;03.42.45.063
12904;170953;34.80;462;03.42.45.063
12912;170949;34.80;463;03.42.45.063
12892;170955;34.80;464;03.42.45.063
12908;170962;34.80;465;03.42.45.063
12892;170951;34.80;466;03.42.45.063
12904;170957;34.80;467;03.42.45.063
12912;170959;34.80;468;03.42.45.074
12900;170960;34.80;469;03.42.45.074
12892;170945;34.80;470;03.42.45.074
12876;170966;34.80;471;03.42.45.074
12912;170961;34.80;472;03.42.45.074
12928;170961;34.80;473;03.42.45.074
12908;170966;34.80;474;03.42.45.074
12876;170968;34.80;475;03.42.45.173
12896;170970;34.80;476;03.42.45.184
12924;170966;34.80;477;03.42.45.184
12892;170979;34.80;478;03.42.45.184
12908;170957;34.80;479;03.42.45.184
12908;170971;34.80;480;03.42.45.184
12896;170974;34.80;481;03.42.45.184
12888;170965;34.80;482;03.42.45.184
12912;170965;34.80;483;03.42.45.184
12900;170967;34.80;484;03.42.45.184
12908;170975;34.80;485;03.42.45.184
12908;170964;34.80;486;03.42.45.184
12912;170966;34.80;487;03.42.45.184
12916;170968;34.80;488;03.42.45.184
12928;170976;34.80;489;03.42.45.184
12892;170973;34.80;490;03.42.45.195
12884;170966;34.80;491;03.42.45.195
12876;170973;34.80;492;03.42.45.195
12884;170978;34.80;493;03.42.45.195
12900;170965;34.80;494;03.42.45.195
12904;170976;34.80;495;03.42.45.195
12908;170970;34.80;496;03.42.45.195
12888;170976;34.80;497;03.42.45.195
12916;170977;34.80;498;03.42.45.195
12944;170972;34.80;499;03.42.45.195
12904;170975;34.80;500;03.42.45.315
12928;170982;34.80;501;03.42.45.315
12908;170978;34.80;502;03.42.45.315
12908;170978;34.80;503;03.42.45.315
12896;170975;34.80;504;03.42.45.315
12892;170982;34.80;505;03.42.45.315
12892;170980;34.80;506;03.42.45.315
12896;170985;34.80;507;03.42.45.315
12908;170982;34.80;508;03.42.45.315
12928;170989;34.80;509;03.42.45.315
12884;170992;34.80;510;03.42.45.315
12888;170988;34.80;511;03.42.45.326
12884;170981;34.80;512;03.42.45.326
12892;170997;34.80;513;03.42.45.326
12896;170996;34.80;514;03.42.45.326
12932;170997;34.80;515;03.42.45.326
12904;171000;34.80;516;03.42.45.326
12888;170987;34.80;517;03.42.45.326
12900;170993;34.80;518;03.42.45.326
12908;170995;34.80;519;03.42.45.326
12928;170999;34.80;520;03.42.45.326
12912;171000;34.80;521;03.42.45.326
12912;171005;34.80;522;03.42.45.326
12904;171008;34.80;523;03.42.45.326
12892;171008;34.80;524;03.42.45.337
12928;171004;34.80;525;03.42.45.447
12888;171008;34.80;526;03.42.45.447
12900;171007;34.80;527;03.42.45.447
12872;171015;34.80;528;03.42.45.447
12884;171015;34.80;529;03.42.45.447
12888;171016;34.80;530;03.42.45.447
12908;171013;34.80;531;03.42.45.458
12900;171006;34.80;532;03.42.45.458
12892;171013;34.80;533;03.42.45.458
12920;171006;34.80;534;03.42.45.458
12892;171016;34.80;535;03.42.45.458
12912;171014;34.80;536;03.42.45.458
12876;171012;34.80;537;03.42.45.458
12928;171006;34.80;538;03.42.45.458
12928;171002;34.80;539;03.42.45.458
12912;171000;34.80;540;03.42.45.458
12892;170995;34.80;541;03.42.45.458
12904;170993;34.80;542;03.42.45.458
12900;170990;34.80;543;03.42.45.458
12896;170988;34.80;544;03.42.45.458
12908;170981;34.80;545;03.42.45.469
12892;170980;34.80;546;03.42.45.469
12900;170977;34.80;547;03.42.45.469
12880;170968;34.80;548;03.42.45.469
12936;170961;34.80;549;03.42.45.469
12904;170964;34.76;550;03.42.45.557
12932;170956;34.76;551;03.42.45.557
12928;170950;34.76;552;03.42.45.557
12896;170951;34.76;553;03.42.45.568
12908;170946;34.76;554;03.42.45.568
12936;170946;34.76;555;03.42.45.568
12908;170941;34.76;556;03.42.45.568
12916;170938;34.76;557;03.42.45.568
12924;170934;34.76;558;03.42.45.590
12936;170933;34.76;559;03.42.45.590
12920;170920;34.76;560;03.42.45.590
12932;170915;34.76;561;03.42.45.601
12904;170925;34.76;562;03.42.45.601
12904;170913;34.76;563;03.42.45.601
12948;170917;34.76;564;03.42.45.601
12908;170910;34.76;565;03.42.45.601
12904;170916;34.76;566;03.42.45.601
12900;170908;34.76;567;03.42.45.601
12904;170912;34.76;568;03.42.45.601
12916;170908;34.76;569;03.42.45.601
12928;170909;34.76;570;03.42.45.601
12940;170902;34.76;571;03.42.45.601
12916;170908;34.76;572;03.42.45.601
12892;170902;34.76;573;03.42.45.601
12960;170903;34.76;574;03.42.45.612
12916;170903;34.76;575;03.42.45.688
12928;170900;34.76;576;03.42.45.688
12928;170895;34.76;577;03.42.45.688
12916;170905;34.76;578;03.42.45.688
12924;170902;34.76;579;03.42.45.688
12912;170902;34.76;580;03.42.45.688
12916;170912;34.76;581;03.42.45.688
12932;170897;34.76;582;03.42.45.688
12900;170893;34.76;583;03.42.45.688
12892;170897;34.76;584;03.42.45.688
12916;170901;34.76;585;03.42.45.688
12908;170897;34.76;586;03.42.45.688
12916;170897;34.76;587;03.42.45.699
12920;170898;34.76;588;03.42.45.699
12920;170900;34.76;589;03.42.45.699
12908;170894;34.76;590;03.42.45.699
12908;170897;34.76;591;03.42.45.699
12928;170898;34.76;592;03.42.45.699
12908;170900;34.76;593;03.42.45.699
12924;170899;34.76;594;03.42.45.699
12892;170904;34.76;595;03.42.45.699
12860;170906;34.76;596;03.42.45.699
12900;170902;34.76;597;03.42.45.699
12908;170904;34.76;598;03.42.45.699
12936;170895;34.76;599;03.42.45.710
12884;170904;34.80;600;03.42.45.809
12904;170900;34.80;601;03.42.45.809
12908;170902;34.80;602;03.42.45.809
12884;170912;34.80;603;03.42.45.809
12876;170906;34.80;604;03.42.45.809
12912;170905;34.80;605;03.42.45.809
12924;170913;34.80;606;03.42.45.809
12888;170907;34.80;607;03.42.45.809
12912;170902;34.80;608;03.42.45.820
12920;170899;34.80;609;03.42.45.820
12904;170904;34.80;610;03.42.45.820
12928;170912;34.80;611;03.42.45.820
12912;170905;34.80;612;03.42.45.820
12928;170901;34.80;613;03.42.45.820
12912;170907;34.80;614;03.42.45.820
12884;170903;34.80;615;03.42.45.820
12904;170910;34.80;616;03.42.45.820
12900;170902;34.80;617;03.42.45.820
12932;170901;34.80;618;03.42.45.820
12916;170899;34.80;619;03.42.45.820
12888;170889;34.80;620;03.42.45.820
12920;170903;34.80;621;03.42.45.831
12932;170901;34.80;622;03.42.45.831
12896;170903;34.80;623;03.42.45.831
12924;170907;34.80;624;03.42.45.831
12928;170896;34.80;625;03.42.45.939
12908;170908;34.80;626;03.42.45.939
12892;170913;34.80;627;03.42.45.939
12920;170912;34.80;628;03.42.45.939
12892;170908;34.80;629;03.42.45.950
12908;170906;34.80;630;03.42.45.950
12928;170913;34.80;631;03.42.45.950
12916;170917;34.80;632;03.42.45.950
12896;170917;34.80;633;03.42.45.950
12888;170913;34.80;634;03.42.45.950
12944;170915;34.80;635;03.42.45.950
12912;170922;34.80;636;03.42.45.950
12936;170924;34.80;637;03.42.45.950
12928;170925;34.80;638;03.42.45.950
12908;170925;34.80;639;03.42.45.950
12924;170919;34.80;640;03.42.45.950
12908;170925;34.80;641;03.42.45.961
12892;170936;34.80;642;03.42.45.961
12920;170931;34.80;643;03.42.45.961
12900;170937;34.80;644;03.42.45.961
12936;170935;34.80;645;03.42.45.961
12912;170938;34.80;646;03.42.45.961
12944;170942;34.80;647;03.42.45.961
12932;170936;34.80;648;03.42.45.961
12924;170949;34.80;649;03.42.45.961
12936;170942;34.80;650;03.42.46.060
12928;170943;34.80;651;03.42.46.060
12888;170946;34.80;652;03.42.46.060
12908;170942;34.80;653;03.42.46.060
12904;170949;34.80;654;03.42.46.060
12916;170948;34.80;655;03.42.46.060
12936;170941;34.80;656;03.42.46.060
12928;170950;34.80;657;03.42.46.060
12896;170956;34.80;658;03.42.46.071
12904;170946;34.80;659;03.42.46.071
12904;170951;34.80;660;03.42.46.071
12924;170944;34.80;661;03.42.46.071
12888;170952;34.80;662;03.42.46.071
12904;170948;34.80;663;03.42.46.071
12928;170957;34.80;664;03.42.46.071
12900;170959;34.80;665;03.42.46.071
12912;170964;34.80;666;03.42.46.071
12920;170964;34.80;667;03.42.46.082
12908;170959;34.80;668;03.42.46.082
12904;170976;34.80;669;03.42.46.082
12892;170967;34.80;670;03.42.46.082
12928;170970;34.80;671;03.42.46.082
12928;170969;34.80;672;03.42.46.082
12936;170971;34.80;673;03.42.46.082
12924;170970;34.80;674;03.42.46.082
12892;170974;34.80;675;03.42.46.181
12876;170972;34.80;676;03.42.46.181
12892;170968;34.80;677;03.42.46.181
12912;170971;34.80;678;03.42.46.181
12896;170982;34.80;679;03.42.46.181
12888;170972;34.80;680;03.42.46.181
12896;170974;34.80;681;03.42.46.181
12920;170968;34.80;682;03.42.46.181
12912;170965;34.80;683;03.42.46.181
12896;170968;34.80;684;03.42.46.192
12900;170960;34.80;685;03.42.46.192
12892;170959;34.80;686;03.42.46.192
12892;170962;34.80;687;03.42.46.192
12908;170954;34.80;688;03.42.46.192
12928;170952;34.80;689;03.42.46.192
12888;170948;34.80;690;03.42.46.192
12928;170952;34.80;691;03.42.46.192
12908;170940;34.80;692;03.42.46.214
12892;170937;34.80;693;03.42.46.214
12892;170929;34.80;694;03.42.46.214
12928;170927;34.80;695;03.42.46.214
12908;170912;34.80;696;03.42.46.214
12912;170913;34.80;697;03.42.46.214
12944;170910;34.80;698;03.42.46.214
12960;170914;34.80;699;03.42.46.214
12928;170913;34.76;700;03.42.46.312
12884;170900;34.76;701;03.42.46.312
12936;170903;34.76;702;03.42.46.312
12904;170888;34.76;703;03.42.46.312
12904;170892;34.76;704;03.42.46.312
12928;170881;34.76;705;03.42.46.312
12892;170883;34.76;706;03.42.46.323
12928;170880;34.76;707;03.42.46.323
12928;170890;34.76;708;03.42.46.323
12924;170871;34.76;709;03.42.46.323
12884;170877;34.76;710;03.42.46.323
12912;170868;34.76;711;03.42.46.323
12900;170883;34.76;712;03.42.46.323
12924;170876;34.76;713;03.42.46.323
12912;170871;34.76;714;03.42.46.323
12900;170869;34.76;715;03.42.46.323
12932;170875;34.76;716;03.42.46.323
12904;170872;34.76;717;03.42.46.345
12908;170871;34.76;718;03.42.46.345
12924;170868;34.76;719;03.42.46.345
12892;170862;34.76;720;03.42.46.345
12876;170858;34.76;721;03.42.46.356
12928;170862;34.76;722;03.42.46.356
12892;170859;34.76;723;03.42.46.356
12900;170862;34.76;724;03.42.46.356
12884;170864;34.76;725;03.42.46.454
12912;170858;34.76;726;03.42.46.454
12892;170866;34.76;727;03.42.46.454
12888;170859;34.76;728;03.42.46.454
12920;170865;34.76;729;03.42.46.454
12912;170867;34.76;730;03.42.46.454
12900;170863;34.76;731;03.42.46.454
12892;170865;34.76;732;03.42.46.454
12900;170861;34.76;733;03.42.46.454
12904;170865;34.76;734;03.42.46.454
12900;170871;34.76;735;03.42.46.454
12920;170867;34.76;736;03.42.46.454
12924;170865;34.76;737;03.42.46.454
12896;170864;34.76;738;03.42.46.465
12912;170874;34.76;739;03.42.46.465
12920;170867;34.76;740;03.42.46.465
12900;170873;34.76;741;03.42.46.465
12892;170871;34.76;742;03.42.46.465
12904;170871;34.76;743;03.42.46.465
12924;170864;34.76;744;03.42.46.465
12908;170866;34.76;745;03.42.46.465
12908;170873;34.76;746;03.42.46.465
12884;170880;34.76;747;03.42.46.465
12880;170877;34.76;748;03.42.46.465
12904;170877;34.76;749;03.42.46.465
12912;170874;34.76;750;03.42.46.596
12880;170869;34.76;751;03.42.46.596
12908;170877;34.76;752;03.42.46.596
12920;170877;34.76;753;03.42.46.596
12908;170868;34.76;754;03.42.46.596
12920;170868;34.76;755;03.42.46.596
12912;170869;34.76;756;03.42.46.596
12884;170873;34.76;757;03.42.46.596
12924;170872;34.76;758;03.42.46.629
12916;170872;34.76;759;03.42.46.629
12912;170878;34.76;760;03.42.46.629
12912;170881;34.76;761;03.42.46.629
12892;170873;34.76;762;03.42.46.629
12904;170866;34.76;763;03.42.46.629
12904;170882;34.76;764;03.42.46.640
12908;170881;34.76;765;03.42.46.640
12928;170882;34.76;766;03.42.46.640
12916;170881;34.76;767;03.42.46.640
12920;170880;34.76;768;03.42.46.640
12912;170884;34.76;769;03.42.46.640
12924;170893;34.76;770;03.42.46.640
12884;170883;34.76;771;03.42.46.640
12916;170884;34.76;772;03.42.46.640
12916;170887;34.76;773;03.42.46.640
12924;170881;34.76;774;03.42.46.640
12888;170883;34.76;775;03.42.46.683
12928;170889;34.76;776;03.42.46.683
12888;170895;34.76;777;03.42.46.683
12928;170888;34.76;778;03.42.46.683
12904;170889;34.76;779;03.42.46.683
12888;170898;34.76;780;03.42.46.694
12900;170897;34.76;781;03.42.46.694
12896;170900;34.76;782;03.42.46.694
12904;170888;34.76;783;03.42.46.716
12904;170905;34.76;784;03.42.46.716
12912;170891;34.76;785;03.42.46.716
12876;170902;34.76;786;03.42.46.716
12908;170898;34.76;787;03.42.46.716
12912;170908;34.76;788;03.42.46.727
12928;170905;34.76;789;03.42.46.727
12896;170913;34.76;790;03.42.46.727
12896;170912;34.76;791;03.42.46.727
12912;170908;34.76;792;03.42.46.727
12912;170913;34.76;793;03.42.46.727
12928;170905;34.76;794;03.42.46.727
12860;170914;34.76;795;03.42.46.727
12868;170909;34.76;796;03.42.46.727
12932;170912;34.76;797;03.42.46.727
12900;170922;34.76;798;03.42.46.727
12940;170915;34.76;799;03.42.46.727
12936;170921;34.80;800;03.42.46.804
12908;170918;34.80;801;03.42.46.815
12896;170918;34.80;802;03.42.46.815
12892;170929;34.80;803;03.42.46.815
12908;170920;34.80;804;03.42.46.815
12896;170926;34.80;805;03.42.46.815
12928;170922;34.80;806;03.42.46.815
12900;170927;34.80;807;03.42.46.815
12904;170937;34.80;808;03.42.46.815
12928;170931;34.80;809;03.42.46.815
12928;170942;34.80;810;03.42.46.815
12904;170938;34.80;811;03.42.46.815
12896;170934;34.80;812;03.42.46.815
12912;170935;34.80;813;03.42.46.815
12912;170943;34.80;814;03.42.46.826
12908;170947;34.80;815;03.42.46.826
12908;170952;34.80;816;03.42.46.826
12900;170945;34.80;817;03.42.46.826
12904;170950;34.80;818;03.42.46.826
12888;170954;34.80;819;03.42.46.826
12924;170951;34.80;820;03.42.46.826
12928;170962;34.80;821;03.42.46.826
12888;170959;34.80;822;03.42.46.826
12900;170964;34.80;823;03.42.46.826
12900;170956;34.80;824;03.42.46.826
12916;170965;34.80;825;03.42.46.947
12920;170967;34.80;826;03.42.46.947
12936;170968;34.80;827;03.42.46.947
12932;170960;34.80;828;03.42.46.947
12900;170961;34.80;829;03.42.46.947
12912;170967;34.80;830;03.42.46.947
12900;170972;34.80;831;03.42.46.947
12908;170968;34.80;832;03.42.46.947
12924;170969;34.80;833;03.42.46.947
12892;170969;34.80;834;03.42.46.947
12888;170973;34.80;835;03.42.46.947
12888;170976;34.80;836;03.42.46.958
12900;170966;34.80;837;03.42.46.958
12884;170977;34.80;838;03.42.46.958
12912;170976;34.80;839;03.42.46.958
12900;170986;34.80;840;03.42.46.958
12896;170978;34.80;841;03.42.46.958
12904;170969;34.80;842;03.42.46.958
12892;170972;34.80;843;03.42.46.958
12892;170974;34.80;844;03.42.46.958
12908;170976;34.80;845;03.42.46.958
12884;170972;34.80;846;03.42.46.958
12880;170968;34.80;847;03.42.46.958
12916;170955;34.80;848;03.42.46.958
12928;170953;34.80;849;03.42.46.969
12884;170953;34.80;850;03.42.47.056
12888;170951;34.80;851;03.42.47.056
12920;170951;34.80;852;03.42.47.056
12920;170938;34.80;853;03.42.47.056
12896;170939;34.80;854;03.42.47.056
12920;170935;34.80;855;03.42.47.056
12900;170935;34.80;856;03.42.47.056
12904;170932;34.80;857;03.42.47.056
12876;170925;34.80;858;03.42.47.078
12888;170918;34.80;859;03.42.47.078
12884;170917;34.80;860;03.42.47.078
12896;170919;34.80;861;03.42.47.078
12928;170912;34.80;862;03.42.47.078
12884;170901;34.80;863;03.42.47.078
12928;170905;34.80;864;03.42.47.078
12908;170889;34.80;865;03.42.47.078
12928;170893;34.80;866;03.42.47.089
12928;170883;34.80;867;03.42.47.089
12908;170886;34.80;868;03.42.47.089
12904;170881;34.80;869;03.42.47.089
12888;170887;34.80;870;03.42.47.089
12912;170875;34.80;871;03.42.47.089
12912;170886;34.80;872;03.42.47.089
12928;170881;34.80;873;03.42.47.089
12880;170880;34.80;874;03.42.47.100
12892;170877;34.80;875;03.42.47.177
12928;170870;34.80;876;03.42.47.177
12908;170867;34.80;877;03.42.47.177
12892;170868;34.80;878;03.42.47.177
12880;170865;34.80;879;03.42.47.188
12896;170875;34.80;880;03.42.47.188
12928;170866;34.80;881;03.42.47.188
12892;170875;34.80;882;03.42.47.188
12916;170869;34.80;883;03.42.47.188
12904;170871;34.80;884;03.42.47.188
12932;170862;34.80;885;03.42.47.188
12912;170863;34.80;886;03.42.47.188
12920;170868;34.80;887;03.42.47.188
12928;170875;34.80;888;03.42.47.188
12912;170858;34.80;889;03.42.47.188
12912;170868;34.80;890;03.42.47.188
12896;170861;34.80;891;03.42.47.188
12896;170867;34.80;892;03.42.47.199
12936;170864;34.80;893;03.42.47.199
12908;170857;34.80;894;03.42.47.199
12928;170864;34.80;895;03.42.47.199
12892;170859;34.80;896;03.42.47.199
12920;170866;34.80;897;03.42.47.199
12892;170866;34.80;898;03.42.47.199
12932;170869;34.80;899;03.42.47.199
12916;170869;34.76;900;03.42.47.310
12896;170867;34.76;901;03.42.47.310
12892;170866;34.76;902;03.42.47.310
12896;170873;34.76;903;03.42.47.310
12900;170876;34.76;904;03.42.47.310
12928;170876;34.76;905;03.42.47.310
12928;170875;34.76;906;03.42.47.310
12916;170874;34.76;907;03.42.47.310
12892;170878;34.76;908;03.42.47.310
12896;170876;34.76;909;03.42.47.310
12884;170868;34.76;910;03.42.47.310
12892;170874;34.76;911;03.42.47.310
12916;170877;34.76;912;03.42.47.310
12904;170878;34.76;913;03.42.47.310
12928;170878;34.76;914;03.42.47.310
12884;170881;34.76;915;03.42.47.321
12912;170875;34.76;916;03.42.47.321
12904;170883;34.76;917;03.42.47.321
12896;170884;34.76;918;03.42.47.321
12888;170879;34.76;919;03.42.47.321
12912;170891;34.76;920;03.42.47.321
12888;170883;34.76;921;03.42.47.321
12900;170876;34.76;922;03.42.47.321
12900;170881;34.76;923;03.42.47.321
12912;170885;34.76;924;03.42.47.321
12908;170886;34.76;925;03.42.47.441
12912;170884;34.76;926;03.42.47.441
12932;170892;34.76;927;03.42.47.441
12928;170887;34.76;928;03.42.47.441
12924;170888;34.76;929;03.42.47.441
12904;170892;34.76;930;03.42.47.441
12912;170898;34.76;931;03.42.47.441
12912;170892;34.76;932;03.42.47.441
12876;170898;34.76;933;03.42.47.441
12920;170893;34.76;934;03.42.47.441
12920;170901;34.76;935;03.42.47.452
12920;170892;34.76;936;03.42.47.452
12888;170899;34.76;937;03.42.47.452
12924;170899;34.76;938;03.42.47.452
12916;170902;34.76;939;03.42.47.452
12932;170897;34.76;940;03.42.47.452
12892;170905;34.76;941;03.42.47.452
12892;170910;34.76;942;03.42.47.452
12904;170909;34.76;943;03.42.47.452
12904;170915;34.76;944;03.42.47.452
12904;170915;34.76;945;03.42.47.452
12944;170917;34.76;946;03.42.47.452
12944;170916;34.76;947;03.42.47.452
12912;170913;34.76;948;03.42.47.463
12920;170914;34.76;949;03.42.47.463
12888;170916;34.80;950;03.42.47.573
12920;170920;34.80;951;03.42.47.573
12900;170923;34.80;952;03.42.47.573
12904;170924;34.80;953;03.42.47.573
12912;170921;34.80;954;03.42.47.573
12892;170933;34.80;955;03.42.47.573
12912;170922;34.80;956;03.42.47.584
12928;170933;34.80;957;03.42.47.584
12908;170931;34.80;958;03.42.47.584
12916;170937;34.80;959;03.42.47.584
12908;170941;34.80;960;03.42.47.584
12928;170940;34.80;961;03.42.47.584
12904;170944;34.80;962;03.42.47.584
12916;170940;34.80;963;03.42.47.584
12932;170941;34.80;964;03.42.47.584
12924;170942;34.80;965;03.42.47.584
12900;170945;34.80;966;03.42.47.584
12912;170951;34.80;967;03.42.47.584
12936;170944;34.80;968;03.42.47.584
12928;170939;34.80;969;03.42.47.595
12904;170944;34.80;970;03.42.47.595
12928;170944;34.80;971;03.42.47.595
12908;170950;34.80;972;03.42.47.595
12924;170960;34.80;973;03.42.47.595
12928;170955;34.80;974;03.42.47.595
12900;170958;34.80;975;03.42.47.705
12920;170956;34.80;976;03.42.47.705
12900;170959;34.80;977;03.42.47.705
12908;170957;34.80;978;03.42.47.716
12920;170966;34.80;979;03.42.47.716
12916;170967;34.80;980;03.42.47.716
12924;170966;34.80;981;03.42.47.716
12920;170970;34.80;982;03.42.47.716
12904;170968;34.80;983;03.42.47.716
12920;170964;34.80;984;03.42.47.716
12884;170963;34.80;985;03.42.47.716
12896;170968;34.80;986;03.42.47.716
12908;170975;34.80;987;03.42.47.716
12892;170976;34.80;988;03.42.47.716
12924;170974;34.80;989;03.42.47.716
12928;170982;34.80;990;03.42.47.716
12904;170978;34.80;991;03.42.47.727
12904;170981;34.80;992;03.42.47.727
12916;170981;34.80;993;03.42.47.727
12936;170976;34.80;994;03.42.47.727
12892;170983;34.80;995;03.42.47.738
12896;170979;34.80;996;03.42.47.738
12912;170981;34.80;997;03.42.47.738
12892;170984;34.80;998;03.42.47.738
12924;170994;34.80;999;03.42.47.738
12904;170990;34.80;000;03.42.47.825
12888;170992;34.80;001;03.42.47.825
12916;170986;34.80;002;03.42.47.825
12912;170990;34.80;003;03.42.47.825
12908;170994;34.80;004;03.42.47.825
12896;170996;34.80;005;03.42.47.825
12888;170990;34.80;006;03.42.47.825
12880;170991;34.80;007;03.42.47.825
12924;170991;34.80;008;03.42.47.847
12900;170989;34.80;009;03.42.47.847
12916;170983;34.80;010;03.42.47.847
12928;170987;34.80;011;03.42.47.847
12916;170982;34.80;012;03.42.47.847
12912;170974;34.80;013;03.42.47.847
12928;170976;34.80;014;03.42.47.847
12892;170963;34.80;015;03.42.47.847
12928;170964;34.80;016;03.42.47.847
12900;170963;34.80;017;03.42.47.847
12932;170961;34.80;018;03.42.47.847
12928;170951;34.80;019;03.42.47.847
12892;170953;34.80;020;03.42.47.858
12884;170948;34.80;021;03.42.47.858
12896;170948;34.80;022;03.42.47.858
12920;170948;34.80;023;03.42.47.858
12908;170937;34.80;024;03.42.47.858
12896;170932;34.80;025;03.42.47.935
12908;170930;34.80;026;03.42.47.935
12924;170927;34.80;027;03.42.47.935
12928;170927;34.80;028;03.42.47.935
12920;170921;34.80;029;03.42.47.935
12928;170919;34.80;030;03.42.47.935
12928;170913;34.80;031;03.42.47.935
12908;170913;34.80;032;03.42.47.935
12924;170903;34.80;033;03.42.47.946
12912;170905;34.80;034;03.42.47.946
12928;170908;34.80;035;03.42.47.946
12916;170911;34.80;036;03.42.47.946
12888;170911;34.80;037;03.42.47.946
12920;170906;34.80;038;03.42.47.946
12892;170906;34.80;039;03.42.47.946
12900;170900;34.80;040;03.42.47.946
12884;170899;34.80;041;03.42.47.946
12880;170904;34.80;042;03.42.47.946
12900;170904;34.80;043;03.42.47.946
12888;170901;34.80;044;03.42.47.946
12928;170900;34.80;045;03.42.47.946
12900;170908;34.80;046;03.42.47.957
12912;170905;34.80;047;03.42.47.957
12888;170908;34.80;048;03.42.47.957
12928;170911;34.80;049;03.42.47.957
12920;170907;34.80;050;03.42.48.066
12900;170906;34.80;051;03.42.48.066
12892;170900;34.80;052;03.42.48.066
12912;170904;34.80;053;03.42.48.066
12896;170906;34.80;054;03.42.48.077
12892;170913;34.80;055;03.42.48.077
12892;170909;34.80;056;03.42.48.077
12892;170901;34.80;057;03.42.48.077
12904;170901;34.80;058;03.42.48.077
12912;170915;34.80;059;03.42.48.077
12920;170907;34.80;060;03.42.48.077
12916;170914;34.80;061;03.42.48.077
12928;170911;34.80;062;03.42.48.077
12888;170907;34.80;063;03.42.48.077
12920;170911;34.80;064;03.42.48.077
12908;170913;34.80;065;03.42.48.077
12904;170909;34.80;066;03.42.48.088
12900;170907;34.80;067;03.42.48.088
12888;170910;34.80;068;03.42.48.088
12920;170914;34.80;069;03.42.48.088
12896;170915;34.80;070;03.42.48.088
12912;170909;34.80;071;03.42.48.088
12892;170914;34.80;072;03.42.48.088
12900;170912;34.80;073;03.42.48.088
12908;170909;34.80;074;03.42.48.088
12876;170906;34.80;075;03.42.48.176
12904;170910;34.80;076;03.42.48.187
12892;170912;34.80;077;03.42.48.187
12908;170907;34.80;078;03.42.48.187
12896;170912;34.80;079;03.42.48.187
12912;170909;34.80;080;03.42.48.187
12928;170908;34.80;081;03.42.48.187
12888;170909;34.80;082;03.42.48.187
12888;170902;34.80;083;03.42.48.187
12900;170908;34.80;084;03.42.48.187
12884;170904;34.80;085;03.42.48.198
12908;170911;34.80;086;03.42.48.198
12936;170908;34.80;087;03.42.48.198
12896;170909;34.80;088;03.42.48.198
12880;170905;34.80;089;03.42.48.198
12904;170904;34.80;090;03.42.48.198
12912;170918;34.80;091;03.42.48.198
12912;170910;34.80;092;03.42.48.198
12912;170902;34.80;093;03.42.48.209
12896;170913;34.80;094;03.42.48.209
12928;170913;34.80;095;03.42.48.209
12900;170906;34.80;096;03.42.48.209
12912;170912;34.80;097;03.42.48.209
12908;170909;34.80;098;03.42.48.209
12912;170920;34.80;099;03.42.48.209
12944;170921;34.80;100;03.42.48.307
12912;170915;34.80;101;03.42.48.307
12928;170926;34.80;102;03.42.48.307
12892;170917;34.80;103;03.42.48.307
12896;170920;34.80;104;03.42.48.307
12924;170926;34.80;105;03.42.48.307
12928;170929;34.80;106;03.42.48.307
12908;170931;34.80;107;03.42.48.307
12908;170924;34.80;108;03.42.48.307
12896;170934;34.80;109;03.42.48.307
12888;170924;34.80;110;03.42.48.318
12932;170924;34.80;111;03.42.48.318
12880;170928;34.80;112;03.42.48.318
12908;170929;34.80;113;03.42.48.318
12924;170933;34.80;114;03.42.48.318
12908;170940;34.80;115;03.42.48.318
12884;170927;34.80;116;03.42.48.318
12888;170939;34.80;117;03.42.48.318
12884;170942;34.80;118;03.42.48.318
12928;170933;34.80;119;03.42.48.318
12904;170941;34.80;120;03.42.48.318
12904;170941;34.80;121;03.42.48.318
12888;170944;34.80;122;03.42.48.318
12892;170949;34.80;123;03.42.48.329
12920;170948;34.80;124;03.42.48.329
12916;170955;34.80;125;03.42.48.428
12908;170952;34.80;126;03.42.48.428
12908;170958;34.80;127;03.42.48.428
12892;170953;34.80;128;03.42.48.428
12900;170953;34.80;129;03.42.48.428
12916;170956;34.80;130;03.42.48.428
12900;170954;34.80;131;03.42.48.439
12920;170960;34.80;132;03.42.48.439
12936;170963;34.80;133;03.42.48.439
12912;170959;34.80;134;03.42.48.439
12916;170959;34.80;135;03.42.48.439
12892;170965;34.80;136;03.42.48.439
12904;170963;34.80;137;03.42.48.439
12916;170962;34.80;138;03.42.48.439
12904;170963;34.80;139;03.42.48.439
12900;170970;34.80;140;03.42.48.439
12928;170962;34.80;141;03.42.48.439
12920;170971;34.80;142;03.42.48.439
12908;170977;34.80;143;03.42.48.439
12916;170972;34.80;144;03.42.48.450
12892;170970;34.80;145;03.42.48.450
12908;170973;34.80;146;03.42.48.450
12912;170980;34.80;147;03.42.48.450
12904;170974;34.80;148;03.42.48.450
12936;170973;34.80;149;03.42.48.450
12928;170969;34.80;150;03.42.48.559
12904;170978;34.80;151;03.42.48.570
12900;170983;34.80;152;03.42.48.570
12908;170978;34.80;153;03.42.48.570
12908;170987;34.80;154;03.42.48.570
12892;170983;34.80;155;03.42.48.570
12892;170986;34.80;156;03.42.48.570
12916;170986;34.80;157;03.42.48.570
12896;170975;34.80;158;03.42.48.570
12892;170989;34.80;159;03.42.48.570
12904;170984;34.80;160;03.42.48.570
12900;170992;34.80;161;03.42.48.570
12872;170974;34.80;162;03.42.48.570
12932;170981;34.80;163;03.42.48.570
12936;170986;34.80;164;03.42.48.581
12892;170974;34.80;165;03.42.48.581
12892;170972;34.80;166;03.42.48.581
12912;170965;34.80;167;03.42.48.581
12944;170953;34.80;168;03.42.48.581
12912;170960;34.80;169;03.42.48.581
12928;170950;34.80;170;03.42.48.581
12880;170953;34.80;171;03.42.48.581
12904;170941;34.80;172;03.42.48.581
12912;170934;34.80;173;03.42.48.581
12908;170926;34.80;174;03.42.48.581
12904;170936;34.80;175;03.42.48.701
12936;170929;34.80;176;03.42.48.701
12892;170917;34.80;177;03.42.48.701
12932;170915;34.80;178;03.42.48.701
12912;170910;34.80;179;03.42.48.701
12928;170907;34.80;180;03.42.48.701
12904;170902;34.80;181;03.42.48.701
12908;170911;34.80;182;03.42.48.701
12928;170905;34.80;183;03.42.48.701
12896;170907;34.80;184;03.42.48.712
12900;170903;34.80;185;03.42.48.712
12904;170901;34.80;186;03.42.48.712
12916;170892;34.80;187;03.42.48.712
12912;170885;34.80;188;03.42.48.712
12916;170883;34.80;189;03.42.48.712
12908;170882;34.80;190;03.42.48.712
12912;170895;34.80;191;03.42.48.712
12904;170881;34.80;192;03.42.48.712
12904;170890;34.80;193;03.42.48.712
12908;170887;34.80;194;03.42.48.712
12900;170883;34.80;195;03.42.48.712
12932;170880;34.80;196;03.42.48.712
12912;170881;34.80;197;03.42.48.712
12892;170881;34.80;198;03.42.48.712
12928;170881;34.80;199;03.42.48.724
12868;170876;34.80;200;03.42.48.812
12896;170879;34.80;201;03.42.48.812
12912;170878;34.80;202;03.42.48.812
12896;170881;34.80;203;03.42.48.812
12912;170877;34.80;204;03.42.48.812
12912;170883;34.80;205;03.42.48.812
12888;170876;34.80;206;03.42.48.812
12880;170881;34.80;207;03.42.48.812
12924;170885;34.80;208;03.42.48.823
12908;170881;34.80;209;03.42.48.823
12908;170874;34.80;210;03.42.48.823
12892;170889;34.80;211;03.42.48.823
12896;170878;34.80;212;03.42.48.823
12904;170877;34.80;213;03.42.48.823
12912;170878;34.80;214;03.42.48.823
12904;170885;34.80;215;03.42.48.834
12892;170877;34.80;216;03.42.48.834
12920;170887;34.80;217;03.42.48.834
12912;170888;34.80;218;03.42.48.834
12872;170875;34.80;219;03.42.48.834
12900;170882;34.80;220;03.42.48.834
12904;170880;34.80;221;03.42.48.834
12888;170882;34.80;222;03.42.48.834
12908;170884;34.80;223;03.42.48.834
12924;170880;34.80;224;03.42.48.834
12892;170877;34.80;225;03.42.48.933
12944;170878;34.80;226;03.42.48.933
12884;170876;34.80;227;03.42.48.933
12912;170883;34.80;228;03.42.48.933
12896;170881;34.80;229;03.42.48.933
12916;170882;34.80;230;03.42.48.944
12900;170887;34.80;231;03.42.48.944
12892;170887;34.80;232;03.42.48.944
12892;170885;34.80;233;03.42.48.944
12892;170888;34.80;234;03.42.48.944
12924;170884;34.80;235;03.42.48.944
12912;170882;34.80;236;03.42.48.944
12892;170885;34.80;237;03.42.48.944
12928;170888;34.80;238;03.42.48.944
12916;170888;34.80;239;03.42.48.944
12900;170889;34.80;240;03.42.48.944
12900;170884;34.80;241;03.42.48.944
12892;170897;34.80;242;03.42.48.944
12924;170894;34.80;243;03.42.48.955
12900;170890;34.80;244;03.42.48.955
12908;170892;34.80;245;03.42.48.955
12908;170897;34.80;246;03.42.48.955
12892;170889;34.80;247;03.42.48.955
12884;170898;34.80;248;03.42.48.955
12908;170890;34.80;249;03.42.48.955
12904;170894;34.76;250;03.42.49.064
12892;170892;34.76;251;03.42.49.064
12896;170894;34.76;252;03.42.49.064
12924;170896;34.76;253;03.42.49.064
12904;170903;34.76;254;03.42.49.064
12928;170899;34.76;255;03.42.49.064
12904;170898;34.76;256;03.42.49.064
12912;170898;34.76;257;03.42.49.064
12892;170906;34.76;258;03.42.49.064
12896;170907;34.76;259;03.42.49.064
12892;170906;34.76;260;03.42.49.064
12912;170901;34.76;261;03.42.49.064
12928;170907;34.76;262;03.42.49.064
12880;170908;34.76;263;03.42.49.064
12896;170911;34.76;264;03.42.49.075
12908;170915;34.76;265;03.42.49.075
12912;170914;34.76;266;03.42.49.075
12908;170921;34.76;267;03.42.49.075
12876;170923;34.76;268;03.42.49.075
12924;170913;34.76;269;03.42.49.075
12904;170919;34.76;270;03.42.49.075
12908;170917;34.76;271;03.42.49.075
12912;170921;34.76;272;03.42.49.075
12912;170918;34.76;273;03.42.49.075
12936;170923;34.76;274;03.42.49.075
12896;170923;34.76;275;03.42.49.207
12896;170924;34.76;276;03.42.49.207
12928;170927;34.76;277;03.42.49.207
12876;170927;34.76;278;03.42.49.207
12892;170926;34.76;279;03.42.49.207
12928;170925;34.76;280;03.42.49.207
12928;170937;34.76;281;03.42.49.207
12884;170930;34.76;282;03.42.49.207
12920;170928;34.76;283;03.42.49.207
12908;170925;34.76;284;03.42.49.218
12884;170930;34.76;285;03.42.49.218
12928;170940;34.76;286;03.42.49.218
12892;170938;34.76;287;03.42.49.218
12920;170938;34.76;288;03.42.49.218
12920;170938;34.76;289;03.42.49.218
12912;170942;34.76;290;03.42.49.218
12904;170940;34.76;291;03.42.49.218
12928;170944;34.76;292;03.42.49.218
12896;170943;34.76;293;03.42.49.218
12928;170950;34.76;294;03.42.49.218
12900;170952;34.76;295;03.42.49.218
12896;170954;34.76;296;03.42.49.218
12904;170959;34.76;297;03.42.49.229
12904;170958;34.76;298;03.42.49.229
12924;170953;34.76;299;03.42.49.229
12892;170960;34.80;300;03.42.49.328
12908;170965;34.80;301;03.42.49.328
12892;170964;34.80;302;03.42.49.328
12928;170969;34.80;303;03.42.49.328
12896;170963;34.80;304;03.42.49.328
12960;170963;34.80;305;03.42.49.328
12912;170968;34.80;306;03.42.49.339
12912;170966;34.80;307;03.42.49.339
12892;170969;34.80;308;03.42.49.339
12904;170971;34.80;309;03.42.49.339
12908;170973;34.80;310;03.42.49.339
12932;170976;34.80;311;03.42.49.339
12888;170976;34.80;312;03.42.49.339
12904;170973;34.80;313;03.42.49.339
12920;170979;34.80;314;03.42.49.339
12908;170980;34.80;315;03.42.49.339
12904;170974;34.80;316;03.42.49.339
12904;170976;34.80;317;03.42.49.339
12932;170986;34.80;318;03.42.49.339
12920;170980;34.80;319;03.42.49.350
12892;170986;34.80;320;03.42.49.350
12928;170994;34.80;321;03.42.49.350
12896;170982;34.80;322;03.42.49.350
12916;170987;34.80;323;03.42.49.350
12916;170982;34.80;324;03.42.49.350
12904;170984;34.80;325;03.42.49.427
12896;170979;34.80;326;03.42.49.427
12904;170987;34.80;327;03.42.49.427
12904;170981;34.80;328;03.42.49.437
12912;170971;34.80;329;03.42.49.437
12920;170969;34.80;330;03.42.49.437
12904;170977;34.80;331;03.42.49.437
12892;170977;34.80;332;03.42.49.437
12896;170967;34.80;333;03.42.49.437
12904;170966;34.80;334;03.42.49.437
12944;170956;34.80;335;03.42.49.437
12900;170951;34.80;336;03.42.49.437
12888;170948;34.80;337;03.42.49.437
12896;170938;34.80;338;03.42.49.437
12904;170940;34.80;339;03.42.49.437
12916;170937;34.80;340;03.42.49.449
12956;170931;34.80;341;03.42.49.449
12912;170927;34.80;342;03.42.49.449
12892;170924;34.80;343;03.42.49.449
12892;170918;34.80;344;03.42.49.449
12908;170913;34.80;345;03.42.49.449
12916;170916;34.80;346;03.42.49.449
12916;170917;34.80;347;03.42.49.449
12892;170904;34.80;348;03.42.49.449
12936;170898;34.80;349;03.42.49.449
12900;170908;34.80;350;03.42.49.570
12912;170899;34.80;351;03.42.49.570
12896;170902;34.80;352;03.42.49.570
12892;170896;34.80;353;03.42.49.570
12904;170900;34.80;354;03.42.49.570
12896;170895;34.80;355;03.42.49.570
12876;170896;34.80;356;03.42.49.570
12916;170886;34.80;357;03.42.49.570
12872;170886;34.80;358;03.42.49.570
12900;170890;34.80;359;03.42.49.570
12892;170885;34.80;360;03.42.49.570
12912;170891;34.80;361;03.42.49.570
12892;170891;34.80;362;03.42.49.581
12924;170883;34.80;363;03.42.49.581
12908;170875;34.80;364;03.42.49.581
12892;170876;34.80;365;03.42.49.581
12904;170886;34.80;366;03.42.49.581
12928;170872;34.80;367;03.42.49.581
12908;170876;34.80;368;03.42.49.581
12944;170871;34.80;369;03.42.49.581
12900;170877;34.80;370;03.42.49.581
12908;170871;34.80;371;03.42.49.581
12896;170872;34.80;372;03.42.49.581
12904;170868;34.80;373;03.42.49.581
12928;170879;34.80;374;03.42.49.581
12904;170876;34.80;375;03.42.49.691
12900;170875;34.80;376;03.42.49.691
12892;170876;34.80;377;03.42.49.691
12900;170881;34.80;378;03.42.49.691
12896;170880;34.80;379;03.42.49.691
12928;170884;34.80;380;03.42.49.691
12928;170890;34.80;381;03.42.49.691
12924;170881;34.80;382;03.42.49.691
12884;170881;34.80;383;03.42.49.691
12904;170884;34.80;384;03.42.49.702
12892;170886;34.80;385;03.42.49.702
12904;170897;34.80;386;03.42.49.702
12896;170889;34.80;387;03.42.49.702
12920;170893;34.80;388;03.42.49.702
12916;170897;34.80;389;03.42.49.702
12904;170899;34.80;390;03.42.49.702
12928;170888;34.80;391;03.42.49.702
12888;170885;34.80;392;03.42.49.713
12936;170884;34.80;393;03.42.49.713
12888;170886;34.80;394;03.42.49.713
12884;170898;34.80;395;03.42.49.713
12876;170889;34.80;396;03.42.49.713
12892;170891;34.80;397;03.42.49.713
12888;170892;34.80;398;03.42.49.713
12892;170896;34.80;399;03.42.49.713
12888;170890;34.80;400;03.42.49.811
12916;170887;34.80;401;03.42.49.811
12864;170891;34.80;402;03.42.49.811
12920;170892;34.80;403;03.42.49.811
12904;170881;34.80;404;03.42.49.811
12892;170883;34.80;405;03.42.49.822
12904;170890;34.80;406;03.42.49.822
12892;170882;34.80;407;03.42.49.822
12912;170891;34.80;408;03.42.49.833
12928;170890;34.80;409;03.42.49.833
12924;170883;34.80;410;03.42.49.833
12916;170894;34.80;411;03.42.49.833
12896;170892;34.80;412;03.42.49.833
12908;170878;34.80;413;03.42.49.833
12892;170890;34.80;414;03.42.49.844
12920;170890;34.80;415;03.42.49.844
12916;170887;34.80;416;03.42.49.844
12888;170890;34.80;417;03.42.49.844
12908;170901;34.80;418;03.42.49.844
12912;170896;34.80;419;03.42.49.844
12912;170900;34.80;420;03.42.49.844
12928;170908;34.80;421;03.42.49.844
12888;170906;34.80;422;03.42.49.844
12924;170915;34.80;423;03.42.49.844
12916;170914;34.80;424;03.42.49.844
12900;170908;34.80;425;03.42.49.965
12896;170911;34.80;426;03.42.49.975
12904;170912;34.80;427;03.42.49.975
12892;170917;34.80;428;03.42.49.975
12916;170915;34.80;429;03.42.49.975
12912;170916;34.80;430;03.42.49.975
12928;170922;34.80;431;03.42.49.975
12884;170925;34.80;432;03.42.49.975
12900;170914;34.80;433;03.42.49.975
12920;170920;34.80;434;03.42.49.975
12900;170927;34.80;435;03.42.49.975
12896;170930;34.80;436;03.42.49.975
12900;170927;34.80;437;03.42.49.975
12924;170925;34.80;438;03.42.49.975
12912;170929;34.80;439;03.42.49.986
12928;170929;34.80;440;03.42.49.986
12892;170930;34.80;441;03.42.49.986
12928;170933;34.80;442;03.42.49.986
12912;170937;34.80;443;03.42.49.986
12876;170927;34.80;444;03.42.49.986
12908;170937;34.80;445;03.42.49.986
12912;170941;34.80;446;03.42.49.986
12912;170937;34.80;447;03.42.49.986
12900;170940;34.80;448;03.42.49.986
12944;170933;34.80;449;03.42.49.986
12892;170942;34.80;450;03.42.50.063
12904;170932;34.80;451;03.42.50.063
12904;170937;34.80;452;03.42.50.063
12916;170941;34.80;453;03.42.50.063
12940;170942;34.80;454;03.42.50.063
12912;170947;34.80;455;03.42.50.063
12896;170942;34.80;456;03.42.50.063
12944;170948;34.80;457;03.42.50.063
12904;170954;34.80;458;03.42.50.063
12916;170953;34.80;459;03.42.50.063
12896;170953;34.80;460;03.42.50.063
12900;170961;34.80;461;03.42.50.064
12904;170962;34.80;462;03.42.50.075
12888;170955;34.80;463;03.42.50.075
12916;170961;34.80;464;03.42.50.075
12904;170966;34.80;465;03.42.50.075
12928;170963;34.80;466;03.42.50.075
12908;170955;34.80;467;03.42.50.075
12924;170968;34.80;468;03.42.50.075
12928;170970;34.80;469;03.42.50.075
12920;170970;34.80;470;03.42.50.075
12892;170972;34.80;471;03.42.50.075
12908;170978;34.80;472;03.42.50.075
12928;170974;34.80;473;03.42.50.075
12928;170975;34.80;474;03.42.50.075
12904;170978;34.80;475;03.42.50.195
12928;170975;34.80;476;03.42.50.195
12932;170986;34.80;477;03.42.50.195
12908;170980;34.80;478;03.42.50.195
12900;170982;34.80;479;03.42.50.195
12892;170984;34.80;480;03.42.50.195
12908;170990;34.80;481;03.42.50.195
12920;170985;34.80;482;03.42.50.195
12892;170987;34.80;483;03.42.50.206
12892;170997;34.80;484;03.42.50.206
12936;170998;34.80;485;03.42.50.206
12920;171007;34.80;486;03.42.50.206
12928;171006;34.80;487;03.42.50.206
12912;171004;34.80;488;03.42.50.206
12920;171005;34.80;489;03.42.50.206
12928;171008;34.80;490;03.42.50.206
12888;171010;34.80;491;03.42.50.206
12920;171005;34.80;492;03.42.50.206
12896;171001;34.80;493;03.42.50.206
12928;171011;34.80;494;03.42.50.206
12892;171002;34.80;495;03.42.50.206
12920;171016;34.80;496;03.42.50.217
12896;171011;34.80;497;03.42.50.217
12892;171007;34.80;498;03.42.50.217
12908;171004;34.80;499;03.42.50.217
12916;171001;34.80;500;03.42.50.305
12892;170985;34.80;501;03.42.50.305
12912;170992;34.80;502;03.42.50.305
12896;170983;34.80;503;03.42.50.305
12900;170994;34.80;504;03.42.50.305
12904;170978;34.80;505;03.42.50.316
12912;170973;34.80;506;03.42.50.316
12876;170966;34.80;507;03.42.50.316
12892;170971;34.80;508;03.42.50.327
12920;170955;34.80;509;03.42.50.327
12880;170955;34.80;510;03.42.50.327
12920;170957;34.80;511;03.42.50.327
12912;170950;34.80;512;03.42.50.338
12896;170948;34.80;513;03.42.50.338
12904;170948;34.80;514;03.42.50.338
12892;170941;34.80;515;03.42.50.338
12904;170936;34.80;516;03.42.50.338
12884;170936;34.80;517;03.42.50.338
12916;170927;34.80;518;03.42.50.338
12928;170928;34.80;519;03.42.50.338
12916;170930;34.80;520;03.42.50.338
12916;170926;34.80;521;03.42.50.338
12928;170921;34.80;522;03.42.50.349
12928;170922;34.80;523;03.42.50.349
12892;170925;34.80;524;03.42.50.349
12920;170929;34.80;525;03.42.50.426
12876;170913;34.80;526;03.42.50.437
12876;170925;34.80;527;03.42.50.437
12892;170917;34.80;528;03.42.50.437
12904;170919;34.80;529;03.42.50.437
12920;170918;34.80;530;03.42.50.437
12920;170914;34.80;531;03.42.50.437
12876;170905;34.80;532;03.42.50.437
12884;170904;34.80;533;03.42.50.437
12888;170903;34.80;534;03.42.50.437
12888;170904;34.80;535;03.42.50.437
12900;170910;34.80;536;03.42.50.437
12904;170901;34.80;537;03.42.50.437
12924;170899;34.80;538;03.42.50.437
12912;170897;34.80;539;03.42.50.448
12892;170909;34.80;540;03.42.50.448
12912;170894;34.80;541;03.42.50.448
12884;170916;34.80;542;03.42.50.448
12888;170911;34.80;543;03.42.50.448
12892;170904;34.80;544;03.42.50.448
12912;170908;34.80;545;03.42.50.448
12908;170908;34.80;546;03.42.50.448
12904;170907;34.80;547;03.42.50.448
12896;170907;34.80;548;03.42.50.448
12932;170911;34.80;549;03.42.50.448
12908;170913;34.76;550;03.42.50.568
12916;170922;34.76;551;03.42.50.568
12900;170909;34.76;552;03.42.50.568
12908;170912;34.76;553;03.42.50.568
12908;170908;34.76;554;03.42.50.568
12880;170912;34.76;555;03.42.50.568
12900;170913;34.76;556;03.42.50.568
12944;170920;34.76;557;03.42.50.568
12904;170904;34.76;558;03.42.50.579
12892;170917;34.76;559;03.42.50.579
12908;170917;34.76;560;03.42.50.579
12900;170915;34.76;561;03.42.50.579
12900;170921;34.76;562;03.42.50.579
12892;170920;34.76;563;03.42.50.579
12908;170919;34.76;564;03.42.50.579
12900;170917;34.76;565;03.42.50.579
12928;170920;34.76;566;03.42.50.579
12920;170919;34.76;567;03.42.50.601
12888;170918;34.76;568;03.42.50.601
12896;170912;34.76;569;03.42.50.601
12892;170917;34.76;570;03.42.50.601
12912;170927;34.76;571;03.42.50.601
12920;170922;34.76;572;03.42.50.601
12908;170913;34.76;573;03.42.50.601
12908;170923;34.76;574;03.42.50.601
12892;170924;34.76;575;03.42.50.689
12888;170921;34.76;576;03.42.50.689
12932;170935;34.76;577;03.42.50.689
12904;170923;34.76;578;03.42.50.689
12912;170930;34.76;579;03.42.50.689
12928;170926;34.76;580;03.42.50.689
12928;170920;34.76;581;03.42.50.700
12904;170926;34.76;582;03.42.50.700
12912;170935;34.76;583;03.42.50.700
12900;170933;34.76;584;03.42.50.700
12908;170927;34.76;585;03.42.50.700
12876;170929;34.76;586;03.42.50.700
12920;170934;34.76;587;03.42.50.700
12888;170930;34.76;588;03.42.50.700
12916;170927;34.76;589;03.42.50.700
12904;170932;34.76;590;03.42.50.700
12904;170937;34.76;591;03.42.50.700
12884;170929;34.76;592;03.42.50.700
12896;170926;34.76;593;03.42.50.700
12912;170940;34.76;594;03.42.50.711
12896;170935;34.76;595;03.42.50.711
12892;170946;34.76;596;03.42.50.711
12912;170935;34.76;597;03.42.50.711
12896;170941;34.76;598;03.42.50.711
12876;170942;34.76;599;03.42.50.711
12908;170950;34.80;600;03.42.50.821
12876;170947;34.80;601;03.42.50.821
12912;170943;34.80;602;03.42.50.832
12892;170945;34.80;603;03.42.50.832
12880;170960;34.80;604;03.42.50.832
12888;170965;34.80;605;03.42.50.832
12872;170956;34.80;606;03.42.50.832
12884;170964;34.80;607;03.42.50.832
12880;170950;34.80;608;03.42.50.832
12912;170956;34.80;609;03.42.50.832
12920;170961;34.80;610;03.42.50.832
12904;170957;34.80;611;03.42.50.832
12920;170964;34.80;612;03.42.50.832
12908;170968;34.80;613;03.42.50.832
12912;170966;34.80;614;03.42.50.832
12892;170969;34.80;615;03.42.50.843
12920;170974;34.80;616;03.42.50.843
12888;170965;34.80;617;03.42.50.843
12880;170971;34.80;618;03.42.50.843
12888;170972;34.80;619;03.42.50.843
12888;170969;34.80;620;03.42.50.843
12888;170979;34.80;621;03.42.50.843
12892;170977;34.80;622;03.42.50.843
12896;170978;34.80;623;03.42.50.843
12904;170986;34.80;624;03.42.50.843
12892;170989;34.80;625;03.42.50.941
12888;170983;34.80;626;03.42.50.941
12944;170993;34.80;627;03.42.50.941
12896;170988;34.80;628;03.42.50.941
12916;170993;34.80;629;03.42.50.941
12904;170996;34.80;630;03.42.50.941
12884;170986;34.80;631;03.42.50.941
12920;170994;34.80;632;03.42.50.941
12896;170993;34.80;633;03.42.50.963
12908;171000;34.80;634;03.42.50.963
12908;171004;34.80;635;03.42.50.963
12900;170996;34.80;636;03.42.50.963
12928;171003;34.80;637;03.42.50.963
12908;170999;34.80;638;03.42.50.963
12884;171005;34.80;639;03.42.50.963
12896;171010;34.80;640;03.42.50.963
12932;171005;34.80;641;03.42.50.963
12904;171003;34.80;642;03.42.50.963
12880;171002;34.80;643;03.42.50.963
12928;171016;34.80;644;03.42.50.963
12888;171005;34.80;645;03.42.50.974
12908;171004;34.80;646;03.42.50.974
12908;171009;34.80;647;03.42.50.974
12916;171011;34.80;648;03.42.50.974
12912;171011;34.80;649;03.42.50.974
12916;171016;34.76;650;03.42.51.062
12908;171008;34.76;651;03.42.51.062
12888;171026;34.76;652;03.42.51.062
12892;171016;34.76;653;03.42.51.062
12884;171014;34.76;654;03.42.51.062
12916;171020;34.76;655;03.42.51.062
12928;171017;34.76;656;03.42.51.062
12928;171020;34.76;657;03.42.51.062
12904;171031;34.76;658;03.42.51.073
12888;171027;34.76;659;03.42.51.073
12928;171028;34.76;660;03.42.51.073
12912;171032;34.76;661;03.42.51.073
12888;171022;34.76;662;03.42.51.073
12908;171031;34.76;663;03.42.51.073
12868;171036;34.76;664;03.42.51.073
12892;171029;34.76;665;03.42.51.073
12928;171034;34.76;666;03.42.51.073
12912;171034;34.76;667;03.42.51.073
12880;171039;34.76;668;03.42.51.073
12892;171033;34.76;669;03.42.51.073
12884;171044;34.76;670;03.42.51.073
12908;171038;34.76;671;03.42.51.084
12884;171031;34.76;672;03.42.51.084
12912;171033;34.76;673;03.42.51.084
12928;171023;34.76;674;03.42.51.084
12888;171023;34.76;675;03.42.51.183
12876;171020;34.76;676;03.42.51.183
12944;171028;34.76;677;03.42.51.183
12896;171012;34.76;678;03.42.51.183
12896;171008;34.76;679;03.42.51.183
12904;171002;34.76;680;03.42.51.184
12912;171001;34.76;681;03.42.51.195
12884;170994;34.76;682;03.42.51.195
12908;171000;34.76;683;03.42.51.195
12892;170994;34.76;684;03.42.51.195
12896;170990;34.76;685;03.42.51.195
12904;170987;34.76;686;03.42.51.195
12920;170986;34.76;687;03.42.51.195
12904;170975;34.76;688;03.42.51.195
12912;170980;34.76;689;03.42.51.195
12928;170975;34.76;690;03.42.51.195
12912;170968;34.76;691;03.42.51.195
12900;170968;34.76;692;03.42.51.195
12876;170962;34.76;693;03.42.51.195
12892;170960;34.76;694;03.42.51.205
12884;170961;34.76;695;03.42.51.205
12928;170958;34.76;696;03.42.51.205
12900;170960;34.76;697;03.42.51.205
12908;170963;34.76;698;03.42.51.205
12912;170960;34.76;699;03.42.51.205
12892;170958;34.80;700;03.42.51.315
12892;170941;34.80;701;03.42.51.326
12900;170962;34.80;702;03.42.51.326
12904;170961;34.80;703;03.42.51.326
12928;170957;34.80;704;03.42.51.326
12904;170955;34.80;705;03.42.51.326
12920;170942;34.80;706;03.42.51.326
12916;170954;34.80;707;03.42.51.326
12888;170947;34.80;708;03.42.51.326
12928;170951;34.80;709;03.42.51.337
12892;170949;34.80;710;03.42.51.337
12912;170950;34.80;711;03.42.51.337
12892;170946;34.80;712;03.42.51.337
12936;170953;34.80;713;03.42.51.337
12928;170950;34.80;714;03.42.51.337
12928;170949;34.80;715;03.42.51.337
12896;170952;34.80;716;03.42.51.337
12928;170956;34.80;717;03.42.51.337
12920;170959;34.80;718;03.42.51.337
12928;170958;34.80;719;03.42.51.337
12924;170962;34.80;720;03.42.51.337
12928;170960;34.80;721;03.42.51.337
12928;170957;34.80;722;03.42.51.337
12928;170956;34.80;723;03.42.51.348
12888;170956;34.80;724;03.42.51.348
12928;170954;34.80;725;03.42.51.436
12892;170954;34.80;726;03.42.51.436
12880;170958;34.80;727;03.42.51.436
12904;170959;34.80;728;03.42.51.436
12912;170961;34.80;729;03.42.51.436
12880;170966;34.80;730;03.42.51.436
12916;170954;34.80;731;03.42.51.436
12936;170961;34.80;732;03.42.51.436
12916;170960;34.80;733;03.42.51.458
12892;170964;34.80;734;03.42.51.458
12932;170957;34.80;735;03.42.51.458
12912;170961;34.80;736;03.42.51.458
12924;170964;34.80;737;03.42.51.458
12920;170957;34.80;738;03.42.51.458
12900;170948;34.80;739;03.42.51.458
12912;170958;34.80;740;03.42.51.458
12912;170950;34.80;741;03.42.51.458
12912;170946;34.80;742;03.42.51.458
12892;170958;34.80;743;03.42.51.458
12928;170953;34.80;744;03.42.51.469
12908;170947;34.80;745;03.42.51.469
12916;170956;34.80;746;03.42.51.469
12900;170951;34.80;747;03.42.51.469
12896;170952;34.80;748;03.42.51.469
12912;170952;34.80;749;03.42.51.469
12892;170953;34.80;750;03.42.51.556
12916;170951;34.80;751;03.42.51.556
12904;170950;34.80;752;03.42.51.556
12908;170946;34.80;753;03.42.51.556
12916;170953;34.80;754;03.42.51.556
12928;170955;34.80;755;03.42.51.556
12892;170953;34.80;756;03.42.51.556
12892;170956;34.80;757;03.42.51.567
12892;170960;34.80;758;03.42.51.567
12908;170955;34.80;759;03.42.51.567
12928;170965;34.80;760;03.42.51.567
12920;170956;34.80;761;03.42.51.567
12912;170960;34.80;762;03.42.51.567
12912;170966;34.80;763;03.42.51.567
12876;170967;34.80;764;03.42.51.567
12916;170970;34.80;765;03.42.51.567
12892;170969;34.80;766;03.42.51.567
12928;170962;34.80;767;03.42.51.567
12892;170970;34.80;768;03.42.51.567
12892;170966;34.80;769;03.42.51.567
12908;170974;34.80;770;03.42.51.578
12928;170978;34.80;771;03.42.51.578
12888;170969;34.80;772;03.42.51.578
12888;170974;34.80;773;03.42.51.578
12924;170974;34.80;774;03.42.51.578
12900;170972;34.80;775;03.42.51.677
12916;170985;34.80;776;03.42.51.677
12896;170981;34.80;777;03.42.51.677
12896;170982;34.80;778;03.42.51.688
12860;170978;34.80;779;03.42.51.688
12912;170988;34.80;780;03.42.51.688
12872;170989;34.80;781;03.42.51.688
12908;170986;34.80;782;03.42.51.688
12904;170986;34.80;783;03.42.51.688
12892;170993;34.80;784;03.42.51.688
12892;170999;34.80;785;03.42.51.688
12920;170993;34.80;786;03.42.51.688
12908;170993;34.80;787;03.42.51.688
12928;170991;34.80;788;03.42.51.688
12928;170988;34.80;789;03.42.51.688
12900;171001;34.80;790;03.42.51.688
12908;170995;34.80;791;03.42.51.688
12904;170995;34.80;792;03.42.51.699
12892;170996;34.80;793;03.42.51.699
12916;171005;34.80;794;03.42.51.699
12884;170999;34.80;795;03.42.51.699
12900;171003;34.80;796;03.42.51.699
12912;171004;34.80;797;03.42.51.699
12932;171003;34.80;798;03.42.51.699
12928;171000;34.80;799;03.42.51.699
12928;171012;34.76;800;03.42.51.820
12928;171002;34.76;801;03.42.51.820
12920;171015;34.76;802;03.42.51.820
12896;171012;34.76;803;03.42.51.820
12908;171010;34.76;804;03.42.51.820
12920;171006;34.76;805;03.42.51.820
12916;171006;34.76;806;03.42.51.820
12904;171007;34.76;807;03.42.51.820
12912;171009;34.76;808;03.42.51.820
12924;171016;34.76;809;03.42.51.820
12908;171021;34.76;810;03.42.51.820
12916;171015;34.76;811;03.42.51.820
12928;171009;34.76;812;03.42.51.820
12880;171014;34.76;813;03.42.51.822
12884;171014;34.76;814;03.42.51.822
12896;171011;34.76;815;03.42.51.833
12888;171021;34.76;816;03.42.51.833
12884;171025;34.76;817;03.42.51.855
12900;171026;34.76;818;03.42.51.855
12908;171028;34.76;819;03.42.51.866
12924;171030;34.76;820;03.42.51.866
12912;171027;34.76;821;03.42.51.866
12928;171025;34.76;822;03.42.51.866
12924;171031;34.76;823;03.42.51.866
12928;171035;34.76;824;03.42.51.866
12884;171038;34.76;825;03.42.51.953
12904;171041;34.76;826;03.42.51.953
12908;171037;34.76;827;03.42.51.953
12884;171042;34.76;828;03.42.51.953
12912;171035;34.76;829;03.42.51.953
12896;171039;34.76;830;03.42.51.953
12888;171038;34.76;831;03.42.51.953
12888;171042;34.76;832;03.42.51.953
12908;171044;34.76;833;03.42.51.953
12884;171040;34.76;834;03.42.51.953
12904;171040;34.76;835;03.42.51.953
12892;171045;34.76;836;03.42.51.964
12908;171044;34.76;837;03.42.51.964
12904;171043;34.76;838;03.42.51.964
12896;171042;34.76;839;03.42.51.964
12868;171031;34.76;840;03.42.51.964
12928;171034;34.76;841;03.42.51.964
12928;171032;34.76;842;03.42.51.964
12892;171025;34.76;843;03.42.51.964
12928;171022;34.76;844;03.42.51.964
12888;171019;34.76;845;03.42.51.964
12928;171018;34.76;846;03.42.51.964
12900;171009;34.76;847;03.42.51.964
12920;171006;34.76;848;03.42.51.964
12928;171004;34.76;849;03.42.51.975
12912;171003;34.80;850;03.42.52.063
12928;170990;34.80;851;03.42.52.063
12892;170988;34.80;852;03.42.52.063
12944;170990;34.80;853;03.42.52.063
12928;170981;34.80;854;03.42.52.063
12916;170981;34.80;855;03.42.52.063
12892;170976;34.80;856;03.42.52.063
12892;170968;34.80;857;03.42.52.063
12892;170974;34.80;858;03.42.52.085
12912;170972;34.80;859;03.42.52.085
12900;170973;34.80;860;03.42.52.085
12920;170963;34.80;861;03.42.52.085
12892;170964;34.80;862;03.42.52.085
12908;170960;34.80;863;03.42.52.085
12892;170955;34.80;864;03.42.52.085
12924;170959;34.80;865;03.42.52.085
12912;170950;34.80;866;03.42.52.096
12912;170955;34.80;867;03.42.52.096
12896;170955;34.80;868;03.42.52.096
12896;170958;34.80;869;03.42.52.096
12876;170961;34.80;870;03.42.52.096
12912;170949;34.80;871;03.42.52.096
12892;170959;34.80;872;03.42.52.096
12916;170955;34.80;873;03.42.52.096
12904;170955;34.80;874;03.42.52.096
12908;170967;34.80;875;03.42.52.195
12908;170955;34.80;876;03.42.52.195
12908;170959;34.80;877;03.42.52.195
12884;170958;34.80;878;03.42.52.195
12908;170963;34.80;879;03.42.52.195
12888;170961;34.80;880;03.42.52.206
12916;170966;34.80;881;03.42.52.206
12916;170971;34.80;882;03.42.52.206
12920;170974;34.80;883;03.42.52.206
12908;170971;34.80;884;03.42.52.206
12900;170962;34.80;885;03.42.52.206
12916;170969;34.80;886;03.42.52.206
12900;170958;34.80;887;03.42.52.206
12900;170968;34.80;888;03.42.52.217
12904;170970;34.80;889;03.42.52.217
12884;170970;34.80;890;03.42.52.217
12896;170975;34.80;891;03.42.52.217
12900;170970;34.80;892;03.42.52.217
12860;170973;34.80;893;03.42.52.217
12888;170974;34.80;894;03.42.52.217
12928;170977;34.80;895;03.42.52.217
12888;170967;34.80;896;03.42.52.228
12916;170974;34.80;897;03.42.52.228
12900;170977;34.80;898;03.42.52.228
12944;170975;34.80;899;03.42.52.228
12916;170980;34.80;900;03.42.52.315
12928;170975;34.80;901;03.42.52.315
12892;170977;34.80;902;03.42.52.315
12896;170977;34.80;903;03.42.52.315
12904;170980;34.80;904;03.42.52.315
12924;170975;34.80;905;03.42.52.315
12912;170975;34.80;906;03.42.52.315
12912;170970;34.80;907;03.42.52.315
12892;170969;34.80;908;03.42.52.315
12912;170967;34.80;909;03.42.52.315
12928;170970;34.80;910;03.42.52.315
12880;170973;34.80;911;03.42.52.315
12896;170972;34.80;912;03.42.52.315
12876;170968;34.80;913;03.42.52.315
12916;170970;34.80;914;03.42.52.326
12904;170970;34.80;915;03.42.52.326
12892;170964;34.80;916;03.42.52.326
12900;170962;34.80;917;03.42.52.326
12928;170962;34.80;918;03.42.52.326
12908;170966;34.80;919;03.42.52.326
12932;170971;34.80;920;03.42.52.326
12912;170975;34.80;921;03.42.52.326
12892;170974;34.80;922;03.42.52.326
12912;170965;34.80;923;03.42.52.326
12936;170978;34.80;924;03.42.52.326
12884;170977;34.80;925;03.42.52.447
12912;170973;34.80;926;03.42.52.447
12908;170978;34.80;927;03.42.52.447
12892;170978;34.80;928;03.42.52.447
12920;170972;34.80;929;03.42.52.447
12912;170973;34.80;930;03.42.52.447
12920;170979;34.80;931;03.42.52.447
12892;170974;34.80;932;03.42.52.447
12888;170988;34.80;933;03.42.52.447
12936;170985;34.80;934;03.42.52.458
12896;170987;34.80;935;03.42.52.458
12892;170995;34.80;936;03.42.52.458
12908;170993;34.80;937;03.42.52.458
12932;170989;34.80;938;03.42.52.458
12896;170994;34.80;939;03.42.52.458
12912;170993;34.80;940;03.42.52.458
12892;170992;34.80;941;03.42.52.458
12920;170993;34.80;942;03.42.52.458
12892;171005;34.80;943;03.42.52.458
12896;170994;34.80;944;03.42.52.458
12900;170996;34.80;945;03.42.52.458
12920;171001;34.80;946;03.42.52.458
12912;171006;34.80;947;03.42.52.469
12896;171007;34.80;948;03.42.52.469
12920;170998;34.80;949;03.42.52.469
12912;171011;34.76;950;03.42.52.557
12876;171015;34.76;951;03.42.52.557
12904;171020;34.76;952;03.42.52.557
12916;171014;34.76;953;03.42.52.557
12928;171017;34.76;954;03.42.52.557
12892;171015;34.76;955;03.42.52.557
12900;171020;34.76;956;03.42.52.568
12884;171024;34.76;957;03.42.52.568
12892;171021;34.76;958;03.42.52.568
12876;171017;34.76;959;03.42.52.568
12908;171022;34.76;960;03.42.52.568
12920;171025;34.76;961;03.42.52.568
12884;171036;34.76;962;03.42.52.568
12896;171038;34.76;963;03.42.52.579
12912;171034;34.76;964;03.42.52.579
12928;171033;34.76;965;03.42.52.579
12912;171034;34.76;966;03.42.52.579
12896;171039;34.76;967;03.42.52.579
12936;171042;34.76;968;03.42.52.579
12908;171041;34.76;969;03.42.52.579
12892;171046;34.76;970;03.42.52.579
12928;171047;34.76;971;03.42.52.579
12860;171039;34.76;972;03.42.52.579
12884;171047;34.76;973;03.42.52.579
12904;171046;34.76;974;03.42.52.590
12928;171045;34.76;975;03.42.52.677
12924;171047;34.76;976;03.42.52.677
12896;171051;34.76;977;03.42.52.688
12900;171053;34.76;978;03.42.52.688
12884;171049;34.76;979;03.42.52.688
12868;171053;34.76;980;03.42.52.688
12912;171057;34.76;981;03.42.52.688
12912;171060;34.76;982;03.42.52.688
12908;171064;34.76;983;03.42.52.688
12904;171064;34.76;984;03.42.52.688
12892;171059;34.76;985;03.42.52.688
12944;171070;34.76;986;03.42.52.688
12924;171066;34.76;987;03.42.52.688
12892;171071;34.76;988;03.42.52.688
12904;171073;34.76;989;03.42.52.688
12928;171077;34.76;990;03.42.52.688
12896;171075;34.76;991;03.42.52.700
12892;171079;34.76;992;03.42.52.700
12896;171086;34.76;993;03.42.52.700
12904;171080;34.76;994;03.42.52.700
12892;171084;34.76;995;03.42.52.700
12912;171082;34.76;996;03.42.52.700
12920;171092;34.76;997;03.42.52.700
12896;171089;34.76;998;03.42.52.700
12928;171087;34.76;999;03.42.52.700
12908;171094;34.76;000;03.42.52.820
12928;171096;34.76;001;03.42.52.820
12920;171089;34.76;002;03.42.52.820
12884;171094;34.76;003;03.42.52.820
12900;171093;34.76;004;03.42.52.820
12920;171082;34.76;005;03.42.52.820
12920;171088;34.76;006;03.42.52.820
12928;171086;34.76;007;03.42.52.820
12896;171084;34.76;008;03.42.52.820
12892;171084;34.76;009;03.42.52.820
12884;171079;34.76;010;03.42.52.820
12904;171078;34.76;011;03.42.52.831
12920;171073;34.76;012;03.42.52.831
12900;171075;34.76;013;03.42.52.831
12900;171068;34.76;014;03.42.52.831
12896;171068;34.76;015;03.42.52.831
12928;171066;34.76;016;03.42.52.831
12892;171057;34.76;017;03.42.52.831
12908;171056;34.76;018;03.42.52.831
12908;171053;34.76;019;03.42.52.831
12928;171054;34.76;020;03.42.52.831
12904;171048;34.76;021;03.42.52.831
12916;171041;34.76;022;03.42.52.831
12904;171036;34.76;023;03.42.52.831
12912;171037;34.76;024;03.42.52.842
12912;171028;34.76;025;03.42.52.951
12892;171023;34.76;026;03.42.52.951
12892;171034;34.76;027;03.42.52.951
12944;171011;34.76;028;03.42.52.951
12888;171006;34.76;029;03.42.52.951
12892;171016;34.76;030;03.42.52.951
12912;171013;34.76;031;03.42.52.951
12900;171008;34.76;032;03.42.52.951
12916;171004;34.76;033;03.42.52.962
12920;171004;34.76;034;03.42.52.962
12884;171001;34.76;035;03.42.52.962
12916;171001;34.76;036;03.42.52.962
12900;171000;34.76;037;03.42.52.962
12904;170997;34.76;038;03.42.52.962
12892;170996;34.76;039;03.42.52.962
12892;170997;34.76;040;03.42.52.962
12908;171008;34.76;041;03.42.52.962
12904;171001;34.76;042;03.42.52.962
12924;170999;34.76;043;03.42.52.962
12888;171004;34.76;044;03.42.52.962
12920;170995;34.76;045;03.42.52.962
12892;170999;34.76;046;03.42.52.973
12912;171006;34.76;047;03.42.52.973
12912;170999;34.76;048;03.42.52.973
12924;171001;34.76;049;03.42.52.973
12904;171002;34.80;050;03.42.53.083
12896;171000;34.80;051;03.42.53.083
12912;171003;34.80;052;03.42.53.083
12892;170996;34.80;053;03.42.53.083
12896;171003;34.80;054;03.42.53.094
12904;170995;34.80;055;03.42.53.094
12860;171006;34.80;056;03.42.53.094
12920;170996;34.80;057;03.42.53.094
12924;170989;34.80;058;03.42.53.127
12892;171006;34.80;059;03.42.53.127
12892;171002;34.80;060;03.42.53.127
12892;170996;34.80;061;03.42.53.138
12904;170999;34.80;062;03.42.53.138
12900;170996;34.80;063;03.42.53.138
12884;171000;34.80;064;03.42.53.138
12900;171005;34.80;065;03.42.53.138
12904;171002;34.80;066;03.42.53.138
12900;171004;34.80;067;03.42.53.138
12920;170995;34.80;068;03.42.53.138
12916;170999;34.80;069;03.42.53.138
12884;170997;34.80;070;03.42.53.138
12884;170993;34.80;071;03.42.53.138
12904;171006;34.80;072;03.42.53.138
12908;170999;34.80;073;03.42.53.138
12916;171004;34.80;074;03.42.53.149
12896;170990;34.80;075;03.42.53.182
12892;170992;34.80;076;03.42.53.193
12892;170991;34.80;077;03.42.53.193
12900;170991;34.80;078;03.42.53.193
12888;170991;34.80;079;03.42.53.193
12892;170995;34.80;080;03.42.53.193
12892;170993;34.80;081;03.42.53.193
12900;170991;34.80;082;03.42.53.193
12892;170990;34.80;083;03.42.53.193
12924;170986;34.80;084;03.42.53.193
12880;170991;34.80;085;03.42.53.204
12908;170992;34.80;086;03.42.53.204
12912;170994;34.80;087;03.42.53.204
12904;170993;34.80;088;03.42.53.204
12892;170989;34.80;089;03.42.53.204
12944;170989;34.80;090;03.42.53.204
12876;170992;34.80;091;03.42.53.204
12936;170989;34.80;092;03.42.53.226
12928;170987;34.80;093;03.42.53.226
12920;170988;34.80;094;03.42.53.226
12900;170994;34.80;095;03.42.53.226
12896;170991;34.80;096;03.42.53.226
12892;170991;34.80;097;03.42.53.226
12916;170994;34.80;098;03.42.53.226
12900;170995;34.80;099;03.42.53.226
12888;170998;34.76;100;03.42.53.313
12892;170993;34.76;101;03.42.53.313
12932;170999;34.76;102;03.42.53.313
12900;170992;34.76;103;03.42.53.313
12888;171002;34.76;104;03.42.53.313
12908;171007;34.76;105;03.42.53.313
12928;171005;34.76;106;03.42.53.313
12908;170999;34.76;107;03.42.53.313
12928;170994;34.76;108;03.42.53.324
12908;170998;34.76;109;03.42.53.324
12932;171003;34.76;110;03.42.53.324
12904;171006;34.76;111;03.42.53.324
12928;171001;34.76;112;03.42.53.324
12928;171008;34.76;113;03.42.53.324
12908;171012;34.76;114;03.42.53.324
12920;171006;34.76;115;03.42.53.324
12884;171011;34.76;116;03.42.53.324
12888;171007;34.76;117;03.42.53.335
12904;171016;34.76;118;03.42.53.335
12916;171015;34.76;119;03.42.53.335
12900;171011;34.76;120;03.42.53.335
12912;171014;34.76;121;03.42.53.335
12888;171016;34.76;122;03.42.53.335
12900;171014;34.76;123;03.42.53.335
12928;171012;34.76;124;03.42.53.335
12892;171021;34.76;125;03.42.53.445
12904;171015;34.76;126;03.42.53.445
12904;171015;34.76;127;03.42.53.445
12924;171012;34.76;128;03.42.53.445
12884;171018;34.76;129;03.42.53.445
12884;171024;34.76;130;03.42.53.456
12912;171019;34.76;131;03.42.53.456
12896;171016;34.76;132;03.42.53.456
12920;171031;34.76;133;03.42.53.456
12904;171026;34.76;134;03.42.53.456
12892;171025;34.76;135;03.42.53.456
12880;171020;34.76;136;03.42.53.456
12928;171025;34.76;137;03.42.53.456
12900;171025;34.76;138;03.42.53.456
12900;171020;34.76;139;03.42.53.456
12920;171021;34.76;140;03.42.53.456
12912;171030;34.76;141;03.42.53.456
12900;171035;34.76;142;03.42.53.456
12916;171036;34.76;143;03.42.53.456
12884;171038;34.76;144;03.42.53.468
12936;171030;34.76;145;03.42.53.468
12880;171032;34.76;146;03.42.53.468
12872;171045;34.76;147;03.42.53.468
12912;171040;34.76;148;03.42.53.468
12904;171034;34.76;149;03.42.53.468
12884;171047;34.80;150;03.42.53.578
12884;171050;34.80;151;03.42.53.578
12892;171050;34.80;152;03.42.53.578
12904;171047;34.80;153;03.42.53.578
12892;171053;34.80;154;03.42.53.589
12908;171051;34.80;155;03.42.53.589
12896;171048;34.80;156;03.42.53.589
12916;171057;34.80;157;03.42.53.589
12908;171063;34.80;158;03.42.53.589
12888;171052;34.80;159;03.42.53.589
12912;171063;34.80;160;03.42.53.589
12876;171064;34.80;161;03.42.53.589
12896;171057;34.80;162;03.42.53.589
12892;171062;34.80;163;03.42.53.589
12896;171061;34.80;164;03.42.53.589
12872;171063;34.80;165;03.42.53.589
12900;171065;34.80;166;03.42.53.589
12932;171072;34.80;167;03.42.53.600
12932;171068;34.80;168;03.42.53.600
12888;171068;34.80;169;03.42.53.600
12892;171071;34.80;170;03.42.53.600
12928;171072;34.80;171;03.42.53.600
12908;171070;34.80;172;03.42.53.600
12896;171077;34.80;173;03.42.53.600
12928;171078;34.80;174;03.42.53.600
12916;171076;34.80;175;03.42.53.687
12904;171083;34.80;176;03.42.53.687
12896;171080;34.80;177;03.42.53.687
12896;171087;34.80;178;03.42.53.687
12916;171077;34.80;179;03.42.53.687
12900;171076;34.80;180;03.42.53.687
12928;171075;34.80;181;03.42.53.687
12888;171082;34.80;182;03.42.53.687
12904;171079;34.80;183;03.42.53.720
12904;171077;34.80;184;03.42.53.720
12908;171079;34.80;185;03.42.53.720
12904;171078;34.80;186;03.42.53.720
12904;171065;34.80;187;03.42.53.720
12908;171063;34.80;188;03.42.53.720
12936;171064;34.80;189;03.42.53.720
12876;171057;34.80;190;03.42.53.720
12892;171052;34.80;191;03.42.53.720
12904;171045;34.80;192;03.42.53.720
12912;171037;34.80;193;03.42.53.720
12908;171031;34.80;194;03.42.53.720
12912;171038;34.80;195;03.42.53.720
12896;171022;34.80;196;03.42.53.731
12872;171024;34.80;197;03.42.53.731
12912;171020;34.80;198;03.42.53.731
12960;171016;34.80;199;03.42.53.731
12920;171011;34.80;200;03.42.53.808
12896;171010;34.80;201;03.42.53.808
12896;171006;34.80;202;03.42.53.808
12928;170995;34.80;203;03.42.53.808
12908;170991;34.80;204;03.42.53.808
12904;170985;34.80;205;03.42.53.808
12916;170980;34.80;206;03.42.53.808
12908;170985;34.80;207;03.42.53.808
12884;170981;34.80;208;03.42.53.819
12896;170967;34.80;209;03.42.53.819
12900;170980;34.80;210;03.42.53.819
12908;170975;34.80;211;03.42.53.819
12892;170980;34.80;212;03.42.53.819
12916;170973;34.80;213;03.42.53.819
12884;170973;34.80;214;03.42.53.819
12892;170975;34.80;215;03.42.53.819
12928;170969;34.80;216;03.42.53.819
12896;170967;34.80;217;03.42.53.819
12892;170969;34.80;218;03.42.53.819
12912;170965;34.80;219;03.42.53.819
12900;170959;34.80;220;03.42.53.819
12888;170960;34.80;221;03.42.53.819
12888;170960;34.80;222;03.42.53.830
12884;170966;34.80;223;03.42.53.830
12932;170959;34.80;224;03.42.53.830
12908;170951;34.80;225;03.42.53.940
12900;170956;34.80;226;03.42.53.940
12920;170951;34.80;227;03.42.53.940
12888;170951;34.80;228;03.42.53.940
12904;170950;34.80;229;03.42.53.940
12900;170954;34.80;230;03.42.53.940
12884;170960;34.80;231;03.42.53.952
12928;170954;34.80;232;03.42.53.952
12924;170950;34.80;233;03.42.53.952
12928;170943;34.80;234;03.42.53.952
12884;170955;34.80;235;03.42.53.952
12908;170954;34.80;236;03.42.53.952
12928;170947;34.80;237;03.42.53.952
12916;170960;34.80;238;03.42.53.952
12892;170967;34.80;239;03.42.53.952
12908;170957;34.80;240;03.42.53.952
12904;170960;34.80;241;03.42.53.952
12932;170965;34.80;242;03.42.53.952
12912;170971;34.80;243;03.42.53.952
12904;170969;34.80;244;03.42.53.952
12912;170966;34.80;245;03.42.53.964
12904;170965;34.80;246;03.42.53.964
12892;170969;34.80;247;03.42.53.964
12928;170971;34.80;248;03.42.53.964
12892;170959;34.80;249;03.42.53.964
12896;170968;34.80;250;03.42.54.073
12868;170953;34.80;251;03.42.54.073
12876;170960;34.80;252;03.42.54.073
12896;170962;34.80;253;03.42.54.084
12900;170959;34.80;254;03.42.54.084
12908;170953;34.80;255;03.42.54.084
12904;170959;34.80;256;03.42.54.084
12924;170960;34.80;257;03.42.54.084
12936;170956;34.80;258;03.42.54.084
12900;170956;34.80;259;03.42.54.084
12920;170956;34.80;260;03.42.54.084
12888;170946;34.80;261;03.42.54.084
12936;170954;34.80;262;03.42.54.084
12860;170948;34.80;263;03.42.54.084
12912;170953;34.80;264;03.42.54.084
12920;170946;34.80;265;03.42.54.084
12896;170949;34.80;266;03.42.54.095
12928;170946;34.80;267;03.42.54.095
12900;170953;34.80;268;03.42.54.095
12920;170946;34.80;269;03.42.54.095
12896;170951;34.80;270;03.42.54.106
12928;170947;34.80;271;03.42.54.106
12892;170940;34.80;272;03.42.54.106
12880;170945;34.80;273;03.42.54.106
12912;170945;34.80;274;03.42.54.106
12900;170948;34.80;275;03.42.54.193
12876;170948;34.80;276;03.42.54.193
12916;170940;34.80;277;03.42.54.193
12892;170947;34.80;278;03.42.54.193
12912;170949;34.80;279;03.42.54.193
12912;170942;34.80;280;03.42.54.193
12920;170943;34.80;281;03.42.54.193
12904;170947;34.80;282;03.42.54.193
12884;170949;34.80;283;03.42.54.215
12912;170951;34.80;284;03.42.54.215
12892;170955;34.80;285;03.42.54.215
12872;170945;34.80;286;03.42.54.215
12868;170942;34.80;287;03.42.54.215
12908;170961;34.80;288;03.42.54.215
12912;170958;34.80;289;03.42.54.215
12928;170949;34.80;290;03.42.54.215
12928;170960;34.80;291;03.42.54.215
12880;170959;34.80;292;03.42.54.215
12904;170950;34.80;293;03.42.54.215
12892;170962;34.80;294;03.42.54.215
12908;170954;34.80;295;03.42.54.215
12920;170954;34.80;296;03.42.54.215
12892;170962;34.80;297;03.42.54.226
12876;170965;34.80;298;03.42.54.226
12928;170955;34.80;299;03.42.54.226
12892;170959;34.80;300;03.42.54.314
12860;170966;34.80;301;03.42.54.314
12916;170966;34.80;302;03.42.54.314
12936;170960;34.80;303;03.42.54.314
12916;170965;34.80;304;03.42.54.314
12924;170964;34.80;305;03.42.54.314
12912;170957;34.80;306;03.42.54.314
12892;170968;34.80;307;03.42.54.314
12876;170973;34.80;308;03.42.54.314
12928;170964;34.80;309;03.42.54.326
12904;170971;34.80;310;03.42.54.326
12896;170973;34.80;311;03.42.54.326
12896;170983;34.80;312;03.42.54.326
12928;170976;34.80;313;03.42.54.326
12920;170975;34.80;314;03.42.54.326
12908;170975;34.80;315;03.42.54.326
12908;170972;34.80;316;03.42.54.326
12916;170981;34.80;317;03.42.54.348
12928;170983;34.80;318;03.42.54.348
12904;170980;34.80;319;03.42.54.348
12912;170976;34.80;320;03.42.54.348
12920;170981;34.80;321;03.42.54.348
12892;170983;34.80;322;03.42.54.348
12892;170977;34.80;323;03.42.54.348
12904;170989;34.80;324;03.42.54.348
12888;170980;34.80;325;03.42.54.435
12904;170984;34.80;326;03.42.54.435
12896;170989;34.80;327;03.42.54.435
12900;170982;34.80;328;03.42.54.435
12884;170984;34.80;329;03.42.54.435
12916;170984;34.80;330;03.42.54.446
12924;170992;34.80;331;03.42.54.446
12892;170994;34.80;332;03.42.54.446
12916;170999;34.80;333;03.42.54.446
12912;170997;34.80;334;03.42.54.446
12892;170999;34.80;335;03.42.54.446
12920;170999;34.80;336;03.42.54.446
12888;171006;34.80;337;03.42.54.446
12884;171010;34.80;338;03.42.54.446
12884;170997;34.80;339;03.42.54.446
12900;171007;34.80;340;03.42.54.446
12892;171004;34.80;341;03.42.54.446
12892;171015;34.80;342;03.42.54.446
12892;171010;34.80;343;03.42.54.457
12884;171013;34.80;344;03.42.54.457
12892;171007;34.80;345;03.42.54.457
12904;171012;34.80;346;03.42.54.457
12888;171005;34.80;347;03.42.54.457
12920;171007;34.80;348;03.42.54.457
12920;171002;34.80;349;03.42.54.457
12912;171012;34.76;350;03.42.54.566
12908;171018;34.76;351;03.42.54.577
12892;171011;34.76;352;03.42.54.577
12892;171015;34.76;353;03.42.54.577
12900;171023;34.76;354;03.42.54.577
12904;171025;34.76;355;03.42.54.577
12880;171020;34.76;356;03.42.54.577
12908;171035;34.76;357;03.42.54.577
12912;171031;34.76;358;03.42.54.577
12892;171031;34.76;359;03.42.54.577
12892;171027;34.76;360;03.42.54.577
12868;171027;34.76;361;03.42.54.577
12908;171027;34.76;362;03.42.54.577
12916;171030;34.76;363;03.42.54.577
12912;171022;34.76;364;03.42.54.588
12904;171028;34.76;365;03.42.54.588
12908;171017;34.76;366;03.42.54.588
12896;171010;34.76;367;03.42.54.588
12888;171008;34.76;368;03.42.54.588
12904;170997;34.76;369;03.42.54.588
12900;170997;34.76;370;03.42.54.588
12900;170995;34.76;371;03.42.54.588
12892;170991;34.76;372;03.42.54.588
12896;170984;34.76;373;03.42.54.588
12928;170981;34.76;374;03.42.54.588
12896;170982;34.76;375;03.42.54.687
12916;170969;34.76;376;03.42.54.687
12900;170970;34.76;377;03.42.54.687
12932;170965;34.76;378;03.42.54.687
12892;170960;34.76;379;03.42.54.687
12928;170954;34.76;380;03.42.54.687
12920;170961;34.76;381;03.42.54.687
12912;170946;34.76;382;03.42.54.687
12892;170953;34.76;383;03.42.54.709
12908;170945;34.76;384;03.42.54.709
12892;170940;34.76;385;03.42.54.709
12892;170936;34.76;386;03.42.54.709
12932;170938;34.76;387;03.42.54.709
12940;170935;34.76;388;03.42.54.709
12904;170940;34.76;389;03.42.54.709
12896;170931;34.76;390;03.42.54.709
12884;170937;34.76;391;03.42.54.709
12900;170927;34.76;392;03.42.54.709
12908;170925;34.76;393;03.42.54.709
12892;170929;34.76;394;03.42.54.720
12928;170933;34.76;395;03.42.54.720
12904;170932;34.76;396;03.42.54.720
12896;170924;34.76;397;03.42.54.720
12916;170927;34.76;398;03.42.54.720
12944;170929;34.76;399;03.42.54.720
12904;170930;34.80;400;03.42.54.819
12896;170931;34.80;401;03.42.54.819
12900;170933;34.80;402;03.42.54.819
12892;170929;34.80;403;03.42.54.819
12892;170929;34.80;404;03.42.54.819
12904;170927;34.80;405;03.42.54.819
12912;170928;34.80;406;03.42.54.819
12900;170926;34.80;407;03.42.54.830
12936;170924;34.80;408;03.42.54.830
12900;170927;34.80;409;03.42.54.830
12900;170925;34.80;410;03.42.54.830
12912;170924;34.80;411;03.42.54.830
12920;170930;34.80;412;03.42.54.830
12880;170928;34.80;413;03.42.54.830
12920;170928;34.80;414;03.42.54.841
12892;170932;34.80;415;03.42.54.841
12928;170931;34.80;416;03.42.54.841
12920;170929;34.80;417;03.42.54.841
12928;170929;34.80;418;03.42.54.841
12916;170933;34.80;419;03.42.54.841
12868;170935;34.80;420;03.42.54.841
12928;170925;34.80;421;03.42.54.841
12916;170933;34.80;422;03.42.54.841
12908;170934;34.80;423;03.42.54.841
12908;170936;34.80;424;03.42.54.841
12912;170924;34.80;425;03.42.54.928
12920;170935;34.80;426;03.42.54.928
12904;170939;34.80;427;03.42.54.928
12896;170932;34.80;428;03.42.54.939
12916;170936;34.80;429;03.42.54.939
12936;170927;34.80;430;03.42.54.939
12876;170923;34.80;431;03.42.54.939
12928;170924;34.80;432;03.42.54.939
12916;170921;34.80;433;03.42.54.939
12904;170915;34.80;434;03.42.54.939
12896;170911;34.80;435;03.42.54.939
12880;170916;34.80;436;03.42.54.939
12912;170913;34.80;437;03.42.54.950
12912;170917;34.80;438;03.42.54.950
12900;170921;34.80;439;03.42.54.950
12916;170913;34.80;440;03.42.54.950
12908;170917;34.80;441;03.42.54.950
12896;170917;34.80;442;03.42.54.950
12912;170921;34.80;443;03.42.54.950
12888;170916;34.80;444;03.42.54.950
12932;170915;34.80;445;03.42.54.950
12916;170914;34.80;446;03.42.54.950
12888;170920;34.80;447;03.42.54.950
12908;170923;34.80;448;03.42.54.950
12912;170910;34.80;449;03.42.54.950
12900;170915;34.80;450;03.42.55.071
12916;170912;34.80;451;03.42.55.071
12904;170923;34.80;452;03.42.55.071
12916;170924;34.80;453;03.42.55.071
12924;170926;34.80;454;03.42.55.071
12884;170925;34.80;455;03.42.55.071
12904;170913;34.80;456;03.42.55.071
12896;170916;34.80;457;03.42.55.071
12912;170922;34.80;458;03.42.55.071
12904;170918;34.80;459;03.42.55.071
12884;170928;34.80;460;03.42.55.071
12876;170927;34.80;461;03.42.55.071
12908;170926;34.80;462;03.42.55.071
12904;170928;34.80;463;03.42.55.082
12888;170931;34.80;464;03.42.55.082
12904;170935;34.80;465;03.42.55.082
12884;170936;34.80;466;03.42.55.082
12892;170947;34.80;467;03.42.55.093
12860;170940;34.80;468;03.42.55.093
12912;170946;34.80;469;03.42.55.093
12912;170937;34.80;470;03.42.55.093
12892;170943;34.80;471;03.42.55.093
12892;170949;34.80;472;03.42.55.093
12900;170951;34.80;473;03.42.55.093
12936;170952;34.80;474;03.42.55.093
12904;170947;34.80;475;03.42.55.203
12916;170946;34.80;476;03.42.55.203
12904;170945;34.80;477;03.42.55.203
12884;170946;34.80;478;03.42.55.203
12924;170949;34.80;479;03.42.55.203
12904;170958;34.80;480;03.42.55.203
12896;170948;34.80;481;03.42.55.203
12904;170956;34.80;482;03.42.55.203
12892;170954;34.80;483;03.42.55.203
12924;170951;34.80;484;03.42.55.214
12892;170951;34.80;485;03.42.55.214
12908;170964;34.80;486;03.42.55.214
12892;170966;34.80;487;03.42.55.214
12900;170963;34.80;488;03.42.55.214
12900;170969;34.80;489;03.42.55.214
12892;170966;34.80;490;03.42.55.214
12880;170968;34.80;491;03.42.55.214
12936;170964;34.80;492;03.42.55.214
12888;170978;34.80;493;03.42.55.214
12904;170972;34.80;494;03.42.55.214
12908;170966;34.80;495;03.42.55.225
12916;170972;34.80;496;03.42.55.225
12892;170973;34.80;497;03.42.55.225
12908;170976;34.80;498;03.42.55.225
12924;170965;34.80;499;03.42.55.225
12928;170972;34.80;500;03.42.55.312
12908;170977;34.80;501;03.42.55.312
12892;170978;34.80;502;03.42.55.312
12896;170985;34.80;503;03.42.55.312
12900;170974;34.80;504;03.42.55.312
12892;170977;34.80;505;03.42.55.312
12912;170979;34.80;506;03.42.55.323
12928;170975;34.80;507;03.42.55.323
12912;170987;34.80;508;03.42.55.334
12908;170986;34.80;509;03.42.55.334
12916;170987;34.80;510;03.42.55.334
12912;170993;34.80;511;03.42.55.334
12928;170982;34.80;512;03.42.55.334
12944;170994;34.80;513;03.42.55.345
12896;170994;34.80;514;03.42.55.345
12912;170991;34.80;515;03.42.55.345
12924;170994;34.80;516;03.42.55.345
12912;170997;34.80;517;03.42.55.345
12884;170999;34.80;518;03.42.55.345
12888;170998;34.80;519;03.42.55.345
12904;170994;34.80;520;03.42.55.345
12876;171002;34.80;521;03.42.55.345
12908;170995;34.80;522;03.42.55.345
12912;170993;34.80;523;03.42.55.345
12876;170994;34.80;524;03.42.55.345
12876;170994;34.80;525;03.42.55.433
12904;170991;34.80;526;03.42.55.444
12920;170991;34.80;527;03.42.55.444
12892;170985;34.80;528;03.42.55.444
12912;170978;34.80;529;03.42.55.444
12912;170974;34.80;530;03.42.55.444
12908;170974;34.80;531;03.42.55.444
12892;170971;34.80;532;03.42.55.444
12896;170975;34.80;533;03.42.55.444
12916;170956;34.80;534;03.42.55.444
12904;170951;34.80;535;03.42.55.444
12920;170951;34.80;536;03.42.55.444
12928;170951;34.80;537;03.42.55.444
12892;170949;34.80;538;03.42.55.444
12888;170944;34.80;539;03.42.55.444
12908;170936;34.80;540;03.42.55.455
12896;170933;34.80;541;03.42.55.455
12900;170933;34.80;542;03.42.55.455
12916;170926;34.80;543;03.42.55.455
12892;170927;34.80;544;03.42.55.455
12892;170923;34.80;545;03.42.55.455
12896;170912;34.80;546;03.42.55.455
12876;170913;34.80;547;03.42.55.455
12900;170914;34.80;548;03.42.55.455
12904;170910;34.80;549;03.42.55.455
12912;170911;34.76;550;03.42.55.565
12904;170905;34.76;551;03.42.55.565
12900;170905;34.76;552;03.42.55.565
12904;170904;34.76;553;03.42.55.565
12904;170905;34.76;554;03.42.55.565
12884;170898;34.76;555;03.42.55.565
12908;170902;34.76;556;03.42.55.565
12892;170900;34.76;557;03.42.55.565
12928;170894;34.76;558;03.42.55.565
12908;170898;34.76;559;03.42.55.565
12892;170898;34.76;560;03.42.55.565
12912;170901;34.76;561;03.42.55.576
12892;170902;34.76;562;03.42.55.576
12888;170897;34.76;563;03.42.55.576
12896;170905;34.76;564;03.42.55.576
12908;170898;34.76;565;03.42.55.576
12892;170893;34.76;566;03.42.55.576
12908;170899;34.76;567;03.42.55.587
12928;170904;34.76;568;03.42.55.587
12900;170908;34.76;569;03.42.55.587
12892;170906;34.76;570;03.42.55.587
12904;170915;34.76;571;03.42.55.587
12896;170914;34.76;572;03.42.55.587
12892;170913;34.76;573;03.42.55.587
12908;170902;34.76;574;03.42.55.587
12928;170907;34.76;575;03.42.55.696
12928;170907;34.76;576;03.42.55.696
12912;170905;34.76;577;03.42.55.696
12920;170909;34.76;578;03.42.55.696
12876;170912;34.76;579;03.42.55.696
12896;170915;34.76;580;03.42.55.696
12860;170911;34.76;581;03.42.55.707
12912;170904;34.76;582;03.42.55.707
12892;170911;34.76;583;03.42.55.707
12876;170918;34.76;584;03.42.55.707
12896;170916;34.76;585;03.42.55.707
12916;170919;34.76;586;03.42.55.707
12904;170918;34.76;587;03.42.55.707
12908;170910;34.76;588;03.42.55.707
12920;170913;34.76;589;03.42.55.707
12904;170925;34.76;590;03.42.55.707
12896;170914;34.76;591;03.42.55.707
12884;170917;34.76;592;03.42.55.707
12916;170923;34.76;593;03.42.55.707
12896;170920;34.76;594;03.42.55.718
12896;170921;34.76;595;03.42.55.718
12916;170929;34.76;596;03.42.55.718
12892;170917;34.76;597;03.42.55.718
12884;170921;34.76;598;03.42.55.718
12940;170928;34.76;599;03.42.55.718
12912;170922;34.84;600;03.42.55.806
12908;170926;34.84;601;03.42.55.806
12896;170928;34.84;602;03.42.55.816
12900;170921;34.84;603;03.42.55.816
12892;170923;34.84;604;03.42.55.816
12888;170919;34.84;605;03.42.55.816
12888;170931;34.84;606;03.42.55.816
12928;170927;34.84;607;03.42.55.816
12928;170927;34.84;608;03.42.55.816
12912;170930;34.84;609;03.42.55.816
12928;170932;34.84;610;03.42.55.827
12912;170932;34.84;611;03.42.55.827
12912;170935;34.84;612;03.42.55.827
12920;170929;34.84;613;03.42.55.827
12896;170933;34.84;614;03.42.55.827
12908;170937;34.84;615;03.42.55.827
12892;170937;34.84;616;03.42.55.827
12900;170941;34.84;617;03.42.55.827
12892;170952;34.84;618;03.42.55.827
12908;170949;34.84;619;03.42.55.827
12892;170963;34.84;620;03.42.55.827
12884;170961;34.84;621;03.42.55.827
12876;170949;34.84;622;03.42.55.827
12904;170955;34.84;623;03.42.55.827
12920;170949;34.84;624;03.42.55.838
12896;170956;34.84;625;03.42.55.936
12916;170961;34.84;626;03.42.55.936
12904;170964;34.84;627;03.42.55.936
12928;170961;34.84;628;03.42.55.936
12908;170955;34.84;629;03.42.55.936
12928;170963;34.84;630;03.42.55.936
12916;170970;34.84;631;03.42.55.936
12908;170965;34.84;632;03.42.55.936
12904;170969;34.84;633;03.42.55.936
12928;170973;34.84;634;03.42.55.936
12924;170975;34.84;635;03.42.55.936
12864;170970;34.84;636;03.42.55.936
12908;170977;34.84;637;03.42.55.947
12908;170981;34.84;638;03.42.55.947
12888;170984;34.84;639;03.42.55.947
12904;170980;34.84;640;03.42.55.947
12908;170982;34.84;641;03.42.55.947
12916;170983;34.84;642;03.42.55.980
12896;170984;34.84;643;03.42.55.980
12908;170981;34.84;644;03.42.55.980
12916;170991;34.84;645;03.42.55.980
12892;170987;34.84;646;03.42.55.980
12928;170996;34.84;647;03.42.55.980
12900;170998;34.84;648;03.42.55.980
12936;171002;34.84;649;03.42.55.980
12884;170996;34.80;650;03.42.56.068
12892;170999;34.80;651;03.42.56.068
12916;170999;34.80;652;03.42.56.068
12876;170999;34.80;653;03.42.56.068
12876;171008;34.80;654;03.42.56.068
12900;171002;34.80;655;03.42.56.068
12928;171010;34.80;656;03.42.56.068
12884;171000;34.80;657;03.42.56.068
12904;171010;34.80;658;03.42.56.079
12928;171009;34.80;659;03.42.56.079
12896;171007;34.80;660;03.42.56.079
12904;171006;34.80;661;03.42.56.079
12908;171005;34.80;662;03.42.56.079
12896;171012;34.80;663;03.42.56.079
12892;171012;34.80;664;03.42.56.079
12916;171015;34.80;665;03.42.56.079
12928;171017;34.80;666;03.42.56.079
12904;171020;34.80;667;03.42.56.079
12916;171014;34.80;668;03.42.56.079
12892;171021;34.80;669;03.42.56.079
12908;171021;34.80;670;03.42.56.090
12908;171027;34.80;671;03.42.56.090
12872;171033;34.80;672;03.42.56.090
12900;171028;34.80;673;03.42.56.090
12908;171033;34.80;674;03.42.56.090
12860;171035;34.80;675;03.42.56.199
12892;171033;34.80;676;03.42.56.199
12896;171041;34.80;677;03.42.56.199
12908;171038;34.80;678;03.42.56.199
12884;171038;34.80;679;03.42.56.200
12908;171038;34.80;680;03.42.56.211
12920;171048;34.80;681;03.42.56.211
12908;171036;34.80;682;03.42.56.211
12860;171041;34.80;683;03.42.56.211
12892;171043;34.80;684;03.42.56.211
12908;171043;34.80;685;03.42.56.211
12924;171042;34.80;686;03.42.56.211
12896;171042;34.80;687;03.42.56.211
12896;171036;34.80;688;03.42.56.211
12912;171041;34.80;689;03.42.56.211
12880;171041;34.80;690;03.42.56.211
12900;171035;34.80;691;03.42.56.211
12880;171021;34.80;692;03.42.56.211
12908;171020;34.80;693;03.42.56.222
12900;171022;34.80;694;03.42.56.222
12900;171013;34.80;695;03.42.56.222
12912;171011;34.80;696;03.42.56.222
12884;171005;34.80;697;03.42.56.222
12876;171008;34.80;698;03.42.56.222
12900;170997;34.80;699;03.42.56.222
12892;170996;34.80;700;03.42.56.332
12876;170988;34.80;701;03.42.56.343
12904;170983;34.80;702;03.42.56.343
12888;170977;34.80;703;03.42.56.343
12908;170980;34.80;704;03.42.56.343
12896;170980;34.80;705;03.42.56.343
12892;170970;34.80;706;03.42.56.343
