gsr; bvp; skt; skt2; Cont; time
12892;168696;33.20;033;04.14.21.978
12868;168695;33.20;034;04.14.21.978
12856;168702;33.20;035;04.14.21.978
12896;168697;33.20;036;04.14.21.978
12896;168700;33.20;037;04.14.21.978
12876;168702;33.20;038;04.14.21.978
12896;168703;33.20;039;04.14.21.978
12876;168698;33.20;040;04.14.21.978
12904;168687;33.20;041;04.14.21.978
12904;168693;33.20;042;04.14.21.978
12892;168700;33.20;043;04.14.21.989
12900;168704;33.20;044;04.14.21.989
12872;168686;33.20;045;04.14.21.989
12876;168700;33.20;046;04.14.21.989
12888;168697;33.20;047;04.14.21.989
12856;168694;33.20;048;04.14.21.989
12916;168692;33.20;049;04.14.21.989
12884;168697;33.20;050;04.14.22.091
12892;168693;33.20;051;04.14.22.091
12876;168695;33.20;052;04.14.22.091
12888;168694;33.20;053;04.14.22.091
12888;168697;33.20;054;04.14.22.091
12860;168697;33.20;055;04.14.22.091
12888;168699;33.20;056;04.14.22.091
12884;168699;33.20;057;04.14.22.091
12896;168701;33.20;058;04.14.22.091
12908;168703;33.20;059;04.14.22.091
12928;168702;33.20;060;04.14.22.091
12864;168705;33.20;061;04.14.22.102
12900;168700;33.20;062;04.14.22.102
12880;168700;33.20;063;04.14.22.102
12852;168713;33.20;064;04.14.22.102
12884;168705;33.20;065;04.14.22.102
12888;168713;33.20;066;04.14.22.102
12892;168720;33.20;067;04.14.22.124
12884;168711;33.20;068;04.14.22.124
12884;168710;33.20;069;04.14.22.124
12888;168717;33.20;070;04.14.22.124
12880;168709;33.20;071;04.14.22.124
12860;168713;33.20;072;04.14.22.124
12876;168732;33.20;073;04.14.22.124
12928;168721;33.20;074;04.14.22.124
12868;168722;33.24;075;04.14.22.212
12856;168722;33.24;076;04.14.22.212
12864;168725;33.24;077;04.14.22.212
12876;168737;33.24;078;04.14.22.212
12896;168719;33.24;079;04.14.22.212
12888;168731;33.24;080;04.14.22.212
12880;168724;33.24;081;04.14.22.212
12888;168728;33.24;082;04.14.22.223
12920;168734;33.24;083;04.14.22.223
12884;168735;33.24;084;04.14.22.223
12892;168734;33.24;085;04.14.22.223
12904;168738;33.24;086;04.14.22.223
12928;168736;33.24;087;04.14.22.223
12860;168739;33.24;088;04.14.22.223
12872;168737;33.24;089;04.14.22.223
12868;168744;33.24;090;04.14.22.223
12892;168743;33.24;091;04.14.22.223
12876;168742;33.24;092;04.14.22.256
12872;168748;33.24;093;04.14.22.256
12916;168748;33.24;094;04.14.22.256
12880;168748;33.24;095;04.14.22.256
12908;168744;33.24;096;04.14.22.256
12880;168744;33.24;097;04.14.22.256
12884;168751;33.24;098;04.14.22.267
12908;168747;33.24;099;04.14.22.267
12888;168759;33.24;100;04.14.22.343
12888;168746;33.24;101;04.14.22.343
12876;168751;33.24;102;04.14.22.343
12868;168755;33.24;103;04.14.22.354
12884;168764;33.24;104;04.14.22.354
12900;168756;33.24;105;04.14.22.354
12872;168763;33.24;106;04.14.22.354
12896;168759;33.24;107;04.14.22.354
12876;168763;33.24;108;04.14.22.354
12880;168757;33.24;109;04.14.22.354
12896;168755;33.24;110;04.14.22.354
12888;168755;33.24;111;04.14.22.354
12904;168748;33.24;112;04.14.22.354
12880;168753;33.24;113;04.14.22.354
12880;168744;33.24;114;04.14.22.354
12904;168744;33.24;115;04.14.22.354
12900;168728;33.24;116;04.14.22.365
12872;168730;33.24;117;04.14.22.365
12880;168715;33.24;118;04.14.22.365
12900;168721;33.24;119;04.14.22.365
12892;168714;33.24;120;04.14.22.365
12876;168714;33.24;121;04.14.22.365
12860;168711;33.24;122;04.14.22.365
12900;168708;33.24;123;04.14.22.365
12876;168704;33.24;124;04.14.22.365
12888;168706;33.20;125;04.14.22.464
12876;168695;33.20;126;04.14.22.464
12868;168693;33.20;127;04.14.22.464
12884;168700;33.20;128;04.14.22.464
12880;168692;33.20;129;04.14.22.464
12884;168687;33.20;130;04.14.22.464
12900;168683;33.20;131;04.14.22.464
12860;168687;33.20;132;04.14.22.464
12880;168681;33.20;133;04.14.22.464
12884;168681;33.20;134;04.14.22.475
12884;168686;33.20;135;04.14.22.475
12880;168687;33.20;136;04.14.22.475
12904;168679;33.20;137;04.14.22.475
12880;168678;33.20;138;04.14.22.475
12876;168681;33.20;139;04.14.22.475
12876;168681;33.20;140;04.14.22.475
12852;168678;33.20;141;04.14.22.475
12880;168670;33.20;142;04.14.22.486
12896;168676;33.20;143;04.14.22.486
12872;168678;33.20;144;04.14.22.486
12860;168677;33.20;145;04.14.22.486
12844;168679;33.20;146;04.14.22.486
12888;168679;33.20;147;04.14.22.486
12880;168685;33.20;148;04.14.22.486
12900;168682;33.20;149;04.14.22.486
12860;168679;33.20;150;04.14.22.584
12920;168674;33.20;151;04.14.22.584
12896;168676;33.20;152;04.14.22.584
12904;168679;33.20;153;04.14.22.584
12876;168685;33.20;154;04.14.22.584
12876;168681;33.20;155;04.14.22.584
12892;168679;33.20;156;04.14.22.584
12904;168682;33.20;157;04.14.22.584
12880;168682;33.20;158;04.14.22.595
12908;168682;33.20;159;04.14.22.595
12888;168685;33.20;160;04.14.22.595
12876;168685;33.20;161;04.14.22.595
12892;168678;33.20;162;04.14.22.595
12880;168678;33.20;163;04.14.22.595
12892;168678;33.20;164;04.14.22.595
12876;168675;33.20;165;04.14.22.595
12888;168686;33.20;166;04.14.22.595
12888;168685;33.20;167;04.14.22.595
12896;168685;33.20;168;04.14.22.606
12896;168679;33.20;169;04.14.22.606
12912;168675;33.20;170;04.14.22.606
12880;168683;33.20;171;04.14.22.606
12880;168681;33.20;172;04.14.22.606
12888;168678;33.20;173;04.14.22.606
12896;168676;33.20;174;04.14.22.606
12884;168676;33.24;175;04.14.22.706
12872;168681;33.24;176;04.14.22.706
12876;168683;33.24;177;04.14.22.706
12904;168676;33.24;178;04.14.22.706
12876;168679;33.24;179;04.14.22.706
12912;168679;33.24;180;04.14.22.706
12876;168671;33.24;181;04.14.22.706
12872;168690;33.24;182;04.14.22.717
12880;168687;33.24;183;04.14.22.717
12884;168688;33.24;184;04.14.22.717
12928;168680;33.24;185;04.14.22.717
12880;168687;33.24;186;04.14.22.717
12868;168689;33.24;187;04.14.22.717
12900;168689;33.24;188;04.14.22.717
12876;168686;33.24;189;04.14.22.717
12928;168685;33.24;190;04.14.22.717
12872;168691;33.24;191;04.14.22.717
12908;168690;33.24;192;04.14.22.717
12908;168686;33.24;193;04.14.22.717
12896;168698;33.24;194;04.14.22.728
12884;168697;33.24;195;04.14.22.728
12864;168693;33.24;196;04.14.22.728
12896;168694;33.24;197;04.14.22.728
12880;168701;33.24;198;04.14.22.728
12896;168708;33.24;199;04.14.22.728
12880;168703;33.24;200;04.14.22.838
12896;168693;33.24;201;04.14.22.849
12876;168703;33.24;202;04.14.22.849
12884;168712;33.24;203;04.14.22.849
12864;168698;33.24;204;04.14.22.849
12868;168697;33.24;205;04.14.22.849
12868;168706;33.24;206;04.14.22.849
12872;168706;33.24;207;04.14.22.849
12880;168709;33.24;208;04.14.22.849
12876;168712;33.24;209;04.14.22.849
12872;168700;33.24;210;04.14.22.849
12880;168712;33.24;211;04.14.22.849
12896;168711;33.24;212;04.14.22.849
12912;168714;33.24;213;04.14.22.849
12888;168713;33.24;214;04.14.22.849
12880;168714;33.24;215;04.14.22.860
12888;168714;33.24;216;04.14.22.860
12896;168710;33.24;217;04.14.22.860
12876;168718;33.24;218;04.14.22.860
12888;168723;33.24;219;04.14.22.860
12904;168717;33.24;220;04.14.22.860
12876;168712;33.24;221;04.14.22.860
12884;168726;33.24;222;04.14.22.860
12900;168730;33.24;223;04.14.22.860
12904;168726;33.24;224;04.14.22.860
12880;168714;33.20;225;04.14.22.980
12888;168724;33.20;226;04.14.22.980
12884;168718;33.20;227;04.14.22.980
12876;168730;33.20;228;04.14.22.980
12872;168727;33.20;229;04.14.22.980
12888;168738;33.20;230;04.14.22.980
12860;168736;33.20;231;04.14.22.980
12928;168737;33.20;232;04.14.22.980
12896;168738;33.20;233;04.14.22.980
12888;168743;33.20;234;04.14.22.980
12844;168741;33.20;235;04.14.22.980
12912;168736;33.20;236;04.14.22.991
12880;168745;33.20;237;04.14.22.991
12880;168742;33.20;238;04.14.22.991
12892;168743;33.20;239;04.14.22.991
12876;168738;33.20;240;04.14.22.991
12876;168746;33.20;241;04.14.22.991
12884;168748;33.20;242;04.14.22.991
12876;168750;33.20;243;04.14.22.991
12852;168742;33.20;244;04.14.22.991
12912;168753;33.20;245;04.14.22.991
12868;168749;33.20;246;04.14.22.991
12884;168755;33.20;247;04.14.22.991
12868;168757;33.20;248;04.14.22.991
12900;168745;33.20;249;04.14.23.002
12892;168750;33.20;250;04.14.23.101
12896;168742;33.20;251;04.14.23.101
12880;168748;33.20;252;04.14.23.101
12880;168748;33.20;253;04.14.23.101
12876;168740;33.20;254;04.14.23.101
12888;168747;33.20;255;04.14.23.101
12888;168749;33.20;256;04.14.23.101
12884;168745;33.20;257;04.14.23.101
12904;168738;33.20;258;04.14.23.112
12888;168738;33.20;259;04.14.23.112
12888;168728;33.20;260;04.14.23.112
12876;168722;33.20;261;04.14.23.112
12884;168720;33.20;262;04.14.23.112
12928;168713;33.20;263;04.14.23.112
12884;168722;33.20;264;04.14.23.112
12860;168714;33.20;265;04.14.23.112
12896;168717;33.20;266;04.14.23.112
12888;168716;33.20;267;04.14.23.134
12860;168713;33.20;268;04.14.23.134
12876;168718;33.20;269;04.14.23.134
12896;168709;33.20;270;04.14.23.134
12888;168709;33.20;271;04.14.23.134
12892;168701;33.20;272;04.14.23.134
12912;168702;33.20;273;04.14.23.134
12892;168699;33.20;274;04.14.23.134
12912;168694;33.24;275;04.14.23.211
12912;168694;33.24;276;04.14.23.211
12880;168693;33.24;277;04.14.23.211
12896;168701;33.24;278;04.14.23.211
12884;168703;33.24;279;04.14.23.211
12904;168698;33.24;280;04.14.23.222
12896;168691;33.24;281;04.14.23.222
12896;168695;33.24;282;04.14.23.222
12868;168685;33.24;283;04.14.23.222
12888;168693;33.24;284;04.14.23.222
12888;168693;33.24;285;04.14.23.222
12880;168695;33.24;286;04.14.23.222
12876;168698;33.24;287;04.14.23.222
12896;168691;33.24;288;04.14.23.222
12936;168695;33.24;289;04.14.23.222
12876;168692;33.24;290;04.14.23.222
12884;168698;33.24;291;04.14.23.222
12884;168695;33.24;292;04.14.23.222
12880;168690;33.24;293;04.14.23.233
12880;168699;33.24;294;04.14.23.233
12888;168696;33.24;295;04.14.23.233
12872;168703;33.24;296;04.14.23.233
12908;168697;33.24;297;04.14.23.233
12888;168692;33.24;298;04.14.23.233
12904;168701;33.24;299;04.14.23.233
12904;168702;33.24;300;04.14.23.331
12892;168696;33.24;301;04.14.23.342
12864;168701;33.24;302;04.14.23.342
12888;168691;33.24;303;04.14.23.342
12900;168689;33.24;304;04.14.23.342
12880;168696;33.24;305;04.14.23.342
12884;168703;33.24;306;04.14.23.342
12896;168698;33.24;307;04.14.23.342
12900;168698;33.24;308;04.14.23.342
12888;168710;33.24;309;04.14.23.342
12880;168707;33.24;310;04.14.23.342
12900;168703;33.24;311;04.14.23.342
12864;168704;33.24;312;04.14.23.342
12908;168700;33.24;313;04.14.23.342
12876;168711;33.24;314;04.14.23.353
12904;168707;33.24;315;04.14.23.353
12864;168703;33.24;316;04.14.23.353
12892;168716;33.24;317;04.14.23.353
12904;168716;33.24;318;04.14.23.353
12908;168719;33.24;319;04.14.23.353
12900;168714;33.24;320;04.14.23.353
12872;168719;33.24;321;04.14.23.353
12884;168715;33.24;322;04.14.23.353
12920;168722;33.24;323;04.14.23.353
12912;168726;33.24;324;04.14.23.353
12884;168734;33.20;325;04.14.23.496
12892;168730;33.20;326;04.14.23.496
12860;168724;33.20;327;04.14.23.496
12916;168735;33.20;328;04.14.23.496
12904;168732;33.20;329;04.14.23.496
12888;168734;33.20;330;04.14.23.496
12888;168738;33.20;331;04.14.23.496
12892;168733;33.20;332;04.14.23.496
12896;168735;33.20;333;04.14.23.530
12896;168735;33.20;334;04.14.23.530
12904;168730;33.20;335;04.14.23.530
12892;168725;33.20;336;04.14.23.530
12912;168729;33.20;337;04.14.23.530
12880;168727;33.20;338;04.14.23.530
12904;168731;33.20;339;04.14.23.530
12896;168739;33.20;340;04.14.23.530
12868;168732;33.20;341;04.14.23.530
12892;168738;33.20;342;04.14.23.530
12888;168735;33.20;343;04.14.23.540
12912;168736;33.20;344;04.14.23.540
12876;168736;33.20;345;04.14.23.540
12896;168738;33.20;346;04.14.23.540
12880;168738;33.20;347;04.14.23.540
12900;168734;33.20;348;04.14.23.540
12896;168735;33.20;349;04.14.23.540
12892;168734;33.20;350;04.14.23.584
12880;168739;33.20;351;04.14.23.584
12896;168741;33.20;352;04.14.23.584
12860;168746;33.20;353;04.14.23.584
12860;168740;33.20;354;04.14.23.584
12904;168747;33.20;355;04.14.23.584
12888;168733;33.20;356;04.14.23.584
12856;168745;33.20;357;04.14.23.595
12892;168746;33.20;358;04.14.23.595
12860;168741;33.20;359;04.14.23.595
12892;168742;33.20;360;04.14.23.595
12892;168749;33.20;361;04.14.23.595
12896;168744;33.20;362;04.14.23.595
12896;168754;33.20;363;04.14.23.595
12880;168758;33.20;364;04.14.23.595
12844;168760;33.20;365;04.14.23.595
12904;168766;33.20;366;04.14.23.606
12888;168770;33.20;367;04.14.23.617
12872;168779;33.20;368;04.14.23.617
12904;168782;33.20;369;04.14.23.617
12904;168783;33.20;370;04.14.23.617
12876;168789;33.20;371;04.14.23.617
12888;168792;33.20;372;04.14.23.617
12896;168791;33.20;373;04.14.23.617
12900;168795;33.20;374;04.14.23.628
12888;168805;33.24;375;04.14.23.705
12884;168797;33.24;376;04.14.23.705
12884;168798;33.24;377;04.14.23.716
12904;168807;33.24;378;04.14.23.716
12908;168809;33.24;379;04.14.23.716
12908;168820;33.24;380;04.14.23.716
12872;168812;33.24;381;04.14.23.716
12860;168821;33.24;382;04.14.23.716
12884;168809;33.24;383;04.14.23.749
12860;168812;33.24;384;04.14.23.749
12860;168811;33.24;385;04.14.23.749
12888;168810;33.24;386;04.14.23.759
12904;168802;33.24;387;04.14.23.759
12876;168810;33.24;388;04.14.23.759
12876;168805;33.24;389;04.14.23.759
12900;168801;33.24;390;04.14.23.759
12888;168799;33.24;391;04.14.23.759
12904;168796;33.24;392;04.14.23.759
12888;168796;33.24;393;04.14.23.759
12896;168793;33.24;394;04.14.23.759
12884;168784;33.24;395;04.14.23.759
12880;168780;33.24;396;04.14.23.759
12896;168767;33.24;397;04.14.23.759
12904;168761;33.24;398;04.14.23.759
12916;168758;33.24;399;04.14.23.770
12880;168754;33.24;400;04.14.23.847
12912;168756;33.24;401;04.14.23.847
12884;168749;33.24;402;04.14.23.847
12904;168742;33.24;403;04.14.23.847
12884;168732;33.24;404;04.14.23.847
12884;168744;33.24;405;04.14.23.847
12900;168730;33.24;406;04.14.23.847
12904;168727;33.24;407;04.14.23.847
12892;168724;33.24;408;04.14.23.847
12904;168719;33.24;409;04.14.23.847
12904;168720;33.24;410;04.14.23.847
12872;168721;33.24;411;04.14.23.847
12900;168731;33.24;412;04.14.23.858
12900;168729;33.24;413;04.14.23.858
12892;168717;33.24;414;04.14.23.858
12880;168728;33.24;415;04.14.23.858
12856;168725;33.24;416;04.14.23.858
12860;168717;33.24;417;04.14.23.858
12892;168733;33.24;418;04.14.23.858
12900;168734;33.24;419;04.14.23.858
12892;168731;33.24;420;04.14.23.858
12904;168734;33.24;421;04.14.23.858
12884;168739;33.24;422;04.14.23.858
12892;168744;33.24;423;04.14.23.858
12904;168755;33.24;424;04.14.23.869
12876;168752;33.24;425;04.14.23.977
12888;168759;33.24;426;04.14.23.977
12888;168754;33.24;427;04.14.23.977
12888;168758;33.24;428;04.14.23.977
12876;168753;33.24;429;04.14.23.977
12864;168764;33.24;430;04.14.23.977
12896;168767;33.24;431;04.14.23.988
12864;168764;33.24;432;04.14.23.988
12880;168763;33.24;433;04.14.23.988
12892;168758;33.24;434;04.14.23.988
12892;168763;33.24;435;04.14.23.988
12888;168770;33.24;436;04.14.23.988
12880;168773;33.24;437;04.14.23.988
12888;168777;33.24;438;04.14.23.988
12860;168774;33.24;439;04.14.23.988
12860;168771;33.24;440;04.14.23.988
12888;168774;33.24;441;04.14.23.988
12888;168773;33.24;442;04.14.23.988
12876;168777;33.24;443;04.14.23.988
12880;168776;33.24;444;04.14.23.999
12876;168770;33.24;445;04.14.23.999
12860;168774;33.24;446;04.14.23.999
12904;168770;33.24;447;04.14.23.999
12896;168776;33.24;448;04.14.23.999
12916;168770;33.24;449;04.14.23.999
12888;168764;33.24;450;04.14.24.088
12896;168768;33.24;451;04.14.24.088
12928;168761;33.24;452;04.14.24.088
12916;168768;33.24;453;04.14.24.099
12912;168773;33.24;454;04.14.24.099
12884;168777;33.24;455;04.14.24.099
12876;168770;33.24;456;04.14.24.099
12860;168766;33.24;457;04.14.24.099
12896;168765;33.24;458;04.14.24.099
12884;168768;33.24;459;04.14.24.099
12860;168764;33.24;460;04.14.24.099
12864;168767;33.24;461;04.14.24.099
12888;168767;33.24;462;04.14.24.099
12888;168766;33.24;463;04.14.24.099
12892;168777;33.24;464;04.14.24.099
12884;168768;33.24;465;04.14.24.099
12904;168772;33.24;466;04.14.24.110
12860;168780;33.24;467;04.14.24.110
12904;168773;33.24;468;04.14.24.110
12916;168778;33.24;469;04.14.24.110
12888;168783;33.24;470;04.14.24.110
12888;168775;33.24;471;04.14.24.110
12912;168778;33.24;472;04.14.24.121
12896;168791;33.24;473;04.14.24.121
12920;168785;33.24;474;04.14.24.121
12876;168790;33.20;475;04.14.24.209
12884;168789;33.20;476;04.14.24.220
12900;168792;33.20;477;04.14.24.220
12892;168799;33.20;478;04.14.24.220
12900;168794;33.20;479;04.14.24.220
12868;168792;33.20;480;04.14.24.220
12896;168785;33.20;481;04.14.24.220
12876;168801;33.20;482;04.14.24.220
12896;168805;33.20;483;04.14.24.220
12860;168804;33.20;484;04.14.24.220
12844;168800;33.20;485;04.14.24.220
12892;168804;33.20;486;04.14.24.220
12892;168807;33.20;487;04.14.24.220
12896;168811;33.20;488;04.14.24.220
12876;168803;33.20;489;04.14.24.231
12884;168818;33.20;490;04.14.24.231
12880;168817;33.20;491;04.14.24.231
12884;168824;33.20;492;04.14.24.242
12872;168827;33.20;493;04.14.24.242
12876;168831;33.20;494;04.14.24.253
12872;168827;33.20;495;04.14.24.253
12872;168825;33.20;496;04.14.24.253
12900;168829;33.20;497;04.14.24.253
12888;168827;33.20;498;04.14.24.253
12924;168833;33.20;499;04.14.24.253
12892;168833;33.20;500;04.14.24.352
12880;168832;33.20;501;04.14.24.352
12888;168828;33.20;502;04.14.24.352
12876;168834;33.20;503;04.14.24.352
12876;168837;33.20;504;04.14.24.352
12880;168840;33.20;505;04.14.24.352
12896;168837;33.20;506;04.14.24.352
12892;168847;33.20;507;04.14.24.352
12888;168849;33.20;508;04.14.24.363
12888;168849;33.20;509;04.14.24.363
12880;168851;33.20;510;04.14.24.363
12912;168857;33.20;511;04.14.24.363
12876;168854;33.20;512;04.14.24.363
12888;168858;33.20;513;04.14.24.363
12892;168854;33.20;514;04.14.24.363
12896;168856;33.20;515;04.14.24.363
12888;168862;33.20;516;04.14.24.363
12884;168869;33.20;517;04.14.24.383
12900;168861;33.20;518;04.14.24.383
12888;168870;33.20;519;04.14.24.383
12904;168868;33.20;520;04.14.24.383
12856;168866;33.20;521;04.14.24.383
12880;168862;33.20;522;04.14.24.383
12860;168865;33.20;523;04.14.24.383
12916;168860;33.20;524;04.14.24.383
12884;168857;33.20;525;04.14.24.471
12880;168858;33.20;526;04.14.24.471
12872;168853;33.20;527;04.14.24.471
12896;168848;33.20;528;04.14.24.471
12872;168844;33.20;529;04.14.24.471
12896;168842;33.20;530;04.14.24.482
12884;168840;33.20;531;04.14.24.482
12860;168841;33.20;532;04.14.24.482
12880;168836;33.20;533;04.14.24.482
12876;168829;33.20;534;04.14.24.482
12884;168835;33.20;535;04.14.24.482
12884;168827;33.20;536;04.14.24.482
12868;168836;33.20;537;04.14.24.482
12896;168831;33.20;538;04.14.24.482
12888;168823;33.20;539;04.14.24.482
12904;168824;33.20;540;04.14.24.482
12884;168821;33.20;541;04.14.24.482
12892;168810;33.20;542;04.14.24.482
12872;168812;33.20;543;04.14.24.493
12896;168817;33.20;544;04.14.24.493
12892;168816;33.20;545;04.14.24.493
12888;168817;33.20;546;04.14.24.493
12900;168818;33.20;547;04.14.24.493
12884;168820;33.20;548;04.14.24.493
12884;168813;33.20;549;04.14.24.493
12880;168828;33.20;550;04.14.24.581
12888;168814;33.20;551;04.14.24.581
12876;168817;33.20;552;04.14.24.592
12864;168818;33.20;553;04.14.24.592
12860;168824;33.20;554;04.14.24.592
12908;168826;33.20;555;04.14.24.592
12880;168823;33.20;556;04.14.24.592
12860;168830;33.20;557;04.14.24.592
12884;168830;33.20;558;04.14.24.592
12880;168831;33.20;559;04.14.24.592
12876;168834;33.20;560;04.14.24.592
12892;168832;33.20;561;04.14.24.592
12896;168835;33.20;562;04.14.24.592
12916;168834;33.20;563;04.14.24.592
12864;168839;33.20;564;04.14.24.592
12876;168842;33.20;565;04.14.24.603
12880;168839;33.20;566;04.14.24.603
12868;168847;33.20;567;04.14.24.603
12888;168850;33.20;568;04.14.24.603
12888;168846;33.20;569;04.14.24.614
12880;168851;33.20;570;04.14.24.614
12884;168853;33.20;571;04.14.24.614
12880;168852;33.20;572;04.14.24.614
12880;168866;33.20;573;04.14.24.614
12884;168860;33.20;574;04.14.24.614
12884;168862;33.24;575;04.14.24.724
12876;168859;33.24;576;04.14.24.724
12888;168873;33.24;577;04.14.24.724
12888;168871;33.24;578;04.14.24.724
12884;168864;33.24;579;04.14.24.724
12904;168852;33.24;580;04.14.24.724
12860;168864;33.24;581;04.14.24.724
12892;168867;33.24;582;04.14.24.724
12884;168864;33.24;583;04.14.24.724
12892;168870;33.24;584;04.14.24.724
12912;168864;33.24;585;04.14.24.724
12912;168862;33.24;586;04.14.24.735
12880;168864;33.24;587;04.14.24.735
12856;168866;33.24;588;04.14.24.735
12912;168860;33.24;589;04.14.24.735
12864;168862;33.24;590;04.14.24.735
12880;168864;33.24;591;04.14.24.735
12888;168862;33.24;592;04.14.24.746
12888;168860;33.24;593;04.14.24.746
12904;168860;33.24;594;04.14.24.746
12884;168862;33.24;595;04.14.24.746
12892;168863;33.24;596;04.14.24.746
12896;168857;33.24;597;04.14.24.746
12884;168858;33.24;598;04.14.24.746
12892;168862;33.24;599;04.14.24.746
12876;168863;33.24;600;04.14.24.833
12876;168860;33.24;601;04.14.24.833
12860;168857;33.24;602;04.14.24.833
12876;168861;33.24;603;04.14.24.833
12884;168855;33.24;604;04.14.24.833
12876;168852;33.24;605;04.14.24.833
12892;168855;33.24;606;04.14.24.833
12896;168856;33.24;607;04.14.24.844
12884;168855;33.24;608;04.14.24.844
12868;168859;33.24;609;04.14.24.844
12900;168857;33.24;610;04.14.24.844
12860;168857;33.24;611;04.14.24.844
12868;168851;33.24;612;04.14.24.844
12860;168858;33.24;613;04.14.24.844
12892;168858;33.24;614;04.14.24.844
12896;168851;33.24;615;04.14.24.844
12884;168854;33.24;616;04.14.24.855
12888;168852;33.24;617;04.14.24.855
12904;168863;33.24;618;04.14.24.855
12880;168859;33.24;619;04.14.24.855
12892;168865;33.24;620;04.14.24.855
12880;168864;33.24;621;04.14.24.855
12884;168868;33.24;622;04.14.24.855
12888;168860;33.24;623;04.14.24.855
12904;168864;33.24;624;04.14.24.855
12876;168876;33.24;625;04.14.24.965
12876;168881;33.24;626;04.14.24.965
12860;168873;33.24;627;04.14.24.965
12872;168875;33.24;628;04.14.24.976
12896;168879;33.24;629;04.14.24.976
12900;168880;33.24;630;04.14.24.976
12904;168885;33.24;631;04.14.24.976
12868;168887;33.24;632;04.14.24.976
12872;168888;33.24;633;04.14.24.976
12888;168899;33.24;634;04.14.24.976
12876;168894;33.24;635;04.14.24.976
12880;168893;33.24;636;04.14.24.976
12884;168895;33.24;637;04.14.24.976
12892;168891;33.24;638;04.14.24.976
12876;168903;33.24;639;04.14.24.976
12884;168889;33.24;640;04.14.24.976
12884;168891;33.24;641;04.14.24.987
12876;168893;33.24;642;04.14.24.987
12880;168878;33.24;643;04.14.24.987
12884;168885;33.24;644;04.14.24.987
12880;168877;33.24;645;04.14.24.987
12880;168877;33.24;646;04.14.24.998
12888;168876;33.24;647;04.14.24.998
12856;168859;33.24;648;04.14.24.998
12928;168852;33.24;649;04.14.24.998
12876;168852;33.24;650;04.14.25.108
12880;168850;33.24;651;04.14.25.108
12896;168843;33.24;652;04.14.25.108
12860;168841;33.24;653;04.14.25.108
12888;168831;33.24;654;04.14.25.108
12880;168838;33.24;655;04.14.25.108
12896;168834;33.24;656;04.14.25.108
12860;168830;33.24;657;04.14.25.108
12876;168827;33.24;658;04.14.25.108
12884;168821;33.24;659;04.14.25.108
12908;168821;33.24;660;04.14.25.108
12900;168813;33.24;661;04.14.25.108
12884;168820;33.24;662;04.14.25.119
12884;168807;33.24;663;04.14.25.119
12872;168811;33.24;664;04.14.25.119
12904;168812;33.24;665;04.14.25.119
12876;168816;33.24;666;04.14.25.119
12872;168818;33.24;667;04.14.25.119
12876;168814;33.24;668;04.14.25.119
12896;168816;33.24;669;04.14.25.119
12884;168817;33.24;670;04.14.25.119
12892;168816;33.24;671;04.14.25.119
12876;168825;33.24;672;04.14.25.119
12888;168825;33.24;673;04.14.25.119
12928;168816;33.24;674;04.14.25.129
12896;168827;33.20;675;04.14.25.217
12872;168829;33.20;676;04.14.25.217
12884;168836;33.20;677;04.14.25.217
12868;168836;33.20;678;04.14.25.217
12904;168837;33.20;679;04.14.25.217
12872;168845;33.20;680;04.14.25.217
12888;168845;33.20;681;04.14.25.217
12880;168852;33.20;682;04.14.25.217
12884;168849;33.20;683;04.14.25.228
12872;168850;33.20;684;04.14.25.228
12880;168856;33.20;685;04.14.25.228
12896;168850;33.20;686;04.14.25.228
12884;168858;33.20;687;04.14.25.228
12868;168856;33.20;688;04.14.25.228
12900;168864;33.20;689;04.14.25.228
12876;168854;33.20;690;04.14.25.228
12876;168858;33.20;691;04.14.25.228
12876;168860;33.20;692;04.14.25.239
12876;168850;33.20;693;04.14.25.239
12876;168847;33.20;694;04.14.25.239
12896;168848;33.20;695;04.14.25.239
12892;168851;33.20;696;04.14.25.239
12900;168853;33.20;697;04.14.25.239
12884;168854;33.20;698;04.14.25.239
12896;168845;33.20;699;04.14.25.239
12896;168843;33.20;700;04.14.25.338
12892;168854;33.20;701;04.14.25.338
12896;168845;33.20;702;04.14.25.338
12880;168841;33.20;703;04.14.25.338
12888;168840;33.20;704;04.14.25.338
12884;168835;33.20;705;04.14.25.338
12888;168839;33.20;706;04.14.25.338
12896;168833;33.20;707;04.14.25.349
12876;168846;33.20;708;04.14.25.349
12888;168843;33.20;709;04.14.25.349
12916;168843;33.20;710;04.14.25.349
12892;168842;33.20;711;04.14.25.349
12892;168843;33.20;712;04.14.25.349
12884;168842;33.20;713;04.14.25.349
12864;168848;33.20;714;04.14.25.350
12904;168845;33.20;715;04.14.25.350
12888;168846;33.20;716;04.14.25.361
12868;168856;33.20;717;04.14.25.372
12880;168854;33.20;718;04.14.25.372
12872;168857;33.20;719;04.14.25.372
12928;168860;33.20;720;04.14.25.372
12896;168861;33.20;721;04.14.25.372
12864;168860;33.20;722;04.14.25.372
12904;168872;33.20;723;04.14.25.372
12880;168874;33.20;724;04.14.25.383
12900;168865;33.24;725;04.14.25.458
12896;168870;33.24;726;04.14.25.469
12880;168867;33.24;727;04.14.25.469
12852;168872;33.24;728;04.14.25.469
12888;168868;33.24;729;04.14.25.469
12904;168879;33.24;730;04.14.25.469
12884;168878;33.24;731;04.14.25.469
12904;168873;33.24;732;04.14.25.469
12880;168880;33.24;733;04.14.25.469
12868;168875;33.24;734;04.14.25.469
12880;168876;33.24;735;04.14.25.469
12908;168874;33.24;736;04.14.25.469
12892;168872;33.24;737;04.14.25.469
12912;168879;33.24;738;04.14.25.469
12860;168873;33.24;739;04.14.25.480
12892;168877;33.24;740;04.14.25.480
12888;168869;33.24;741;04.14.25.480
12872;168874;33.24;742;04.14.25.480
12880;168872;33.24;743;04.14.25.480
12896;168870;33.24;744;04.14.25.480
12876;168875;33.24;745;04.14.25.480
12852;168878;33.24;746;04.14.25.480
12884;168874;33.24;747;04.14.25.480
12876;168875;33.24;748;04.14.25.480
12936;168879;33.24;749;04.14.25.480
12896;168880;33.24;750;04.14.25.601
12884;168881;33.24;751;04.14.25.601
12912;168876;33.24;752;04.14.25.601
12888;168878;33.24;753;04.14.25.601
12880;168880;33.24;754;04.14.25.601
12888;168883;33.24;755;04.14.25.601
12872;168880;33.24;756;04.14.25.601
12860;168879;33.24;757;04.14.25.601
12896;168883;33.24;758;04.14.25.612
12892;168883;33.24;759;04.14.25.612
12872;168889;33.24;760;04.14.25.612
12896;168887;33.24;761;04.14.25.612
12876;168877;33.24;762;04.14.25.612
12888;168882;33.24;763;04.14.25.612
12852;168879;33.24;764;04.14.25.612
12912;168869;33.24;765;04.14.25.612
12896;168870;33.24;766;04.14.25.612
12876;168867;33.24;767;04.14.25.612
12872;168863;33.24;768;04.14.25.612
12876;168861;33.24;769;04.14.25.623
12888;168853;33.24;770;04.14.25.623
12872;168851;33.24;771;04.14.25.623
12888;168849;33.24;772;04.14.25.623
12888;168846;33.24;773;04.14.25.623
12896;168839;33.24;774;04.14.25.623
12880;168831;33.24;775;04.14.25.710
12884;168836;33.24;776;04.14.25.710
12876;168837;33.24;777;04.14.25.710
12884;168833;33.24;778;04.14.25.710
12872;168837;33.24;779;04.14.25.710
12880;168838;33.24;780;04.14.25.710
12900;168827;33.24;781;04.14.25.710
12880;168824;33.24;782;04.14.25.710
12884;168818;33.24;783;04.14.25.732
12896;168818;33.24;784;04.14.25.732
12892;168822;33.24;785;04.14.25.732
12888;168818;33.24;786;04.14.25.732
12864;168810;33.24;787;04.14.25.732
12888;168821;33.24;788;04.14.25.732
12876;168816;33.24;789;04.14.25.732
12880;168810;33.24;790;04.14.25.743
12860;168814;33.24;791;04.14.25.743
12896;168806;33.24;792;04.14.25.743
12880;168804;33.24;793;04.14.25.743
12888;168800;33.24;794;04.14.25.743
12872;168802;33.24;795;04.14.25.743
12892;168797;33.24;796;04.14.25.743
12876;168797;33.24;797;04.14.25.743
12888;168793;33.24;798;04.14.25.743
12916;168788;33.24;799;04.14.25.743
12896;168793;33.24;800;04.14.25.831
12936;168792;33.24;801;04.14.25.831
12880;168801;33.24;802;04.14.25.831
12892;168797;33.24;803;04.14.25.842
12892;168797;33.24;804;04.14.25.842
12888;168792;33.24;805;04.14.25.842
12900;168797;33.24;806;04.14.25.842
12888;168801;33.24;807;04.14.25.842
12880;168800;33.24;808;04.14.25.842
12860;168803;33.24;809;04.14.25.842
12908;168813;33.24;810;04.14.25.842
12884;168810;33.24;811;04.14.25.842
12900;168813;33.24;812;04.14.25.842
12884;168814;33.24;813;04.14.25.842
12912;168813;33.24;814;04.14.25.842
12872;168809;33.24;815;04.14.25.842
12880;168815;33.24;816;04.14.25.853
12860;168816;33.24;817;04.14.25.853
12904;168812;33.24;818;04.14.25.853
12884;168810;33.24;819;04.14.25.853
12896;168817;33.24;820;04.14.25.853
12900;168826;33.24;821;04.14.25.853
12904;168828;33.24;822;04.14.25.853
12876;168830;33.24;823;04.14.25.853
12904;168827;33.24;824;04.14.25.853
12892;168827;33.24;825;04.14.25.963
12912;168826;33.24;826;04.14.25.963
12896;168816;33.24;827;04.14.25.963
12896;168825;33.24;828;04.14.25.963
12876;168816;33.24;829;04.14.25.963
12896;168817;33.24;830;04.14.25.963
12880;168809;33.24;831;04.14.25.963
12912;168817;33.24;832;04.14.25.963
12912;168814;33.24;833;04.14.25.963
12904;168812;33.24;834;04.14.25.963
12884;168817;33.24;835;04.14.25.963
12860;168812;33.24;836;04.14.25.963
12856;168813;33.24;837;04.14.25.974
12888;168809;33.24;838;04.14.25.974
12888;168809;33.24;839;04.14.25.974
12904;168814;33.24;840;04.14.25.974
12868;168811;33.24;841;04.14.25.974
12904;168808;33.24;842;04.14.25.974
12884;168819;33.24;843;04.14.25.974
12884;168814;33.24;844;04.14.25.974
12868;168806;33.24;845;04.14.25.974
12888;168812;33.24;846;04.14.25.974
12896;168813;33.24;847;04.14.25.974
12892;168807;33.24;848;04.14.25.974
12876;168817;33.24;849;04.14.25.985
12888;168813;33.24;850;04.14.26.094
12868;168811;33.24;851;04.14.26.094
12872;168813;33.24;852;04.14.26.094
12892;168817;33.24;853;04.14.26.094
12876;168814;33.24;854;04.14.26.094
12872;168810;33.24;855;04.14.26.094
12880;168813;33.24;856;04.14.26.094
12896;168816;33.24;857;04.14.26.094
12884;168819;33.24;858;04.14.26.094
12896;168818;33.24;859;04.14.26.105
12876;168812;33.24;860;04.14.26.105
12896;168809;33.24;861;04.14.26.105
12860;168813;33.24;862;04.14.26.105
12844;168820;33.24;863;04.14.26.105
12900;168825;33.24;864;04.14.26.105
12872;168827;33.24;865;04.14.26.105
12884;168825;33.24;866;04.14.26.105
12884;168825;33.24;867;04.14.26.105
12896;168834;33.24;868;04.14.26.105
12884;168837;33.24;869;04.14.26.105
12896;168834;33.24;870;04.14.26.105
12904;168841;33.24;871;04.14.26.105
12900;168850;33.24;872;04.14.26.116
12896;168844;33.24;873;04.14.26.116
12884;168845;33.24;874;04.14.26.116
12868;168847;33.20;875;04.14.26.226
12896;168852;33.20;876;04.14.26.226
12872;168862;33.20;877;04.14.26.226
12880;168864;33.20;878;04.14.26.226
12880;168862;33.20;879;04.14.26.226
12884;168866;33.20;880;04.14.26.237
12884;168866;33.20;881;04.14.26.237
12900;168867;33.20;882;04.14.26.237
12912;168866;33.20;883;04.14.26.237
12868;168869;33.20;884;04.14.26.237
12904;168871;33.20;885;04.14.26.237
12888;168863;33.20;886;04.14.26.237
12876;168859;33.20;887;04.14.26.237
12876;168861;33.20;888;04.14.26.237
12884;168856;33.20;889;04.14.26.237
12876;168859;33.20;890;04.14.26.237
12860;168853;33.20;891;04.14.26.237
12876;168843;33.20;892;04.14.26.248
12908;168846;33.20;893;04.14.26.248
12880;168835;33.20;894;04.14.26.248
12892;168827;33.20;895;04.14.26.248
12876;168816;33.20;896;04.14.26.248
12872;168816;33.20;897;04.14.26.259
12912;168813;33.20;898;04.14.26.259
12928;168807;33.20;899;04.14.26.259
12896;168803;33.20;900;04.14.26.336
12904;168795;33.20;901;04.14.26.336
12896;168791;33.20;902;04.14.26.337
12912;168781;33.20;903;04.14.26.348
12884;168782;33.20;904;04.14.26.348
12896;168788;33.20;905;04.14.26.348
12876;168777;33.20;906;04.14.26.348
12876;168772;33.20;907;04.14.26.348
12892;168778;33.20;908;04.14.26.348
12868;168773;33.20;909;04.14.26.359
12864;168771;33.20;910;04.14.26.359
12912;168769;33.20;911;04.14.26.359
12868;168771;33.20;912;04.14.26.359
12872;168766;33.20;913;04.14.26.359
12908;168768;33.20;914;04.14.26.359
12912;168764;33.20;915;04.14.26.359
12896;168767;33.20;916;04.14.26.359
12900;168768;33.20;917;04.14.26.359
12884;168760;33.20;918;04.14.26.359
12904;168766;33.20;919;04.14.26.359
12896;168768;33.20;920;04.14.26.370
12896;168762;33.20;921;04.14.26.370
12912;168759;33.20;922;04.14.26.370
12892;168766;33.20;923;04.14.26.370
12896;168766;33.20;924;04.14.26.370
12888;168762;33.20;925;04.14.26.479
12900;168774;33.20;926;04.14.26.479
12876;168778;33.20;927;04.14.26.479
12876;168779;33.20;928;04.14.26.479
12884;168778;33.20;929;04.14.26.479
12912;168776;33.20;930;04.14.26.479
12896;168780;33.20;931;04.14.26.479
12880;168778;33.20;932;04.14.26.479
12876;168784;33.20;933;04.14.26.490
12896;168796;33.20;934;04.14.26.490
12892;168782;33.20;935;04.14.26.490
12876;168794;33.20;936;04.14.26.490
12888;168782;33.20;937;04.14.26.490
12880;168787;33.20;938;04.14.26.490
12896;168792;33.20;939;04.14.26.490
12884;168784;33.20;940;04.14.26.490
12896;168791;33.20;941;04.14.26.490
12928;168788;33.20;942;04.14.26.501
12896;168784;33.20;943;04.14.26.501
12908;168785;33.20;944;04.14.26.501
12888;168772;33.20;945;04.14.26.501
12884;168782;33.20;946;04.14.26.501
12912;168783;33.20;947;04.14.26.501
12884;168787;33.20;948;04.14.26.501
12892;168775;33.20;949;04.14.26.501
12872;168779;33.20;950;04.14.26.589
12884;168778;33.20;951;04.14.26.589
12864;168776;33.20;952;04.14.26.589
12876;168771;33.20;953;04.14.26.589
12888;168787;33.20;954;04.14.26.589
12880;168775;33.20;955;04.14.26.589
12872;168777;33.20;956;04.14.26.589
12860;168778;33.20;957;04.14.26.589
12900;168782;33.20;958;04.14.26.600
12892;168783;33.20;959;04.14.26.600
12900;168781;33.20;960;04.14.26.600
12876;168783;33.20;961;04.14.26.600
12852;168782;33.20;962;04.14.26.600
12872;168786;33.20;963;04.14.26.600
12884;168787;33.20;964;04.14.26.600
12896;168792;33.20;965;04.14.26.600
12912;168797;33.20;966;04.14.26.600
12900;168800;33.20;967;04.14.26.600
12912;168795;33.20;968;04.14.26.600
12860;168796;33.20;969;04.14.26.600
12880;168794;33.20;970;04.14.26.600
12888;168812;33.20;971;04.14.26.600
12888;168817;33.20;972;04.14.26.612
12904;168811;33.20;973;04.14.26.612
12900;168808;33.20;974;04.14.26.612
12888;168812;33.20;975;04.14.26.721
12892;168819;33.20;976;04.14.26.721
12896;168831;33.20;977;04.14.26.721
12904;168828;33.20;978;04.14.26.721
12876;168830;33.20;979;04.14.26.732
12868;168839;33.20;980;04.14.26.732
12868;168847;33.20;981;04.14.26.732
12892;168850;33.20;982;04.14.26.732
12876;168856;33.20;983;04.14.26.732
12880;168854;33.20;984;04.14.26.732
12896;168856;33.20;985;04.14.26.732
12884;168858;33.20;986;04.14.26.732
12872;168863;33.20;987;04.14.26.732
12876;168864;33.20;988;04.14.26.732
12880;168861;33.20;989;04.14.26.732
12904;168868;33.20;990;04.14.26.732
12896;168872;33.20;991;04.14.26.732
12872;168869;33.20;992;04.14.26.743
12872;168872;33.20;993;04.14.26.743
12892;168871;33.20;994;04.14.26.743
12892;168877;33.20;995;04.14.26.743
12868;168864;33.20;996;04.14.26.743
12928;168871;33.20;997;04.14.26.743
12888;168868;33.20;998;04.14.26.743
12908;168870;33.20;999;04.14.26.743
12868;168862;33.20;000;04.14.26.841
12888;168864;33.20;001;04.14.26.841
12928;168870;33.20;002;04.14.26.841
12908;168870;33.20;003;04.14.26.841
12876;168872;33.20;004;04.14.26.841
12856;168875;33.20;005;04.14.26.841
12896;168854;33.20;006;04.14.26.841
12888;168868;33.20;007;04.14.26.841
12860;168871;33.20;008;04.14.26.852
12844;168875;33.20;009;04.14.26.852
12900;168868;33.20;010;04.14.26.852
12900;168876;33.20;011;04.14.26.852
12884;168877;33.20;012;04.14.26.852
12896;168879;33.20;013;04.14.26.852
12880;168867;33.20;014;04.14.26.852
12880;168871;33.20;015;04.14.26.852
12896;168863;33.20;016;04.14.26.852
12892;168869;33.20;017;04.14.26.852
12900;168866;33.20;018;04.14.26.852
12880;168861;33.20;019;04.14.26.852
12860;168861;33.20;020;04.14.26.852
12912;168868;33.20;021;04.14.26.863
12928;168855;33.20;022;04.14.26.863
12896;168856;33.20;023;04.14.26.863
12892;168849;33.20;024;04.14.26.863
12892;168848;33.20;025;04.14.26.962
12912;168840;33.20;026;04.14.26.962
12892;168847;33.20;027;04.14.26.962
12888;168835;33.20;028;04.14.26.962
12900;168839;33.20;029;04.14.26.962
12872;168831;33.20;030;04.14.26.962
12892;168831;33.20;031;04.14.26.962
12884;168828;33.20;032;04.14.26.962
12900;168829;33.20;033;04.14.26.962
12884;168834;33.20;034;04.14.26.962
12896;168827;33.20;035;04.14.26.973
12880;168819;33.20;036;04.14.26.973
12876;168818;33.20;037;04.14.26.973
12892;168819;33.20;038;04.14.26.973
12908;168817;33.20;039;04.14.26.973
12872;168817;33.20;040;04.14.26.973
12896;168819;33.20;041;04.14.26.973
12900;168809;33.20;042;04.14.27.006
12888;168810;33.20;043;04.14.27.006
12876;168800;33.20;044;04.14.27.006
12864;168801;33.20;045;04.14.27.006
12884;168801;33.20;046;04.14.27.006
12896;168804;33.20;047;04.14.27.006
12872;168798;33.20;048;04.14.27.006
12888;168795;33.20;049;04.14.27.006
12900;168798;33.20;050;04.14.27.082
12896;168794;33.20;051;04.14.27.082
12892;168782;33.20;052;04.14.27.082
12872;168792;33.20;053;04.14.27.082
12884;168792;33.20;054;04.14.27.082
12860;168793;33.20;055;04.14.27.082
12888;168792;33.20;056;04.14.27.093
12904;168786;33.20;057;04.14.27.093
12872;168785;33.20;058;04.14.27.093
12892;168795;33.20;059;04.14.27.093
12872;168795;33.20;060;04.14.27.093
12884;168791;33.20;061;04.14.27.093
12888;168791;33.20;062;04.14.27.093
12884;168790;33.20;063;04.14.27.093
12880;168789;33.20;064;04.14.27.093
12884;168784;33.20;065;04.14.27.093
12904;168793;33.20;066;04.14.27.093
12884;168795;33.20;067;04.14.27.093
12884;168784;33.20;068;04.14.27.093
12884;168781;33.20;069;04.14.27.104
12860;168784;33.20;070;04.14.27.104
12860;168789;33.20;071;04.14.27.104
12888;168785;33.20;072;04.14.27.104
12892;168787;33.20;073;04.14.27.104
12892;168788;33.20;074;04.14.27.104
12896;168788;33.24;075;04.14.27.214
12884;168786;33.24;076;04.14.27.214
12872;168779;33.24;077;04.14.27.214
12888;168786;33.24;078;04.14.27.225
12880;168786;33.24;079;04.14.27.225
12868;168781;33.24;080;04.14.27.225
12884;168784;33.24;081;04.14.27.225
12876;168783;33.24;082;04.14.27.225
12868;168786;33.24;083;04.14.27.225
12884;168783;33.24;084;04.14.27.225
12876;168788;33.24;085;04.14.27.225
12888;168791;33.24;086;04.14.27.225
12888;168781;33.24;087;04.14.27.225
12904;168792;33.24;088;04.14.27.225
12860;168794;33.24;089;04.14.27.225
12904;168790;33.24;090;04.14.27.225
12896;168796;33.24;091;04.14.27.236
12912;168799;33.24;092;04.14.27.236
12888;168799;33.24;093;04.14.27.236
12884;168798;33.24;094;04.14.27.247
12868;168802;33.24;095;04.14.27.247
12868;168814;33.24;096;04.14.27.247
12896;168808;33.24;097;04.14.27.247
12900;168813;33.24;098;04.14.27.247
12908;168805;33.24;099;04.14.27.247
12880;168813;33.24;100;04.14.27.368
12876;168802;33.24;101;04.14.27.368
12860;168814;33.24;102;04.14.27.368
12860;168811;33.24;103;04.14.27.368
12900;168804;33.24;104;04.14.27.368
12896;168810;33.24;105;04.14.27.368
12872;168803;33.24;106;04.14.27.368
12888;168815;33.24;107;04.14.27.368
12928;168810;33.24;108;04.14.27.368
12868;168803;33.24;109;04.14.27.368
12896;168807;33.24;110;04.14.27.368
12904;168814;33.24;111;04.14.27.368
12896;168817;33.24;112;04.14.27.369
12892;168807;33.24;113;04.14.27.380
12896;168810;33.24;114;04.14.27.380
12876;168807;33.24;115;04.14.27.380
12860;168810;33.24;116;04.14.27.380
12872;168806;33.24;117;04.14.27.380
12888;168800;33.24;118;04.14.27.380
12892;168810;33.24;119;04.14.27.380
12852;168808;33.24;120;04.14.27.380
12884;168808;33.24;121;04.14.27.380
12888;168810;33.24;122;04.14.27.380
12872;168810;33.24;123;04.14.27.380
12904;168795;33.24;124;04.14.27.380
12868;168806;33.20;125;04.14.27.467
12868;168804;33.20;126;04.14.27.467
12892;168798;33.20;127;04.14.27.467
12904;168803;33.20;128;04.14.27.467
12892;168807;33.20;129;04.14.27.467
12888;168805;33.20;130;04.14.27.467
12912;168806;33.20;131;04.14.27.467
12884;168804;33.20;132;04.14.27.467
12872;168800;33.20;133;04.14.27.500
12888;168812;33.20;134;04.14.27.500
12912;168811;33.20;135;04.14.27.500
12888;168821;33.20;136;04.14.27.500
12908;168813;33.20;137;04.14.27.500
12876;168819;33.20;138;04.14.27.500
12880;168821;33.20;139;04.14.27.500
12892;168819;33.20;140;04.14.27.500
12892;168829;33.20;141;04.14.27.500
12888;168836;33.20;142;04.14.27.511
12900;168837;33.20;143;04.14.27.511
12892;168842;33.20;144;04.14.27.511
12896;168840;33.20;145;04.14.27.511
12888;168844;33.20;146;04.14.27.511
12904;168852;33.20;147;04.14.27.511
12880;168855;33.20;148;04.14.27.511
12928;168865;33.20;149;04.14.27.511
12912;168865;33.20;150;04.14.27.589
12888;168864;33.20;151;04.14.27.589
12892;168858;33.20;152;04.14.27.589
12908;168874;33.20;153;04.14.27.589
12960;168877;33.20;154;04.14.27.589
12892;168869;33.20;155;04.14.27.589
12904;168862;33.20;156;04.14.27.589
12884;168877;33.20;157;04.14.27.600
12880;168864;33.20;158;04.14.27.600
12904;168867;33.20;159;04.14.27.600
12876;168853;33.20;160;04.14.27.600
12904;168861;33.20;161;04.14.27.600
12904;168847;33.20;162;04.14.27.600
12908;168848;33.20;163;04.14.27.600
12908;168839;33.20;164;04.14.27.600
12892;168833;33.20;165;04.14.27.600
12904;168828;33.20;166;04.14.27.600
12868;168825;33.20;167;04.14.27.600
12876;168814;33.20;168;04.14.27.600
12908;168813;33.20;169;04.14.27.600
12920;168799;33.20;170;04.14.27.611
12912;168809;33.20;171;04.14.27.611
12880;168799;33.20;172;04.14.27.611
12876;168789;33.20;173;04.14.27.611
12904;168793;33.20;174;04.14.27.611
12896;168783;33.24;175;04.14.27.721
12900;168777;33.24;176;04.14.27.721
12860;168769;33.24;177;04.14.27.732
12884;168765;33.24;178;04.14.27.732
12880;168770;33.24;179;04.14.27.732
12876;168777;33.24;180;04.14.27.732
12892;168769;33.24;181;04.14.27.732
12884;168766;33.24;182;04.14.27.732
12900;168769;33.24;183;04.14.27.732
12888;168774;33.24;184;04.14.27.732
12876;168769;33.24;185;04.14.27.732
12912;168770;33.24;186;04.14.27.732
12892;168765;33.24;187;04.14.27.743
12888;168768;33.24;188;04.14.27.743
12876;168766;33.24;189;04.14.27.743
12904;168776;33.24;190;04.14.27.743
12896;168765;33.24;191;04.14.27.743
12872;168774;33.24;192;04.14.27.743
12900;168771;33.24;193;04.14.27.743
12880;168779;33.24;194;04.14.27.743
12884;168776;33.24;195;04.14.27.743
12904;168782;33.24;196;04.14.27.743
12892;168784;33.24;197;04.14.27.743
12900;168784;33.24;198;04.14.27.743
12904;168783;33.24;199;04.14.27.743
12880;168800;33.24;200;04.14.27.841
12872;168795;33.24;201;04.14.27.841
12884;168801;33.24;202;04.14.27.841
12864;168798;33.24;203;04.14.27.841
12896;168802;33.24;204;04.14.27.841
12900;168804;33.24;205;04.14.27.841
12896;168803;33.24;206;04.14.27.841
12884;168806;33.24;207;04.14.27.841
12896;168807;33.24;208;04.14.27.841
12884;168804;33.24;209;04.14.27.841
12880;168801;33.24;210;04.14.27.841
12880;168807;33.24;211;04.14.27.852
12868;168806;33.24;212;04.14.27.852
12880;168803;33.24;213;04.14.27.852
12872;168799;33.24;214;04.14.27.852
12884;168793;33.24;215;04.14.27.852
12868;168802;33.24;216;04.14.27.852
12880;168798;33.24;217;04.14.27.863
12868;168799;33.24;218;04.14.27.863
12904;168792;33.24;219;04.14.27.863
12888;168789;33.24;220;04.14.27.863
12908;168785;33.24;221;04.14.27.863
12896;168787;33.24;222;04.14.27.863
12908;168785;33.24;223;04.14.27.863
12884;168790;33.24;224;04.14.27.863
12912;168786;33.20;225;04.14.27.962
12908;168786;33.20;226;04.14.27.962
12892;168786;33.20;227;04.14.27.962
12884;168786;33.20;228;04.14.27.962
12876;168780;33.20;229;04.14.27.962
12892;168788;33.20;230;04.14.27.962
12880;168784;33.20;231;04.14.27.962
12892;168774;33.20;232;04.14.27.962
12916;168782;33.20;233;04.14.27.973
12928;168785;33.20;234;04.14.27.973
12860;168778;33.20;235;04.14.27.973
12888;168788;33.20;236;04.14.27.973
12876;168788;33.20;237;04.14.27.973
12860;168789;33.20;238;04.14.27.973
12896;168787;33.20;239;04.14.27.973
12884;168791;33.20;240;04.14.27.973
12896;168791;33.20;241;04.14.27.973
12912;168790;33.20;242;04.14.28.017
12860;168780;33.20;243;04.14.28.017
12880;168796;33.20;244;04.14.28.017
12872;168797;33.20;245;04.14.28.017
12912;168795;33.20;246;04.14.28.017
12876;168795;33.20;247;04.14.28.017
12892;168796;33.20;248;04.14.28.017
12900;168791;33.20;249;04.14.28.017
12884;168789;33.20;250;04.14.28.083
12868;168796;33.20;251;04.14.28.083
12896;168797;33.20;252;04.14.28.083
12868;168800;33.20;253;04.14.28.083
12888;168796;33.20;254;04.14.28.083
12912;168799;33.20;255;04.14.28.094
12904;168803;33.20;256;04.14.28.094
12912;168806;33.20;257;04.14.28.094
12876;168805;33.20;258;04.14.28.094
12860;168798;33.20;259;04.14.28.094
12896;168805;33.20;260;04.14.28.094
12880;168808;33.20;261;04.14.28.094
12908;168816;33.20;262;04.14.28.094
12876;168810;33.20;263;04.14.28.094
12872;168814;33.20;264;04.14.28.094
12876;168816;33.20;265;04.14.28.094
12892;168821;33.20;266;04.14.28.094
12896;168827;33.20;267;04.14.28.094
12860;168826;33.20;268;04.14.28.105
12880;168826;33.20;269;04.14.28.105
12924;168829;33.20;270;04.14.28.105
12888;168832;33.20;271;04.14.28.105
12884;168831;33.20;272;04.14.28.105
12892;168828;33.20;273;04.14.28.105
12908;168832;33.20;274;04.14.28.105
12900;168836;33.24;275;04.14.28.225
12876;168835;33.24;276;04.14.28.225
12916;168848;33.24;277;04.14.28.225
12880;168836;33.24;278;04.14.28.225
12904;168840;33.24;279;04.14.28.225
12880;168841;33.24;280;04.14.28.225
12884;168844;33.24;281;04.14.28.225
12868;168854;33.24;282;04.14.28.225
12892;168851;33.24;283;04.14.28.225
12892;168852;33.24;284;04.14.28.225
12892;168858;33.24;285;04.14.28.225
12892;168867;33.24;286;04.14.28.225
12880;168855;33.24;287;04.14.28.225
12876;168864;33.24;288;04.14.28.225
12880;168866;33.24;289;04.14.28.236
12864;168872;33.24;290;04.14.28.236
12900;168884;33.24;291;04.14.28.236
12880;168876;33.24;292;04.14.28.236
12896;168888;33.24;293;04.14.28.247
12884;168889;33.24;294;04.14.28.247
12928;168890;33.24;295;04.14.28.247
12880;168893;33.24;296;04.14.28.247
12912;168890;33.24;297;04.14.28.247
12888;168899;33.24;298;04.14.28.247
12892;168890;33.24;299;04.14.28.247
12904;168901;33.24;300;04.14.28.356
12888;168894;33.24;301;04.14.28.356
12912;168896;33.24;302;04.14.28.356
12888;168896;33.24;303;04.14.28.356
12892;168894;33.24;304;04.14.28.356
12904;168892;33.24;305;04.14.28.356
12896;168880;33.24;306;04.14.28.356
12888;168886;33.24;307;04.14.28.356
12872;168883;33.24;308;04.14.28.356
12912;168875;33.24;309;04.14.28.356
12892;168879;33.24;310;04.14.28.367
12880;168878;33.24;311;04.14.28.367
12880;168869;33.24;312;04.14.28.367
12876;168871;33.24;313;04.14.28.367
12884;168871;33.24;314;04.14.28.367
12928;168863;33.24;315;04.14.28.367
12896;168864;33.24;316;04.14.28.367
12880;168857;33.24;317;04.14.28.367
12896;168855;33.24;318;04.14.28.367
12860;168848;33.24;319;04.14.28.367
12900;168848;33.24;320;04.14.28.367
12908;168848;33.24;321;04.14.28.367
12888;168846;33.24;322;04.14.28.378
12884;168848;33.24;323;04.14.28.378
12908;168840;33.24;324;04.14.28.378
12880;168845;33.24;325;04.14.28.466
12880;168845;33.24;326;04.14.28.466
12892;168841;33.24;327;04.14.28.466
12904;168835;33.24;328;04.14.28.466
12896;168840;33.24;329;04.14.28.466
12880;168838;33.24;330;04.14.28.466
12888;168842;33.24;331;04.14.28.466
12888;168842;33.24;332;04.14.28.477
12900;168831;33.24;333;04.14.28.488
12892;168841;33.24;334;04.14.28.488
12908;168834;33.24;335;04.14.28.488
12872;168833;33.24;336;04.14.28.488
12896;168833;33.24;337;04.14.28.488
12904;168837;33.24;338;04.14.28.488
12896;168841;33.24;339;04.14.28.499
12884;168840;33.24;340;04.14.28.499
12896;168833;33.24;341;04.14.28.499
12888;168832;33.24;342;04.14.28.499
12900;168843;33.24;343;04.14.28.499
12880;168841;33.24;344;04.14.28.499
12860;168838;33.24;345;04.14.28.499
12888;168843;33.24;346;04.14.28.499
12908;168844;33.24;347;04.14.28.499
12856;168839;33.24;348;04.14.28.499
12900;168842;33.24;349;04.14.28.499
12876;168844;33.24;350;04.14.28.587
12900;168840;33.24;351;04.14.28.587
12884;168839;33.24;352;04.14.28.587
12868;168840;33.24;353;04.14.28.598
12908;168842;33.24;354;04.14.28.598
12884;168852;33.24;355;04.14.28.598
12900;168853;33.24;356;04.14.28.598
12888;168854;33.24;357;04.14.28.598
12868;168847;33.24;358;04.14.28.598
12856;168854;33.24;359;04.14.28.598
12900;168851;33.24;360;04.14.28.598
12896;168853;33.24;361;04.14.28.598
12896;168854;33.24;362;04.14.28.598
12928;168855;33.24;363;04.14.28.598
12872;168845;33.24;364;04.14.28.598
12900;168852;33.24;365;04.14.28.598
12864;168851;33.24;366;04.14.28.609
12880;168856;33.24;367;04.14.28.609
12892;168839;33.24;368;04.14.28.609
12856;168852;33.24;369;04.14.28.609
12892;168841;33.24;370;04.14.28.609
12876;168838;33.24;371;04.14.28.609
12888;168841;33.24;372;04.14.28.609
12888;168846;33.24;373;04.14.28.609
12908;168847;33.24;374;04.14.28.609
12860;168847;33.24;375;04.14.28.718
12880;168842;33.24;376;04.14.28.718
12876;168846;33.24;377;04.14.28.718
12904;168845;33.24;378;04.14.28.718
12876;168847;33.24;379;04.14.28.718
12884;168840;33.24;380;04.14.28.718
12868;168841;33.24;381;04.14.28.718
12884;168846;33.24;382;04.14.28.718
12884;168842;33.24;383;04.14.28.718
12892;168847;33.24;384;04.14.28.718
12876;168852;33.24;385;04.14.28.718
12884;168852;33.24;386;04.14.28.718
12856;168846;33.24;387;04.14.28.729
12896;168855;33.24;388;04.14.28.729
12876;168845;33.24;389;04.14.28.729
12892;168848;33.24;390;04.14.28.729
12896;168850;33.24;391;04.14.28.729
12900;168852;33.24;392;04.14.28.729
12876;168841;33.24;393;04.14.28.729
12880;168842;33.24;394;04.14.28.729
12884;168852;33.24;395;04.14.28.729
12896;168850;33.24;396;04.14.28.729
12880;168851;33.24;397;04.14.28.729
12908;168854;33.24;398;04.14.28.729
12892;168848;33.24;399;04.14.28.729
12896;168850;33.24;400;04.14.28.850
12904;168857;33.24;401;04.14.28.850
12876;168855;33.24;402;04.14.28.850
12888;168853;33.24;403;04.14.28.850
12876;168857;33.24;404;04.14.28.850
12888;168855;33.24;405;04.14.28.850
12896;168861;33.24;406;04.14.28.850
12880;168856;33.24;407;04.14.28.850
12880;168856;33.24;408;04.14.28.861
12900;168853;33.24;409;04.14.28.861
12884;168861;33.24;410;04.14.28.861
12876;168863;33.24;411;04.14.28.861
12884;168851;33.24;412;04.14.28.861
12876;168856;33.24;413;04.14.28.861
12876;168852;33.24;414;04.14.28.861
12888;168860;33.24;415;04.14.28.861
12880;168870;33.24;416;04.14.28.861
12900;168858;33.24;417;04.14.28.861
12896;168860;33.24;418;04.14.28.861
12888;168864;33.24;419;04.14.28.861
12900;168866;33.24;420;04.14.28.872
12896;168871;33.24;421;04.14.28.872
12892;168860;33.24;422;04.14.28.872
12904;168867;33.24;423;04.14.28.872
12880;168866;33.24;424;04.14.28.872
12880;168869;33.20;425;04.14.28.982
12888;168867;33.20;426;04.14.28.982
12896;168871;33.20;427;04.14.28.982
12876;168873;33.20;428;04.14.28.982
12876;168867;33.20;429;04.14.28.993
12892;168880;33.20;430;04.14.28.993
12856;168893;33.20;431;04.14.28.993
12896;168883;33.20;432;04.14.28.993
12904;168884;33.20;433;04.14.28.993
12888;168890;33.20;434;04.14.28.993
12912;168902;33.20;435;04.14.28.993
12884;168907;33.20;436;04.14.28.993
12908;168900;33.20;437;04.14.28.993
12888;168905;33.20;438;04.14.28.993
12872;168899;33.20;439;04.14.28.993
12876;168908;33.20;440;04.14.28.993
12868;168914;33.20;441;04.14.28.993
12896;168919;33.20;442;04.14.28.993
12860;168906;33.20;443;04.14.29.004
12888;168903;33.20;444;04.14.29.004
12888;168900;33.20;445;04.14.29.004
12904;168903;33.20;446;04.14.29.004
12880;168899;33.20;447;04.14.29.004
12928;168892;33.20;448;04.14.29.004
12928;168886;33.20;449;04.14.29.004
12880;168888;33.20;450;04.14.29.124
12900;168886;33.20;451;04.14.29.124
12876;168880;33.20;452;04.14.29.124
12916;168876;33.20;453;04.14.29.124
12888;168863;33.20;454;04.14.29.124
12892;168861;33.20;455;04.14.29.124
12880;168863;33.20;456;04.14.29.124
12892;168856;33.20;457;04.14.29.124
12904;168854;33.20;458;04.14.29.124
12880;168849;33.20;459;04.14.29.124
12872;168840;33.20;460;04.14.29.124
12872;168833;33.20;461;04.14.29.124
12892;168836;33.20;462;04.14.29.124
12880;168836;33.20;463;04.14.29.135
12904;168843;33.20;464;04.14.29.135
12928;168838;33.20;465;04.14.29.135
12900;168825;33.20;466;04.14.29.135
12892;168827;33.20;467;04.14.29.167
12880;168831;33.20;468;04.14.29.167
12892;168831;33.20;469;04.14.29.167
12904;168831;33.20;470;04.14.29.167
12900;168824;33.20;471;04.14.29.167
12900;168823;33.20;472;04.14.29.167
12876;168832;33.20;473;04.14.29.167
12928;168836;33.20;474;04.14.29.167
12872;168827;33.24;475;04.14.29.211
12884;168832;33.24;476;04.14.29.211
12880;168833;33.24;477;04.14.29.211
12896;168834;33.24;478;04.14.29.211
12888;168832;33.24;479;04.14.29.211
12888;168837;33.24;480;04.14.29.211
12876;168839;33.24;481;04.14.29.211
12888;168840;33.24;482;04.14.29.211
12872;168839;33.24;483;04.14.29.211
12896;168845;33.24;484;04.14.29.222
12884;168852;33.24;485;04.14.29.222
12884;168850;33.24;486;04.14.29.222
12872;168852;33.24;487;04.14.29.222
12880;168844;33.24;488;04.14.29.222
12900;168848;33.24;489;04.14.29.222
12876;168862;33.24;490;04.14.29.222
12880;168859;33.24;491;04.14.29.222
12876;168850;33.24;492;04.14.29.222
12888;168862;33.24;493;04.14.29.222
12896;168865;33.24;494;04.14.29.222
12880;168860;33.24;495;04.14.29.222
12896;168855;33.24;496;04.14.29.222
12896;168863;33.24;497;04.14.29.233
12892;168859;33.24;498;04.14.29.233
12876;168858;33.24;499;04.14.29.233
12860;168860;33.24;500;04.14.29.343
12852;168852;33.24;501;04.14.29.343
12896;168851;33.24;502;04.14.29.343
12892;168854;33.24;503;04.14.29.343
12880;168856;33.24;504;04.14.29.343
12912;168852;33.24;505;04.14.29.343
12916;168848;33.24;506;04.14.29.354
12904;168841;33.24;507;04.14.29.354
12896;168844;33.24;508;04.14.29.354
12900;168848;33.24;509;04.14.29.354
12892;168849;33.24;510;04.14.29.354
12896;168853;33.24;511;04.14.29.354
12876;168847;33.24;512;04.14.29.354
12928;168846;33.24;513;04.14.29.354
12928;168853;33.24;514;04.14.29.354
12900;168847;33.24;515;04.14.29.354
12876;168854;33.24;516;04.14.29.354
12912;168845;33.24;517;04.14.29.354
12936;168853;33.24;518;04.14.29.354
12904;168848;33.24;519;04.14.29.365
12908;168855;33.24;520;04.14.29.365
12884;168856;33.24;521;04.14.29.365
12888;168846;33.24;522;04.14.29.365
12884;168849;33.24;523;04.14.29.365
12892;168855;33.24;524;04.14.29.365
12904;168864;33.28;525;04.14.29.475
12904;168859;33.28;526;04.14.29.475
12896;168859;33.28;527;04.14.29.486
12892;168857;33.28;528;04.14.29.486
12844;168859;33.28;529;04.14.29.486
12892;168859;33.28;530;04.14.29.486
12876;168862;33.28;531;04.14.29.486
12872;168863;33.28;532;04.14.29.486
12892;168865;33.28;533;04.14.29.486
12872;168865;33.28;534;04.14.29.486
12896;168868;33.28;535;04.14.29.486
12888;168876;33.28;536;04.14.29.486
12880;168875;33.28;537;04.14.29.486
12912;168882;33.28;538;04.14.29.486
12856;168877;33.28;539;04.14.29.486
12868;168876;33.28;540;04.14.29.497
12892;168875;33.28;541;04.14.29.497
12876;168884;33.28;542;04.14.29.497
12876;168882;33.28;543;04.14.29.497
12876;168891;33.28;544;04.14.29.497
12884;168888;33.28;545;04.14.29.497
12896;168892;33.28;546;04.14.29.497
12872;168888;33.28;547;04.14.29.497
12852;168891;33.28;548;04.14.29.497
12892;168892;33.28;549;04.14.29.497
12884;168890;33.28;550;04.14.29.590
12888;168889;33.28;551;04.14.29.590
12876;168895;33.28;552;04.14.29.590
12908;168893;33.28;553;04.14.29.591
12884;168894;33.28;554;04.14.29.591
12892;168894;33.28;555;04.14.29.591
12896;168896;33.28;556;04.14.29.591
12908;168884;33.28;557;04.14.29.602
12868;168893;33.28;558;04.14.29.602
12892;168885;33.28;559;04.14.29.602
12876;168890;33.28;560;04.14.29.602
12888;168892;33.28;561;04.14.29.602
12872;168892;33.28;562;04.14.29.602
12896;168888;33.28;563;04.14.29.602
12888;168888;33.28;564;04.14.29.602
12904;168896;33.28;565;04.14.29.613
12900;168896;33.28;566;04.14.29.613
12912;168886;33.28;567;04.14.29.613
12900;168900;33.28;568;04.14.29.613
12888;168889;33.28;569;04.14.29.613
12924;168899;33.28;570;04.14.29.613
12884;168904;33.28;571;04.14.29.613
12896;168898;33.28;572;04.14.29.613
12900;168898;33.28;573;04.14.29.613
12916;168901;33.28;574;04.14.29.624
12896;168904;33.24;575;04.14.29.712
12888;168902;33.24;576;04.14.29.712
12888;168905;33.24;577;04.14.29.712
12888;168915;33.24;578;04.14.29.712
12928;168912;33.24;579;04.14.29.723
12876;168916;33.24;580;04.14.29.723
12860;168922;33.24;581;04.14.29.723
12892;168917;33.24;582;04.14.29.723
12892;168905;33.24;583;04.14.29.723
12884;168911;33.24;584;04.14.29.723
12896;168922;33.24;585;04.14.29.723
12892;168915;33.24;586;04.14.29.723
12896;168910;33.24;587;04.14.29.723
12880;168912;33.24;588;04.14.29.723
12896;168918;33.24;589;04.14.29.723
12900;168906;33.24;590;04.14.29.723
12896;168903;33.24;591;04.14.29.723
12912;168909;33.24;592;04.14.29.724
12868;168898;33.24;593;04.14.29.725
12860;168898;33.24;594;04.14.29.736
12884;168904;33.24;595;04.14.29.736
12888;168894;33.24;596;04.14.29.736
12860;168903;33.24;597;04.14.29.736
12892;168896;33.24;598;04.14.29.736
12908;168892;33.24;599;04.14.29.736
12880;168890;33.24;600;04.14.29.835
12904;168891;33.24;601;04.14.29.846
12896;168886;33.24;602;04.14.29.846
12880;168893;33.24;603;04.14.29.846
12896;168890;33.24;604;04.14.29.846
12888;168890;33.24;605;04.14.29.846
12860;168889;33.24;606;04.14.29.846
12892;168883;33.24;607;04.14.29.846
12892;168880;33.24;608;04.14.29.846
12884;168884;33.24;609;04.14.29.846
12880;168888;33.24;610;04.14.29.846
12892;168890;33.24;611;04.14.29.846
12892;168874;33.24;612;04.14.29.846
12896;168879;33.24;613;04.14.29.846
12900;168874;33.24;614;04.14.29.846
12888;168877;33.24;615;04.14.29.857
12880;168875;33.24;616;04.14.29.857
12928;168872;33.24;617;04.14.29.857
12912;168876;33.24;618;04.14.29.857
12876;168868;33.24;619;04.14.29.868
12896;168869;33.24;620;04.14.29.868
12860;168872;33.24;621;04.14.29.868
12876;168870;33.24;622;04.14.29.868
12896;168871;33.24;623;04.14.29.868
12916;168867;33.24;624;04.14.29.868
12896;168873;33.24;625;04.14.29.976
12880;168871;33.24;626;04.14.29.976
12872;168868;33.24;627;04.14.29.976
12884;168879;33.24;628;04.14.29.976
12888;168879;33.24;629;04.14.29.976
12928;168876;33.24;630;04.14.29.976
12880;168881;33.24;631;04.14.29.976
12856;168884;33.24;632;04.14.29.976
12884;168881;33.24;633;04.14.29.976
12864;168880;33.24;634;04.14.29.976
12900;168878;33.24;635;04.14.29.987
12880;168883;33.24;636;04.14.29.987
12880;168882;33.24;637;04.14.29.987
12888;168889;33.24;638;04.14.29.987
12904;168886;33.24;639;04.14.29.987
12888;168884;33.24;640;04.14.29.987
12904;168888;33.24;641;04.14.29.987
12888;168893;33.24;642;04.14.29.987
12892;168885;33.24;643;04.14.29.987
12888;168888;33.24;644;04.14.29.987
12904;168896;33.24;645;04.14.29.987
12904;168891;33.24;646;04.14.29.987
12896;168888;33.24;647;04.14.29.987
12908;168880;33.24;648;04.14.29.998
12876;168886;33.24;649;04.14.29.998
12888;168897;33.24;650;04.14.30.086
12912;168896;33.24;651;04.14.30.086
12928;168895;33.24;652;04.14.30.086
12884;168895;33.24;653;04.14.30.086
12904;168899;33.24;654;04.14.30.086
12908;168895;33.24;655;04.14.30.086
12900;168900;33.24;656;04.14.30.097
12888;168903;33.24;657;04.14.30.097
12876;168898;33.24;658;04.14.30.108
12896;168903;33.24;659;04.14.30.108
12904;168894;33.24;660;04.14.30.108
12892;168905;33.24;661;04.14.30.108
12892;168897;33.24;662;04.14.30.108
12884;168899;33.24;663;04.14.30.108
12888;168899;33.24;664;04.14.30.119
12900;168911;33.24;665;04.14.30.119
12864;168907;33.24;666;04.14.30.119
12884;168907;33.24;667;04.14.30.119
12892;168898;33.24;668;04.14.30.119
12896;168911;33.24;669;04.14.30.119
12904;168907;33.24;670;04.14.30.119
12908;168908;33.24;671;04.14.30.119
12928;168912;33.24;672;04.14.30.119
12904;168909;33.24;673;04.14.30.119
12912;168914;33.24;674;04.14.30.119
12912;168926;33.24;675;04.14.30.207
12876;168920;33.24;676;04.14.30.207
12908;168925;33.24;677;04.14.30.207
12888;168921;33.24;678;04.14.30.218
12884;168923;33.24;679;04.14.30.218
12892;168919;33.24;680;04.14.30.218
12892;168925;33.24;681;04.14.30.218
12888;168922;33.24;682;04.14.30.218
12904;168920;33.24;683;04.14.30.218
12872;168921;33.24;684;04.14.30.218
12912;168923;33.24;685;04.14.30.218
12888;168931;33.24;686;04.14.30.218
12884;168926;33.24;687;04.14.30.218
12880;168928;33.24;688;04.14.30.218
12904;168931;33.24;689;04.14.30.218
12872;168930;33.24;690;04.14.30.218
12900;168932;33.24;691;04.14.30.229
12888;168927;33.24;692;04.14.30.240
12880;168935;33.24;693;04.14.30.240
12896;168932;33.24;694;04.14.30.240
12896;168936;33.24;695;04.14.30.240
12880;168941;33.24;696;04.14.30.250
12888;168932;33.24;697;04.14.30.250
12900;168933;33.24;698;04.14.30.250
12900;168931;33.24;699;04.14.30.250
12888;168941;33.24;700;04.14.30.338
12896;168939;33.24;701;04.14.30.338
12880;168942;33.24;702;04.14.30.338
12860;168943;33.24;703;04.14.30.338
12912;168943;33.24;704;04.14.30.338
12888;168956;33.24;705;04.14.30.338
12896;168948;33.24;706;04.14.30.338
12904;168954;33.24;707;04.14.30.338
12888;168953;33.24;708;04.14.30.338
12900;168952;33.24;709;04.14.30.338
12928;168954;33.24;710;04.14.30.338
12884;168955;33.24;711;04.14.30.338
12892;168955;33.24;712;04.14.30.349
12876;168952;33.24;713;04.14.30.349
12872;168956;33.24;714;04.14.30.349
12888;168961;33.24;715;04.14.30.349
12904;168954;33.24;716;04.14.30.349
12888;168964;33.24;717;04.14.30.349
12920;168967;33.24;718;04.14.30.349
12896;168956;33.24;719;04.14.30.349
12884;168963;33.24;720;04.14.30.349
12896;168965;33.24;721;04.14.30.349
12912;168964;33.24;722;04.14.30.349
12880;168964;33.24;723;04.14.30.349
12888;168967;33.24;724;04.14.30.360
12912;168968;33.24;725;04.14.30.470
12892;168959;33.24;726;04.14.30.470
12876;168955;33.24;727;04.14.30.470
12872;168954;33.24;728;04.14.30.470
12896;168950;33.24;729;04.14.30.470
12852;168941;33.24;730;04.14.30.470
12876;168947;33.24;731;04.14.30.470
12872;168944;33.24;732;04.14.30.480
12892;168940;33.24;733;04.14.30.480
12908;168943;33.24;734;04.14.30.480
12888;168942;33.24;735;04.14.30.480
12860;168937;33.24;736;04.14.30.480
12908;168931;33.24;737;04.14.30.480
12876;168926;33.24;738;04.14.30.480
12880;168925;33.24;739;04.14.30.480
12892;168925;33.24;740;04.14.30.480
12884;168920;33.24;741;04.14.30.480
12876;168926;33.24;742;04.14.30.480
12904;168923;33.24;743;04.14.30.480
12928;168914;33.24;744;04.14.30.480
12908;168925;33.24;745;04.14.30.491
12928;168908;33.24;746;04.14.30.491
12880;168909;33.24;747;04.14.30.491
12884;168914;33.24;748;04.14.30.491
12928;168911;33.24;749;04.14.30.491
12884;168924;33.24;750;04.14.30.600
12896;168911;33.24;751;04.14.30.610
12900;168914;33.24;752;04.14.30.610
12888;168921;33.24;753;04.14.30.610
12928;168912;33.24;754;04.14.30.610
12884;168918;33.24;755;04.14.30.610
12860;168912;33.24;756;04.14.30.610
12896;168915;33.24;757;04.14.30.610
12896;168913;33.24;758;04.14.30.610
12912;168917;33.24;759;04.14.30.610
12912;168919;33.24;760;04.14.30.610
12888;168920;33.24;761;04.14.30.610
12876;168922;33.24;762;04.14.30.610
12924;168915;33.24;763;04.14.30.610
12912;168910;33.24;764;04.14.30.621
12888;168920;33.24;765;04.14.30.621
12876;168920;33.24;766;04.14.30.621
12880;168927;33.24;767;04.14.30.621
12872;168922;33.24;768;04.14.30.621
12876;168920;33.24;769;04.14.30.621
12892;168918;33.24;770;04.14.30.621
12876;168919;33.24;771;04.14.30.621
12888;168920;33.24;772;04.14.30.621
12900;168915;33.24;773;04.14.30.621
12908;168922;33.24;774;04.14.30.621
12896;168914;33.24;775;04.14.30.720
12876;168921;33.24;776;04.14.30.720
12888;168914;33.24;777;04.14.30.720
12900;168914;33.24;778;04.14.30.720
12896;168916;33.24;779;04.14.30.720
12872;168915;33.24;780;04.14.30.720
12864;168920;33.24;781;04.14.30.720
12900;168910;33.24;782;04.14.30.720
12904;168921;33.24;783;04.14.30.742
12876;168913;33.24;784;04.14.30.742
12884;168915;33.24;785;04.14.30.742
12868;168908;33.24;786;04.14.30.742
12884;168913;33.24;787;04.14.30.742
12872;168914;33.24;788;04.14.30.742
12896;168919;33.24;789;04.14.30.742
12912;168914;33.24;790;04.14.30.742
12896;168910;33.24;791;04.14.30.742
12896;168911;33.24;792;04.14.30.742
12904;168915;33.24;793;04.14.30.742
12872;168919;33.24;794;04.14.30.742
12900;168912;33.24;795;04.14.30.753
12884;168920;33.24;796;04.14.30.753
12896;168916;33.24;797;04.14.30.753
12880;168920;33.24;798;04.14.30.753
12936;168916;33.24;799;04.14.30.753
12892;168909;33.24;800;04.14.30.840
12860;168918;33.24;801;04.14.30.840
12844;168927;33.24;802;04.14.30.840
12916;168920;33.24;803;04.14.30.840
12900;168921;33.24;804;04.14.30.840
12892;168929;33.24;805;04.14.30.840
12912;168922;33.24;806;04.14.30.851
12900;168926;33.24;807;04.14.30.851
12884;168924;33.24;808;04.14.30.851
12876;168932;33.24;809;04.14.30.851
12876;168924;33.24;810;04.14.30.851
12896;168934;33.24;811;04.14.30.851
12908;168925;33.24;812;04.14.30.851
12904;168938;33.24;813;04.14.30.851
12864;168928;33.24;814;04.14.30.851
12892;168939;33.24;815;04.14.30.851
12896;168939;33.24;816;04.14.30.851
12884;168935;33.24;817;04.14.30.851
12888;168936;33.24;818;04.14.30.851
12876;168936;33.24;819;04.14.30.851
12884;168942;33.24;820;04.14.30.863
12888;168937;33.24;821;04.14.30.863
12880;168942;33.24;822;04.14.30.863
12876;168938;33.24;823;04.14.30.863
12892;168938;33.24;824;04.14.30.863
12880;168937;33.24;825;04.14.30.973
12892;168946;33.24;826;04.14.30.973
12908;168939;33.24;827;04.14.30.973
12892;168940;33.24;828;04.14.30.983
12888;168940;33.24;829;04.14.30.983
12880;168947;33.24;830;04.14.30.983
12888;168951;33.24;831;04.14.30.983
12904;168952;33.24;832;04.14.30.983
12896;168942;33.24;833;04.14.30.983
12912;168953;33.24;834;04.14.30.983
12892;168948;33.24;835;04.14.30.983
12876;168950;33.24;836;04.14.30.983
12904;168963;33.24;837;04.14.30.983
12920;168951;33.24;838;04.14.30.983
12880;168954;33.24;839;04.14.30.983
12884;168950;33.24;840;04.14.30.983
12868;168957;33.24;841;04.14.30.994
12888;168959;33.24;842;04.14.30.994
12888;168960;33.24;843;04.14.30.994
12912;168963;33.24;844;04.14.30.994
12892;168965;33.24;845;04.14.30.994
12876;168966;33.24;846;04.14.30.994
12884;168963;33.24;847;04.14.30.994
12860;168957;33.24;848;04.14.30.994
12908;168960;33.24;849;04.14.30.994
12896;168963;33.24;850;04.14.31.094
12892;168962;33.24;851;04.14.31.094
12896;168965;33.24;852;04.14.31.105
12892;168965;33.24;853;04.14.31.105
12888;168962;33.24;854;04.14.31.105
12880;168967;33.24;855;04.14.31.105
12896;168970;33.24;856;04.14.31.105
12900;168969;33.24;857;04.14.31.105
12928;168968;33.24;858;04.14.31.105
12896;168970;33.24;859;04.14.31.105
12912;168967;33.24;860;04.14.31.105
12912;168964;33.24;861;04.14.31.105
12876;168964;33.24;862;04.14.31.105
12884;168956;33.24;863;04.14.31.105
12888;168951;33.24;864;04.14.31.105
12872;168957;33.24;865;04.14.31.116
12892;168951;33.24;866;04.14.31.116
12892;168946;33.24;867;04.14.31.116
12904;168948;33.24;868;04.14.31.116
12928;168947;33.24;869;04.14.31.116
12896;168941;33.24;870;04.14.31.116
12892;168939;33.24;871;04.14.31.116
12888;168934;33.24;872;04.14.31.116
12904;168947;33.24;873;04.14.31.116
12908;168931;33.24;874;04.14.31.116
12892;168930;33.24;875;04.14.31.215
12884;168926;33.24;876;04.14.31.215
12892;168933;33.24;877;04.14.31.215
12892;168925;33.24;878;04.14.31.215
12920;168912;33.24;879;04.14.31.215
12888;168919;33.24;880;04.14.31.215
12892;168922;33.24;881;04.14.31.215
12884;168917;33.24;882;04.14.31.215
12892;168917;33.24;883;04.14.31.237
12876;168923;33.24;884;04.14.31.237
12892;168918;33.24;885;04.14.31.237
12904;168925;33.24;886;04.14.31.237
12900;168922;33.24;887;04.14.31.237
12904;168918;33.24;888;04.14.31.237
12928;168909;33.24;889;04.14.31.237
12888;168912;33.24;890;04.14.31.237
12896;168921;33.24;891;04.14.31.237
12904;168913;33.24;892;04.14.31.237
12896;168910;33.24;893;04.14.31.237
12884;168914;33.24;894;04.14.31.240
12904;168911;33.24;895;04.14.31.240
12912;168909;33.24;896;04.14.31.240
12880;168920;33.24;897;04.14.31.240
12892;168915;33.24;898;04.14.31.251
12876;168920;33.24;899;04.14.31.251
12892;168918;33.24;900;04.14.31.339
12860;168922;33.24;901;04.14.31.339
12904;168930;33.24;902;04.14.31.339
12880;168923;33.24;903;04.14.31.339
12904;168926;33.24;904;04.14.31.339
12860;168930;33.24;905;04.14.31.339
12892;168925;33.24;906;04.14.31.339
12888;168928;33.24;907;04.14.31.339
12888;168920;33.24;908;04.14.31.339
12880;168923;33.24;909;04.14.31.339
12908;168924;33.24;910;04.14.31.339
12872;168915;33.24;911;04.14.31.350
12888;168922;33.24;912;04.14.31.350
12888;168922;33.24;913;04.14.31.350
12884;168929;33.24;914;04.14.31.350
12876;168920;33.24;915;04.14.31.350
12888;168918;33.24;916;04.14.31.350
12876;168923;33.24;917;04.14.31.350
12884;168921;33.24;918;04.14.31.350
12884;168921;33.24;919;04.14.31.350
12892;168926;33.24;920;04.14.31.350
12888;168930;33.24;921;04.14.31.350
12876;168919;33.24;922;04.14.31.350
12928;168928;33.24;923;04.14.31.360
12936;168921;33.24;924;04.14.31.360
12868;168926;33.20;925;04.14.31.459
12900;168925;33.20;926;04.14.31.459
12896;168920;33.20;927;04.14.31.459
12900;168924;33.20;928;04.14.31.459
12896;168922;33.20;929;04.14.31.459
12896;168918;33.20;930;04.14.31.459
12872;168928;33.20;931;04.14.31.459
12908;168928;33.20;932;04.14.31.459
12884;168926;33.20;933;04.14.31.470
12876;168923;33.20;934;04.14.31.470
12880;168920;33.20;935;04.14.31.470
12872;168920;33.20;936;04.14.31.470
12876;168922;33.20;937;04.14.31.470
12892;168929;33.20;938;04.14.31.470
12884;168930;33.20;939;04.14.31.470
12884;168927;33.20;940;04.14.31.481
12884;168926;33.20;941;04.14.31.481
12904;168930;33.20;942;04.14.31.481
12888;168927;33.20;943;04.14.31.481
12908;168939;33.20;944;04.14.31.481
12880;168927;33.20;945;04.14.31.481
12888;168945;33.20;946;04.14.31.481
12872;168941;33.20;947;04.14.31.481
12852;168943;33.20;948;04.14.31.481
12916;168937;33.20;949;04.14.31.481
12860;168937;33.20;950;04.14.31.591
12872;168944;33.20;951;04.14.31.591
12872;168945;33.20;952;04.14.31.591
12860;168947;33.20;953;04.14.31.602
12896;168947;33.20;954;04.14.31.602
12884;168950;33.20;955;04.14.31.602
12888;168943;33.20;956;04.14.31.602
12888;168951;33.20;957;04.14.31.602
12888;168952;33.20;958;04.14.31.602
12880;168952;33.20;959;04.14.31.602
12884;168949;33.20;960;04.14.31.602
12892;168952;33.20;961;04.14.31.602
12896;168950;33.20;962;04.14.31.602
12884;168954;33.20;963;04.14.31.602
12872;168951;33.20;964;04.14.31.602
12896;168955;33.20;965;04.14.31.602
12896;168942;33.20;966;04.14.31.613
12892;168960;33.20;967;04.14.31.613
12908;168952;33.20;968;04.14.31.613
12896;168964;33.20;969;04.14.31.613
12868;168959;33.20;970;04.14.31.613
12896;168961;33.20;971;04.14.31.613
12896;168958;33.20;972;04.14.31.613
12880;168956;33.20;973;04.14.31.613
12876;168961;33.20;974;04.14.31.613
12896;168957;33.24;975;04.14.31.733
12888;168957;33.24;976;04.14.31.733
12880;168961;33.24;977;04.14.31.733
12880;168964;33.24;978;04.14.31.733
12900;168963;33.24;979;04.14.31.733
12900;168969;33.24;980;04.14.31.733
12904;168966;33.24;981;04.14.31.733
12892;168965;33.24;982;04.14.31.733
12888;168968;33.24;983;04.14.31.733
12872;168967;33.24;984;04.14.31.733
12908;168969;33.24;985;04.14.31.733
12876;168966;33.24;986;04.14.31.744
12880;168976;33.24;987;04.14.31.744
12884;168981;33.24;988;04.14.31.744
12904;168973;33.24;989;04.14.31.744
12912;168979;33.24;990;04.14.31.744
12880;168973;33.24;991;04.14.31.744
12884;168973;33.24;992;04.14.31.744
12896;168983;33.24;993;04.14.31.744
12896;168970;33.24;994;04.14.31.744
12864;168971;33.24;995;04.14.31.744
12896;168964;33.24;996;04.14.31.744
12888;168964;33.24;997;04.14.31.744
12872;168965;33.24;998;04.14.31.744
12888;168963;33.24;999;04.14.31.744
12884;168960;33.24;000;04.14.31.843
12892;168951;33.24;001;04.14.31.843
12900;168948;33.24;002;04.14.31.843
12880;168954;33.24;003;04.14.31.843
12888;168954;33.24;004;04.14.31.843
12892;168945;33.24;005;04.14.31.843
12892;168929;33.24;006;04.14.31.843
12884;168937;33.24;007;04.14.31.843
12888;168927;33.24;008;04.14.31.876
12928;168926;33.24;009;04.14.31.876
12904;168920;33.24;010;04.14.31.876
12876;168926;33.24;011;04.14.31.876
12872;168924;33.24;012;04.14.31.876
12884;168924;33.24;013;04.14.31.876
12904;168919;33.24;014;04.14.31.876
12884;168921;33.24;015;04.14.31.876
12864;168923;33.24;016;04.14.31.887
12876;168917;33.24;017;04.14.31.887
12880;168917;33.24;018;04.14.31.887
12900;168922;33.24;019;04.14.31.887
12880;168922;33.24;020;04.14.31.887
12876;168916;33.24;021;04.14.31.887
12884;168912;33.24;022;04.14.31.887
12892;168918;33.24;023;04.14.31.887
12888;168916;33.24;024;04.14.31.887
12868;168917;33.20;025;04.14.31.963
12916;168928;33.20;026;04.14.31.963
12896;168911;33.20;027;04.14.31.963
12900;168927;33.20;028;04.14.31.963
12896;168919;33.20;029;04.14.31.974
12900;168925;33.20;030;04.14.31.974
12896;168923;33.20;031;04.14.31.974
12904;168927;33.20;032;04.14.31.974
12884;168927;33.20;033;04.14.31.974
12900;168929;33.20;034;04.14.31.974
12864;168936;33.20;035;04.14.31.974
12896;168929;33.20;036;04.14.31.974
12888;168941;33.20;037;04.14.31.974
12880;168929;33.20;038;04.14.31.974
12856;168938;33.20;039;04.14.31.974
12904;168942;33.20;040;04.14.31.974
12868;168931;33.20;041;04.14.31.974
12876;168937;33.20;042;04.14.31.985
12888;168933;33.20;043;04.14.31.985
12888;168939;33.20;044;04.14.31.985
12876;168939;33.20;045;04.14.31.985
12900;168936;33.20;046;04.14.31.985
12868;168943;33.20;047;04.14.31.985
12892;168939;33.20;048;04.14.31.985
12904;168936;33.20;049;04.14.31.985
12904;168929;33.20;050;04.14.32.105
12912;168940;33.20;051;04.14.32.105
12888;168936;33.20;052;04.14.32.105
12880;168943;33.20;053;04.14.32.105
12876;168942;33.20;054;04.14.32.105
12880;168939;33.20;055;04.14.32.105
12888;168933;33.20;056;04.14.32.105
12892;168938;33.20;057;04.14.32.105
12892;168937;33.20;058;04.14.32.105
12880;168937;33.20;059;04.14.32.105
12880;168945;33.20;060;04.14.32.105
12896;168942;33.20;061;04.14.32.105
12876;168939;33.20;062;04.14.32.116
12892;168934;33.20;063;04.14.32.116
12876;168936;33.20;064;04.14.32.116
12912;168935;33.20;065;04.14.32.116
12896;168945;33.20;066;04.14.32.116
12844;168941;33.20;067;04.14.32.116
12876;168949;33.20;068;04.14.32.116
12908;168942;33.20;069;04.14.32.116
12896;168949;33.20;070;04.14.32.116
12916;168936;33.20;071;04.14.32.116
12880;168945;33.20;072;04.14.32.116
12884;168946;33.20;073;04.14.32.116
12908;168949;33.20;074;04.14.32.116
12884;168945;33.24;075;04.14.32.215
12888;168955;33.24;076;04.14.32.215
12884;168954;33.24;077;04.14.32.215
12892;168950;33.24;078;04.14.32.215
12884;168956;33.24;079;04.14.32.215
12908;168953;33.24;080;04.14.32.215
12892;168961;33.24;081;04.14.32.215
12860;168959;33.24;082;04.14.32.215
12888;168954;33.24;083;04.14.32.226
12884;168956;33.24;084;04.14.32.226
12880;168957;33.24;085;04.14.32.226
12884;168962;33.24;086;04.14.32.226
12876;168956;33.24;087;04.14.32.226
12876;168957;33.24;088;04.14.32.226
12884;168962;33.24;089;04.14.32.226
12876;168965;33.24;090;04.14.32.226
12864;168968;33.24;091;04.14.32.226
12872;168977;33.24;092;04.14.32.237
12884;168975;33.24;093;04.14.32.237
12892;168972;33.24;094;04.14.32.237
12872;168980;33.24;095;04.14.32.237
12880;168973;33.24;096;04.14.32.237
12892;168980;33.24;097;04.14.32.237
12872;168987;33.24;098;04.14.32.237
12884;168982;33.24;099;04.14.32.237
12888;168986;33.24;100;04.14.32.336
12904;168988;33.24;101;04.14.32.336
12896;168990;33.24;102;04.14.32.336
12912;168989;33.24;103;04.14.32.336
12868;168987;33.24;104;04.14.32.336
12860;168991;33.24;105;04.14.32.336
12900;168992;33.24;106;04.14.32.347
12888;168991;33.24;107;04.14.32.347
12888;168994;33.24;108;04.14.32.347
12892;168991;33.24;109;04.14.32.347
12868;168994;33.24;110;04.14.32.347
12868;168997;33.24;111;04.14.32.347
12888;169001;33.24;112;04.14.32.347
12876;168994;33.24;113;04.14.32.347
12896;168999;33.24;114;04.14.32.347
12908;168999;33.24;115;04.14.32.347
12884;168999;33.24;116;04.14.32.347
12884;169002;33.24;117;04.14.32.369
12884;169011;33.24;118;04.14.32.369
12904;169013;33.24;119;04.14.32.369
12892;169012;33.24;120;04.14.32.369
12892;169006;33.24;121;04.14.32.369
12904;169004;33.24;122;04.14.32.369
12916;169007;33.24;123;04.14.32.380
12912;169002;33.24;124;04.14.32.380
12908;169005;33.24;125;04.14.32.468
12880;168999;33.24;126;04.14.32.468
12896;169003;33.24;127;04.14.32.479
12868;168998;33.24;128;04.14.32.479
12896;168991;33.24;129;04.14.32.479
12884;168991;33.24;130;04.14.32.479
12888;168991;33.24;131;04.14.32.479
12900;168989;33.24;132;04.14.32.479
12888;168983;33.24;133;04.14.32.479
12880;168981;33.24;134;04.14.32.479
12880;168976;33.24;135;04.14.32.479
12880;168978;33.24;136;04.14.32.479
12896;168973;33.24;137;04.14.32.479
12876;168972;33.24;138;04.14.32.479
12904;168974;33.24;139;04.14.32.479
12880;168966;33.24;140;04.14.32.489
12876;168965;33.24;141;04.14.32.489
12900;168966;33.24;142;04.14.32.489
12864;168966;33.24;143;04.14.32.489
12892;168959;33.24;144;04.14.32.489
12896;168949;33.24;145;04.14.32.489
12880;168952;33.24;146;04.14.32.489
12900;168950;33.24;147;04.14.32.489
12928;168948;33.24;148;04.14.32.489
12896;168944;33.24;149;04.14.32.489
12868;168940;33.24;150;04.14.32.599
12888;168936;33.24;151;04.14.32.599
12892;168937;33.24;152;04.14.32.599
12872;168945;33.24;153;04.14.32.599
12860;168945;33.24;154;04.14.32.599
12888;168938;33.24;155;04.14.32.599
12876;168938;33.24;156;04.14.32.599
12892;168931;33.24;157;04.14.32.599
12872;168932;33.24;158;04.14.32.599
12912;168940;33.24;159;04.14.32.599
12872;168935;33.24;160;04.14.32.599
12884;168928;33.24;161;04.14.32.599
12884;168940;33.24;162;04.14.32.610
12876;168936;33.24;163;04.14.32.610
12884;168945;33.24;164;04.14.32.610
12912;168944;33.24;165;04.14.32.610
12860;168945;33.24;166;04.14.32.610
12888;168948;33.24;167;04.14.32.610
12856;168949;33.24;168;04.14.32.610
12872;168957;33.24;169;04.14.32.610
12876;168937;33.24;170;04.14.32.610
12896;168945;33.24;171;04.14.32.610
12884;168947;33.24;172;04.14.32.610
12880;168945;33.24;173;04.14.32.610
12912;168958;33.24;174;04.14.32.621
12892;168958;33.20;175;04.14.32.731
12888;168948;33.20;176;04.14.32.731
12876;168945;33.20;177;04.14.32.731
12884;168952;33.20;178;04.14.32.731
12896;168958;33.20;179;04.14.32.731
12868;168950;33.20;180;04.14.32.731
12896;168952;33.20;181;04.14.32.731
12912;168951;33.20;182;04.14.32.731
12884;168954;33.20;183;04.14.32.742
12856;168956;33.20;184;04.14.32.742
12884;168954;33.20;185;04.14.32.742
12872;168953;33.20;186;04.14.32.742
12888;168955;33.20;187;04.14.32.742
12896;168947;33.20;188;04.14.32.742
12876;168942;33.20;189;04.14.32.742
12884;168951;33.20;190;04.14.32.742
12892;168953;33.20;191;04.14.32.742
12876;168940;33.20;192;04.14.32.742
12868;168939;33.20;193;04.14.32.742
12904;168942;33.20;194;04.14.32.742
12896;168941;33.20;195;04.14.32.742
12860;168942;33.20;196;04.14.32.753
12896;168943;33.20;197;04.14.32.753
12904;168946;33.20;198;04.14.32.753
12928;168941;33.20;199;04.14.32.753
12892;168948;33.20;200;04.14.32.873
12884;168942;33.20;201;04.14.32.873
12900;168936;33.20;202;04.14.32.873
12892;168936;33.20;203;04.14.32.873
12868;168929;33.20;204;04.14.32.884
12900;168931;33.20;205;04.14.32.884
12872;168935;33.20;206;04.14.32.884
12928;168938;33.20;207;04.14.32.884
12900;168943;33.20;208;04.14.32.884
12884;168932;33.20;209;04.14.32.884
12896;168942;33.20;210;04.14.32.884
12884;168930;33.20;211;04.14.32.884
12884;168936;33.20;212;04.14.32.884
12900;168934;33.20;213;04.14.32.884
12860;168922;33.20;214;04.14.32.884
12884;168932;33.20;215;04.14.32.884
12860;168923;33.20;216;04.14.32.884
12892;168935;33.20;217;04.14.32.884
12888;168928;33.20;218;04.14.32.895
12884;168931;33.20;219;04.14.32.895
12876;168928;33.20;220;04.14.32.895
12888;168926;33.20;221;04.14.32.895
12880;168928;33.20;222;04.14.32.895
12920;168929;33.20;223;04.14.32.895
12900;168939;33.20;224;04.14.32.895
12896;168944;33.20;225;04.14.32.972
12900;168935;33.20;226;04.14.32.972
12888;168938;33.20;227;04.14.32.972
12900;168947;33.20;228;04.14.32.972
12860;168943;33.20;229;04.14.32.972
12900;168945;33.20;230;04.14.32.972
12896;168944;33.20;231;04.14.32.972
12876;168947;33.20;232;04.14.32.972
12892;168946;33.20;233;04.14.32.972
12908;168955;33.20;234;04.14.32.983
12896;168954;33.20;235;04.14.32.983
12880;168952;33.20;236;04.14.32.983
12924;168949;33.20;237;04.14.32.983
12888;168953;33.20;238;04.14.32.983
12872;168956;33.20;239;04.14.32.983
12888;168955;33.20;240;04.14.32.983
12872;168957;33.20;241;04.14.32.983
12884;168957;33.20;242;04.14.33.005
12876;168955;33.20;243;04.14.33.005
12876;168951;33.20;244;04.14.33.005
12892;168954;33.20;245;04.14.33.005
12904;168958;33.20;246;04.14.33.005
12904;168949;33.20;247;04.14.33.005
12892;168960;33.20;248;04.14.33.005
12892;168958;33.20;249;04.14.33.005
12872;168953;33.20;250;04.14.33.093
12860;168955;33.20;251;04.14.33.093
12896;168947;33.20;252;04.14.33.093
12896;168954;33.20;253;04.14.33.093
12884;168944;33.20;254;04.14.33.093
12876;168937;33.20;255;04.14.33.093
12900;168934;33.20;256;04.14.33.093
12896;168931;33.20;257;04.14.33.093
12904;168924;33.20;258;04.14.33.104
12868;168927;33.20;259;04.14.33.104
12912;168921;33.20;260;04.14.33.104
12868;168925;33.20;261;04.14.33.104
12892;168920;33.20;262;04.14.33.104
12896;168913;33.20;263;04.14.33.104
12888;168911;33.20;264;04.14.33.104
12884;168904;33.20;265;04.14.33.104
12872;168895;33.20;266;04.14.33.104
12876;168906;33.20;267;04.14.33.104
12868;168894;33.20;268;04.14.33.115
12900;168888;33.20;269;04.14.33.115
12884;168884;33.20;270;04.14.33.115
12864;168882;33.20;271;04.14.33.115
12880;168879;33.20;272;04.14.33.115
12856;168878;33.20;273;04.14.33.115
12904;168874;33.20;274;04.14.33.115
12872;168868;33.24;275;04.14.33.224
12884;168875;33.24;276;04.14.33.224
12884;168869;33.24;277;04.14.33.224
12888;168868;33.24;278;04.14.33.224
12892;168869;33.24;279;04.14.33.224
12888;168864;33.24;280;04.14.33.224
12904;168869;33.24;281;04.14.33.235
12860;168868;33.24;282;04.14.33.235
12880;168867;33.24;283;04.14.33.235
12904;168861;33.24;284;04.14.33.235
12912;168868;33.24;285;04.14.33.235
12908;168874;33.24;286;04.14.33.235
12884;168871;33.24;287;04.14.33.235
12888;168871;33.24;288;04.14.33.235
12908;168867;33.24;289;04.14.33.235
12884;168875;33.24;290;04.14.33.235
12904;168878;33.24;291;04.14.33.235
12908;168866;33.24;292;04.14.33.235
12892;168866;33.24;293;04.14.33.246
12888;168865;33.24;294;04.14.33.246
12896;168869;33.24;295;04.14.33.246
12908;168871;33.24;296;04.14.33.246
12900;168865;33.24;297;04.14.33.246
12880;168876;33.24;298;04.14.33.246
12892;168874;33.24;299;04.14.33.246
12864;168875;33.24;300;04.14.33.334
12896;168873;33.24;301;04.14.33.334
12860;168869;33.24;302;04.14.33.345
12868;168871;33.24;303;04.14.33.345
12868;168883;33.24;304;04.14.33.345
12860;168871;33.24;305;04.14.33.345
12892;168870;33.24;306;04.14.33.345
12876;168871;33.24;307;04.14.33.345
12900;168872;33.24;308;04.14.33.356
12892;168862;33.24;309;04.14.33.356
12904;168863;33.24;310;04.14.33.367
12900;168873;33.24;311;04.14.33.367
12884;168870;33.24;312;04.14.33.367
12928;168866;33.24;313;04.14.33.367
12928;168866;33.24;314;04.14.33.367
12900;168863;33.24;315;04.14.33.367
12892;168864;33.24;316;04.14.33.367
12864;168865;33.24;317;04.14.33.367
12892;168863;33.24;318;04.14.33.367
12880;168869;33.24;319;04.14.33.367
12884;168873;33.24;320;04.14.33.367
12896;168871;33.24;321;04.14.33.367
12872;168871;33.24;322;04.14.33.367
12900;168873;33.24;323;04.14.33.378
12892;168868;33.24;324;04.14.33.378
12876;168873;33.24;325;04.14.33.476
12880;168866;33.24;326;04.14.33.476
12896;168873;33.24;327;04.14.33.476
12868;168874;33.24;328;04.14.33.476
12944;168866;33.24;329;04.14.33.476
12884;168870;33.24;330;04.14.33.476
12868;168864;33.24;331;04.14.33.476
12884;168869;33.24;332;04.14.33.476
12880;168873;33.24;333;04.14.33.498
12868;168873;33.24;334;04.14.33.498
12892;168879;33.24;335;04.14.33.498
12888;168870;33.24;336;04.14.33.498
12928;168873;33.24;337;04.14.33.498
12916;168874;33.24;338;04.14.33.498
12916;168879;33.24;339;04.14.33.498
12888;168873;33.24;340;04.14.33.498
12880;168886;33.24;341;04.14.33.498
12888;168883;33.24;342;04.14.33.498
12900;168883;33.24;343;04.14.33.498
12876;168890;33.24;344;04.14.33.498
12892;168895;33.24;345;04.14.33.509
12904;168895;33.24;346;04.14.33.509
12888;168890;33.24;347;04.14.33.509
12868;168894;33.24;348;04.14.33.509
12896;168887;33.24;349;04.14.33.509
12884;168892;33.24;350;04.14.33.586
12896;168899;33.24;351;04.14.33.586
12880;168897;33.24;352;04.14.33.586
12900;168899;33.24;353;04.14.33.586
12904;168900;33.24;354;04.14.33.586
12892;168893;33.24;355;04.14.33.586
12884;168896;33.24;356;04.14.33.586
12884;168899;33.24;357;04.14.33.597
12892;168896;33.24;358;04.14.33.597
12896;168905;33.24;359;04.14.33.597
12900;168894;33.24;360;04.14.33.597
12860;168906;33.24;361;04.14.33.597
12876;168901;33.24;362;04.14.33.597
12880;168901;33.24;363;04.14.33.597
12892;168903;33.24;364;04.14.33.597
12912;168908;33.24;365;04.14.33.597
12880;168908;33.24;366;04.14.33.597
12860;168907;33.24;367;04.14.33.597
12904;168907;33.24;368;04.14.33.597
12880;168908;33.24;369;04.14.33.597
12908;168915;33.24;370;04.14.33.608
12888;168913;33.24;371;04.14.33.608
12892;168920;33.24;372;04.14.33.608
12912;168913;33.24;373;04.14.33.608
12900;168909;33.24;374;04.14.33.608
12868;168906;33.24;375;04.14.33.717
12912;168908;33.24;376;04.14.33.717
12916;168910;33.24;377;04.14.33.717
12908;168915;33.24;378;04.14.33.728
12892;168914;33.24;379;04.14.33.728
12880;168913;33.24;380;04.14.33.728
12860;168908;33.24;381;04.14.33.728
12936;168911;33.24;382;04.14.33.728
12884;168918;33.24;383;04.14.33.728
12900;168907;33.24;384;04.14.33.728
12892;168906;33.24;385;04.14.33.728
12880;168906;33.24;386;04.14.33.728
12896;168891;33.24;387;04.14.33.728
12884;168891;33.24;388;04.14.33.728
12896;168886;33.24;389;04.14.33.728
12916;168890;33.24;390;04.14.33.728
12892;168883;33.24;391;04.14.33.739
12872;168878;33.24;392;04.14.33.739
12892;168870;33.24;393;04.14.33.739
12892;168862;33.24;394;04.14.33.739
12896;168855;33.24;395;04.14.33.739
12900;168863;33.24;396;04.14.33.739
12888;168853;33.24;397;04.14.33.739
12896;168855;33.24;398;04.14.33.739
12904;168861;33.24;399;04.14.33.739
12900;168849;33.24;400;04.14.33.860
12904;168842;33.24;401;04.14.33.860
12872;168837;33.24;402;04.14.33.860
12860;168843;33.24;403;04.14.33.860
12876;168840;33.24;404;04.14.33.860
12904;168838;33.24;405;04.14.33.860
12912;168830;33.24;406;04.14.33.860
12872;168835;33.24;407;04.14.33.860
12896;168830;33.24;408;04.14.33.860
12884;168825;33.24;409;04.14.33.860
12880;168826;33.24;410;04.14.33.860
12900;168823;33.24;411;04.14.33.860
12888;168835;33.24;412;04.14.33.871
12876;168828;33.24;413;04.14.33.871
12904;168825;33.24;414;04.14.33.871
12896;168829;33.24;415;04.14.33.871
12880;168829;33.24;416;04.14.33.871
12896;168821;33.24;417;04.14.33.882
12900;168824;33.24;418;04.14.33.882
12896;168826;33.24;419;04.14.33.882
12884;168830;33.24;420;04.14.33.882
12876;168829;33.24;421;04.14.33.882
12912;168832;33.24;422;04.14.33.882
12896;168833;33.24;423;04.14.33.882
12916;168842;33.24;424;04.14.33.882
12892;168825;33.20;425;04.14.33.970
12900;168844;33.20;426;04.14.33.970
12904;168843;33.20;427;04.14.33.970
12880;168834;33.20;428;04.14.33.970
12892;168838;33.20;429;04.14.33.970
12892;168847;33.20;430;04.14.33.970
12896;168846;33.20;431;04.14.33.970
12876;168843;33.20;432;04.14.33.970
12884;168843;33.20;433;04.14.33.981
12896;168846;33.20;434;04.14.33.981
12908;168844;33.20;435;04.14.33.981
12876;168842;33.20;436;04.14.33.981
12900;168848;33.20;437;04.14.33.981
12888;168844;33.20;438;04.14.33.981
12872;168837;33.20;439;04.14.33.981
12896;168846;33.20;440;04.14.33.981
12884;168840;33.20;441;04.14.33.981
12912;168839;33.20;442;04.14.33.992
12892;168847;33.20;443;04.14.33.992
12912;168838;33.20;444;04.14.33.992
12892;168833;33.20;445;04.14.33.992
12912;168850;33.20;446;04.14.33.992
12896;168832;33.20;447;04.14.33.992
12872;168840;33.20;448;04.14.33.992
12920;168841;33.20;449;04.14.33.992
12900;168839;33.20;450;04.14.34.090
12888;168842;33.20;451;04.14.34.090
12896;168841;33.20;452;04.14.34.090
12860;168837;33.20;453;04.14.34.090
12896;168848;33.20;454;04.14.34.090
12888;168843;33.20;455;04.14.34.090
12904;168848;33.20;456;04.14.34.101
12884;168840;33.20;457;04.14.34.101
12880;168841;33.20;458;04.14.34.101
12896;168849;33.20;459;04.14.34.101
12888;168839;33.20;460;04.14.34.101
12916;168846;33.20;461;04.14.34.101
12880;168848;33.20;462;04.14.34.101
12888;168856;33.20;463;04.14.34.101
12896;168853;33.20;464;04.14.34.101
12884;168851;33.20;465;04.14.34.101
12904;168840;33.20;466;04.14.34.101
12876;168853;33.20;467;04.14.34.101
12892;168846;33.20;468;04.14.34.112
12896;168863;33.20;469;04.14.34.112
12872;168856;33.20;470;04.14.34.112
12872;168858;33.20;471;04.14.34.112
12884;168851;33.20;472;04.14.34.112
12880;168855;33.20;473;04.14.34.112
12892;168864;33.20;474;04.14.34.112
12896;168868;33.24;475;04.14.34.211
12896;168865;33.24;476;04.14.34.211
12884;168873;33.24;477;04.14.34.222
12880;168867;33.24;478;04.14.34.222
12860;168871;33.24;479;04.14.34.222
12912;168866;33.24;480;04.14.34.222
12912;168866;33.24;481;04.14.34.222
12880;168871;33.24;482;04.14.34.222
12904;168872;33.24;483;04.14.34.222
12880;168873;33.24;484;04.14.34.222
12876;168871;33.24;485;04.14.34.222
12884;168873;33.24;486;04.14.34.222
12896;168872;33.24;487;04.14.34.222
12872;168877;33.24;488;04.14.34.222
12876;168864;33.24;489;04.14.34.222
12888;168870;33.24;490;04.14.34.233
12868;168879;33.24;491;04.14.34.233
12900;168875;33.24;492;04.14.34.233
12896;168880;33.24;493;04.14.34.233
12880;168881;33.24;494;04.14.34.244
12880;168875;33.24;495;04.14.34.244
12904;168876;33.24;496;04.14.34.244
12884;168883;33.24;497;04.14.34.244
12892;168879;33.24;498;04.14.34.244
12916;168883;33.24;499;04.14.34.244
12860;168880;33.24;500;04.14.34.354
12908;168883;33.24;501;04.14.34.354
12880;168896;33.24;502;04.14.34.354
12876;168906;33.24;503;04.14.34.354
12904;168899;33.24;504;04.14.34.354
12876;168897;33.24;505;04.14.34.354
12884;168900;33.24;506;04.14.34.354
12876;168910;33.24;507;04.14.34.354
12884;168895;33.24;508;04.14.34.354
12896;168902;33.24;509;04.14.34.354
12896;168908;33.24;510;04.14.34.354
12912;168899;33.24;511;04.14.34.365
12872;168909;33.24;512;04.14.34.365
12916;168904;33.24;513;04.14.34.365
12900;168914;33.24;514;04.14.34.365
12916;168902;33.24;515;04.14.34.365
12900;168906;33.24;516;04.14.34.365
12892;168910;33.24;517;04.14.34.365
12904;168914;33.24;518;04.14.34.365
12896;168903;33.24;519;04.14.34.365
12896;168910;33.24;520;04.14.34.365
12888;168901;33.24;521;04.14.34.365
12884;168904;33.24;522;04.14.34.365
12884;168910;33.24;523;04.14.34.365
12908;168913;33.24;524;04.14.34.376
12900;168906;33.24;525;04.14.34.463
12892;168906;33.24;526;04.14.34.463
12888;168897;33.24;527;04.14.34.463
12876;168892;33.24;528;04.14.34.463
12896;168887;33.24;529;04.14.34.463
12892;168898;33.24;530;04.14.34.463
12860;168884;33.24;531;04.14.34.463
12892;168882;33.24;532;04.14.34.463
12876;168880;33.24;533;04.14.34.474
12888;168882;33.24;534;04.14.34.474
12896;168874;33.24;535;04.14.34.474
12892;168858;33.24;536;04.14.34.474
12900;168862;33.24;537;04.14.34.474
12900;168862;33.24;538;04.14.34.474
12868;168854;33.24;539;04.14.34.485
12928;168860;33.24;540;04.14.34.485
12928;168858;33.24;541;04.14.34.485
12908;168854;33.24;542;04.14.34.485
12896;168845;33.24;543;04.14.34.485
12888;168848;33.24;544;04.14.34.485
12900;168840;33.24;545;04.14.34.485
12928;168841;33.24;546;04.14.34.485
12908;168840;33.24;547;04.14.34.485
12892;168842;33.24;548;04.14.34.485
12916;168855;33.24;549;04.14.34.496
12888;168845;33.24;550;04.14.34.595
12892;168842;33.24;551;04.14.34.595
12880;168841;33.24;552;04.14.34.595
12900;168850;33.24;553;04.14.34.595
12892;168833;33.24;554;04.14.34.606
12880;168846;33.24;555;04.14.34.606
12888;168842;33.24;556;04.14.34.606
12900;168845;33.24;557;04.14.34.606
12864;168838;33.24;558;04.14.34.617
12840;168842;33.24;559;04.14.34.617
12888;168838;33.24;560;04.14.34.617
12888;168841;33.24;561;04.14.34.628
12896;168842;33.24;562;04.14.34.628
12928;168845;33.24;563;04.14.34.628
12888;168842;33.24;564;04.14.34.628
12880;168842;33.24;565;04.14.34.628
12888;168842;33.24;566;04.14.34.628
12912;168843;33.24;567;04.14.34.628
12892;168847;33.24;568;04.14.34.628
12896;168847;33.24;569;04.14.34.628
12904;168855;33.24;570;04.14.34.628
12908;168848;33.24;571;04.14.34.628
12896;168849;33.24;572;04.14.34.628
12912;168849;33.24;573;04.14.34.628
12944;168849;33.24;574;04.14.34.628
12852;168852;33.24;575;04.14.34.705
12896;168850;33.24;576;04.14.34.716
12900;168852;33.24;577;04.14.34.716
12872;168859;33.24;578;04.14.34.716
12880;168849;33.24;579;04.14.34.716
12912;168855;33.24;580;04.14.34.716
12900;168850;33.24;581;04.14.34.716
12880;168847;33.24;582;04.14.34.716
12868;168856;33.24;583;04.14.34.716
12884;168858;33.24;584;04.14.34.716
12896;168857;33.24;585;04.14.34.716
12908;168852;33.24;586;04.14.34.716
12872;168856;33.24;587;04.14.34.716
12928;168853;33.24;588;04.14.34.727
12892;168855;33.24;589;04.14.34.727
12892;168848;33.24;590;04.14.34.727
12900;168849;33.24;591;04.14.34.727
12876;168852;33.24;592;04.14.34.727
12904;168849;33.24;593;04.14.34.727
12876;168858;33.24;594;04.14.34.727
12880;168864;33.24;595;04.14.34.727
12900;168852;33.24;596;04.14.34.727
12876;168863;33.24;597;04.14.34.727
12896;168862;33.24;598;04.14.34.727
12928;168860;33.24;599;04.14.34.727
12880;168861;33.24;600;04.14.34.847
12888;168870;33.24;601;04.14.34.847
12900;168859;33.24;602;04.14.34.847
12908;168864;33.24;603;04.14.34.847
12896;168864;33.24;604;04.14.34.847
12904;168867;33.24;605;04.14.34.847
12872;168869;33.24;606;04.14.34.847
12860;168865;33.24;607;04.14.34.847
12896;168871;33.24;608;04.14.34.847
12904;168865;33.24;609;04.14.34.858
12892;168863;33.24;610;04.14.34.858
12888;168863;33.24;611;04.14.34.858
12880;168874;33.24;612;04.14.34.858
12880;168864;33.24;613;04.14.34.858
12884;168874;33.24;614;04.14.34.858
12860;168873;33.24;615;04.14.34.858
12888;168869;33.24;616;04.14.34.858
12876;168870;33.24;617;04.14.34.869
12900;168871;33.24;618;04.14.34.869
12888;168873;33.24;619;04.14.34.869
12892;168866;33.24;620;04.14.34.869
12884;168877;33.24;621;04.14.34.869
12880;168875;33.24;622;04.14.34.869
12916;168876;33.24;623;04.14.34.869
12916;168880;33.24;624;04.14.34.869
12916;168883;33.20;625;04.14.34.979
12884;168875;33.20;626;04.14.34.979
12876;168878;33.20;627;04.14.34.979
12860;168880;33.20;628;04.14.34.979
12904;168880;33.20;629;04.14.34.979
12880;168887;33.20;630;04.14.34.990
12888;168886;33.20;631;04.14.34.990
12888;168887;33.20;632;04.14.34.990
12884;168885;33.20;633;04.14.34.990
12856;168886;33.20;634;04.14.34.990
12892;168889;33.20;635;04.14.34.990
12884;168890;33.20;636;04.14.34.990
12904;168895;33.20;637;04.14.34.990
12864;168899;33.20;638;04.14.34.990
12884;168895;33.20;639;04.14.34.990
12876;168894;33.20;640;04.14.34.990
12892;168909;33.20;641;04.14.34.990
12928;168901;33.20;642;04.14.34.990
12888;168904;33.20;643;04.14.35.001
12912;168905;33.20;644;04.14.35.001
12888;168911;33.20;645;04.14.35.001
12888;168900;33.20;646;04.14.35.001
12896;168910;33.20;647;04.14.35.001
12912;168907;33.20;648;04.14.35.001
12892;168905;33.20;649;04.14.35.001
12892;168906;33.20;650;04.14.35.110
12856;168915;33.20;651;04.14.35.121
12884;168910;33.20;652;04.14.35.121
12900;168905;33.20;653;04.14.35.121
12884;168896;33.20;654;04.14.35.121
12880;168898;33.20;655;04.14.35.121
12880;168910;33.20;656;04.14.35.121
12904;168912;33.20;657;04.14.35.121
12912;168905;33.20;658;04.14.35.121
12884;168913;33.20;659;04.14.35.121
12908;168925;33.20;660;04.14.35.121
12880;168915;33.20;661;04.14.35.121
12864;168919;33.20;662;04.14.35.121
12908;168916;33.20;663;04.14.35.121
12864;168920;33.20;664;04.14.35.132
12900;168919;33.20;665;04.14.35.132
12896;168914;33.20;666;04.14.35.132
12908;168912;33.20;667;04.14.35.132
12876;168918;33.20;668;04.14.35.132
12872;168925;33.20;669;04.14.35.132
12928;168930;33.20;670;04.14.35.132
12892;168926;33.20;671;04.14.35.132
12900;168932;33.20;672;04.14.35.132
12896;168931;33.20;673;04.14.35.132
12916;168937;33.20;674;04.14.35.132
12920;168938;33.24;675;04.14.35.220
12892;168927;33.24;676;04.14.35.220
12860;168925;33.24;677;04.14.35.220
12860;168919;33.24;678;04.14.35.220
12872;168923;33.24;679;04.14.35.220
12888;168912;33.24;680;04.14.35.220
12884;168916;33.24;681;04.14.35.220
12892;168918;33.24;682;04.14.35.220
12876;168911;33.24;683;04.14.35.220
12880;168904;33.24;684;04.14.35.220
12892;168909;33.24;685;04.14.35.220
12876;168904;33.24;686;04.14.35.231
12896;168895;33.24;687;04.14.35.231
12884;168892;33.24;688;04.14.35.231
12892;168889;33.24;689;04.14.35.231
12896;168884;33.24;690;04.14.35.231
12888;168886;33.24;691;04.14.35.231
12912;168875;33.24;692;04.14.35.231
12888;168876;33.24;693;04.14.35.231
12892;168871;33.24;694;04.14.35.231
12884;168869;33.24;695;04.14.35.231
12904;168864;33.24;696;04.14.35.231
12888;168864;33.24;697;04.14.35.231
12876;168865;33.24;698;04.14.35.231
12904;168863;33.24;699;04.14.35.242
12880;168860;33.24;700;04.14.35.341
12860;168861;33.24;701;04.14.35.341
12860;168858;33.24;702;04.14.35.341
12912;168860;33.24;703;04.14.35.341
12888;168854;33.24;704;04.14.35.341
12892;168854;33.24;705;04.14.35.341
12896;168858;33.24;706;04.14.35.341
12904;168845;33.24;707;04.14.35.341
12864;168856;33.24;708;04.14.35.352
12884;168854;33.24;709;04.14.35.352
12884;168854;33.24;710;04.14.35.352
12876;168847;33.24;711;04.14.35.352
12896;168855;33.24;712;04.14.35.352
12900;168862;33.24;713;04.14.35.352
12884;168851;33.24;714;04.14.35.352
12904;168841;33.24;715;04.14.35.352
12876;168856;33.24;716;04.14.35.352
12912;168842;33.24;717;04.14.35.352
12900;168843;33.24;718;04.14.35.352
12880;168845;33.24;719;04.14.35.352
12892;168845;33.24;720;04.14.35.352
12888;168849;33.24;721;04.14.35.363
12896;168850;33.24;722;04.14.35.363
12896;168851;33.24;723;04.14.35.363
12900;168857;33.24;724;04.14.35.363
12884;168856;33.24;725;04.14.35.472
12908;168857;33.24;726;04.14.35.472
12916;168851;33.24;727;04.14.35.472
12896;168864;33.24;728;04.14.35.483
12876;168854;33.24;729;04.14.35.483
12880;168846;33.24;730;04.14.35.483
12892;168849;33.24;731;04.14.35.483
12928;168855;33.24;732;04.14.35.483
12876;168857;33.24;733;04.14.35.483
12896;168852;33.24;734;04.14.35.483
12908;168859;33.24;735;04.14.35.483
12892;168854;33.24;736;04.14.35.483
12900;168849;33.24;737;04.14.35.483
12876;168848;33.24;738;04.14.35.483
12880;168852;33.24;739;04.14.35.483
12900;168847;33.24;740;04.14.35.483
12884;168855;33.24;741;04.14.35.494
12860;168851;33.24;742;04.14.35.494
12864;168854;33.24;743;04.14.35.494
12884;168842;33.24;744;04.14.35.494
12868;168852;33.24;745;04.14.35.494
12900;168843;33.24;746;04.14.35.494
12900;168845;33.24;747;04.14.35.494
12884;168849;33.24;748;04.14.35.494
12896;168846;33.24;749;04.14.35.494
12896;168850;33.24;750;04.14.35.615
12876;168846;33.24;751;04.14.35.615
12868;168848;33.24;752;04.14.35.615
12892;168842;33.24;753;04.14.35.615
12864;168842;33.24;754;04.14.35.615
12888;168845;33.24;755;04.14.35.615
12896;168846;33.24;756;04.14.35.615
12912;168843;33.24;757;04.14.35.615
12900;168850;33.24;758;04.14.35.615
12884;168855;33.24;759;04.14.35.615
12892;168844;33.24;760;04.14.35.615
12900;168848;33.24;761;04.14.35.615
12896;168852;33.24;762;04.14.35.626
12896;168851;33.24;763;04.14.35.626
12916;168856;33.24;764;04.14.35.626
12900;168860;33.24;765;04.14.35.626
12916;168857;33.24;766;04.14.35.626
12888;168858;33.24;767;04.14.35.626
12876;168866;33.24;768;04.14.35.626
12904;168859;33.24;769;04.14.35.626
12872;168871;33.24;770;04.14.35.626
12896;168868;33.24;771;04.14.35.626
12912;168867;33.24;772;04.14.35.626
12888;168872;33.24;773;04.14.35.626
12904;168881;33.24;774;04.14.35.626
12892;168877;33.24;775;04.14.35.714
12860;168880;33.24;776;04.14.35.714
12904;168878;33.24;777;04.14.35.714
12876;168879;33.24;778;04.14.35.714
12876;168883;33.24;779;04.14.35.714
12872;168889;33.24;780;04.14.35.714
12888;168885;33.24;781;04.14.35.714
12880;168885;33.24;782;04.14.35.714
12872;168893;33.24;783;04.14.35.714
12884;168895;33.24;784;04.14.35.714
12876;168894;33.24;785;04.14.35.725
12900;168891;33.24;786;04.14.35.725
12880;168905;33.24;787;04.14.35.725
12880;168904;33.24;788;04.14.35.725
12900;168909;33.24;789;04.14.35.725
12904;168912;33.24;790;04.14.35.725
12900;168898;33.24;791;04.14.35.725
12860;168910;33.24;792;04.14.35.725
12884;168910;33.24;793;04.14.35.725
12868;168906;33.24;794;04.14.35.725
12856;168907;33.24;795;04.14.35.725
12888;168906;33.24;796;04.14.35.725
12876;168905;33.24;797;04.14.35.736
12892;168902;33.24;798;04.14.35.736
12904;168906;33.24;799;04.14.35.736
12872;168915;33.24;800;04.14.35.834
12892;168915;33.24;801;04.14.35.834
12884;168908;33.24;802;04.14.35.834
12884;168909;33.24;803;04.14.35.834
12904;168913;33.24;804;04.14.35.834
12880;168910;33.24;805;04.14.35.834
12884;168911;33.24;806;04.14.35.845
12912;168908;33.24;807;04.14.35.845
12904;168905;33.24;808;04.14.35.845
12904;168907;33.24;809;04.14.35.845
12896;168907;33.24;810;04.14.35.845
12888;168913;33.24;811;04.14.35.845
12928;168908;33.24;812;04.14.35.845
12928;168911;33.24;813;04.14.35.845
12884;168909;33.24;814;04.14.35.845
12884;168910;33.24;815;04.14.35.845
12908;168914;33.24;816;04.14.35.845
12892;168911;33.24;817;04.14.35.845
12896;168914;33.24;818;04.14.35.856
12888;168917;33.24;819;04.14.35.856
12908;168919;33.24;820;04.14.35.856
12888;168925;33.24;821;04.14.35.856
12892;168922;33.24;822;04.14.35.856
12888;168923;33.24;823;04.14.35.856
12888;168927;33.24;824;04.14.35.856
12892;168926;33.24;825;04.14.35.977
12868;168931;33.24;826;04.14.35.988
12884;168929;33.24;827;04.14.35.988
12896;168932;33.24;828;04.14.35.988
12888;168935;33.24;829;04.14.35.988
12900;168923;33.24;830;04.14.35.988
12876;168932;33.24;831;04.14.35.988
12900;168940;33.24;832;04.14.35.988
12896;168931;33.24;833;04.14.35.988
12884;168938;33.24;834;04.14.35.988
12868;168938;33.24;835;04.14.35.988
12876;168938;33.24;836;04.14.35.988
12864;168943;33.24;837;04.14.35.988
12872;168936;33.24;838;04.14.35.988
12888;168939;33.24;839;04.14.36.000
12896;168933;33.24;840;04.14.36.000
12904;168945;33.24;841;04.14.36.000
12896;168939;33.24;842;04.14.36.000
12876;168935;33.24;843;04.14.36.000
12864;168936;33.24;844;04.14.36.000
12904;168929;33.24;845;04.14.36.000
12876;168931;33.24;846;04.14.36.000
12880;168931;33.24;847;04.14.36.000
12888;168929;33.24;848;04.14.36.000
12896;168917;33.24;849;04.14.36.000
12888;168916;33.24;850;04.14.36.099
12880;168918;33.24;851;04.14.36.099
12896;168912;33.24;852;04.14.36.099
12896;168901;33.24;853;04.14.36.099
12884;168903;33.24;854;04.14.36.099
12892;168897;33.24;855;04.14.36.099
12888;168891;33.24;856;04.14.36.099
12916;168891;33.24;857;04.14.36.099
12876;168896;33.24;858;04.14.36.099
12888;168889;33.24;859;04.14.36.099
12876;168883;33.24;860;04.14.36.110
12904;168882;33.24;861;04.14.36.110
12892;168885;33.24;862;04.14.36.110
12904;168880;33.24;863;04.14.36.110
12876;168869;33.24;864;04.14.36.110
12904;168875;33.24;865;04.14.36.110
12896;168871;33.24;866;04.14.36.110
12884;168866;33.24;867;04.14.36.121
12876;168870;33.24;868;04.14.36.121
12908;168867;33.24;869;04.14.36.121
12880;168867;33.24;870;04.14.36.121
12892;168868;33.24;871;04.14.36.121
12868;168868;33.24;872;04.14.36.121
12912;168869;33.24;873;04.14.36.121
12888;168872;33.24;874;04.14.36.121
12860;168871;33.24;875;04.14.36.219
12884;168868;33.24;876;04.14.36.219
12896;168866;33.24;877;04.14.36.219
12896;168868;33.24;878;04.14.36.219
12888;168868;33.24;879;04.14.36.219
12868;168876;33.24;880;04.14.36.219
12888;168873;33.24;881;04.14.36.219
12880;168864;33.24;882;04.14.36.219
12896;168872;33.24;883;04.14.36.219
12900;168874;33.24;884;04.14.36.230
12876;168877;33.24;885;04.14.36.230
12844;168875;33.24;886;04.14.36.230
12904;168877;33.24;887;04.14.36.230
12896;168876;33.24;888;04.14.36.230
12900;168878;33.24;889;04.14.36.230
12856;168883;33.24;890;04.14.36.230
12860;168880;33.24;891;04.14.36.230
12904;168884;33.24;892;04.14.36.252
12888;168884;33.24;893;04.14.36.252
12888;168877;33.24;894;04.14.36.252
12880;168883;33.24;895;04.14.36.252
12876;168884;33.24;896;04.14.36.252
12884;168882;33.24;897;04.14.36.252
12888;168877;33.24;898;04.14.36.252
12936;168886;33.24;899;04.14.36.252
12880;168885;33.24;900;04.14.36.339
12900;168892;33.24;901;04.14.36.339
12872;168890;33.24;902;04.14.36.339
12896;168887;33.24;903;04.14.36.339
12872;168893;33.24;904;04.14.36.350
12900;168890;33.24;905;04.14.36.350
12904;168893;33.24;906;04.14.36.350
12900;168884;33.24;907;04.14.36.350
12896;168897;33.24;908;04.14.36.350
12880;168892;33.24;909;04.14.36.350
12864;168889;33.24;910;04.14.36.350
12892;168895;33.24;911;04.14.36.350
12884;168889;33.24;912;04.14.36.350
12872;168891;33.24;913;04.14.36.350
12876;168894;33.24;914;04.14.36.350
12888;168886;33.24;915;04.14.36.350
12888;168890;33.24;916;04.14.36.361
12904;168889;33.24;917;04.14.36.361
12904;168888;33.24;918;04.14.36.361
12876;168896;33.24;919;04.14.36.361
12872;168890;33.24;920;04.14.36.361
12880;168899;33.24;921;04.14.36.361
12860;168897;33.24;922;04.14.36.361
12876;168895;33.24;923;04.14.36.361
12908;168905;33.24;924;04.14.36.361
12872;168897;33.24;925;04.14.36.481
12876;168900;33.24;926;04.14.36.481
12880;168904;33.24;927;04.14.36.481
12892;168908;33.24;928;04.14.36.481
12848;168905;33.24;929;04.14.36.481
12860;168900;33.24;930;04.14.36.481
12880;168907;33.24;931;04.14.36.481
12892;168908;33.24;932;04.14.36.481
12920;168911;33.24;933;04.14.36.481
12928;168908;33.24;934;04.14.36.481
12884;168909;33.24;935;04.14.36.481
12864;168912;33.24;936;04.14.36.481
12880;168908;33.24;937;04.14.36.491
12896;168905;33.24;938;04.14.36.491
12900;168912;33.24;939;04.14.36.491
12900;168908;33.24;940;04.14.36.491
12896;168915;33.24;941;04.14.36.491
12912;168911;33.24;942;04.14.36.491
12892;168912;33.24;943;04.14.36.491
12884;168917;33.24;944;04.14.36.491
12888;168918;33.24;945;04.14.36.491
12892;168916;33.24;946;04.14.36.491
12876;168913;33.24;947;04.14.36.491
12900;168918;33.24;948;04.14.36.491
12912;168922;33.24;949;04.14.36.502
12904;168917;33.24;950;04.14.36.590
12876;168922;33.24;951;04.14.36.590
12900;168922;33.24;952;04.14.36.590
12892;168922;33.24;953;04.14.36.590
12896;168930;33.24;954;04.14.36.590
12880;168911;33.24;955;04.14.36.590
12896;168925;33.24;956;04.14.36.590
12904;168926;33.24;957;04.14.36.590
12892;168929;33.24;958;04.14.36.612
12896;168930;33.24;959;04.14.36.612
12880;168930;33.24;960;04.14.36.612
12908;168922;33.24;961;04.14.36.612
12864;168930;33.24;962;04.14.36.612
12900;168933;33.24;963;04.14.36.612
12876;168926;33.24;964;04.14.36.612
12896;168926;33.24;965;04.14.36.612
12876;168930;33.24;966;04.14.36.623
12900;168930;33.24;967;04.14.36.623
12900;168940;33.24;968;04.14.36.623
12876;168935;33.24;969;04.14.36.623
12872;168942;33.24;970;04.14.36.623
12900;168934;33.24;971;04.14.36.623
12904;168950;33.24;972;04.14.36.623
12876;168944;33.24;973;04.14.36.623
12928;168943;33.24;974;04.14.36.623
12876;168942;33.24;975;04.14.36.711
12900;168949;33.24;976;04.14.36.711
12892;168955;33.24;977;04.14.36.711
12872;168956;33.24;978;04.14.36.711
12904;168948;33.24;979;04.14.36.711
12904;168952;33.24;980;04.14.36.722
12916;168954;33.24;981;04.14.36.722
12884;168951;33.24;982;04.14.36.722
12872;168958;33.24;983;04.14.36.722
12896;168964;33.24;984;04.14.36.722
12884;168965;33.24;985;04.14.36.722
12896;168968;33.24;986;04.14.36.722
12896;168964;33.24;987;04.14.36.722
12908;168966;33.24;988;04.14.36.722
12880;168970;33.24;989;04.14.36.722
12892;168974;33.24;990;04.14.36.722
12868;168983;33.24;991;04.14.36.722
12892;168981;33.24;992;04.14.36.733
12912;168979;33.24;993;04.14.36.733
12884;168971;33.24;994;04.14.36.733
12896;168978;33.24;995;04.14.36.733
12884;168974;33.24;996;04.14.36.733
12892;168975;33.24;997;04.14.36.733
12888;168972;33.24;998;04.14.36.733
12892;168976;33.24;999;04.14.36.733
12856;168973;33.24;000;04.14.36.831
12912;168971;33.24;001;04.14.36.842
12892;168972;33.24;002;04.14.36.842
12904;168967;33.24;003;04.14.36.842
12880;168962;33.24;004;04.14.36.842
12896;168967;33.24;005;04.14.36.842
12884;168959;33.24;006;04.14.36.842
12904;168956;33.24;007;04.14.36.842
12912;168952;33.24;008;04.14.36.842
12872;168948;33.24;009;04.14.36.842
12884;168954;33.24;010;04.14.36.842
12896;168953;33.24;011;04.14.36.842
12880;168950;33.24;012;04.14.36.842
12892;168947;33.24;013;04.14.36.842
12896;168948;33.24;014;04.14.36.853
12896;168946;33.24;015;04.14.36.853
12900;168952;33.24;016;04.14.36.853
12880;168948;33.24;017;04.14.36.853
12860;168939;33.24;018;04.14.36.853
12884;168947;33.24;019;04.14.36.853
12884;168945;33.24;020;04.14.36.853
12880;168942;33.24;021;04.14.36.853
12892;168946;33.24;022;04.14.36.853
12892;168945;33.24;023;04.14.36.853
12900;168940;33.24;024;04.14.36.853
12884;168945;33.20;025;04.14.36.973
12896;168940;33.20;026;04.14.36.973
12884;168940;33.20;027;04.14.36.973
12856;168938;33.20;028;04.14.36.973
12884;168940;33.20;029;04.14.36.973
12900;168947;33.20;030;04.14.36.973
12896;168940;33.20;031;04.14.36.973
12892;168942;33.20;032;04.14.36.973
12896;168949;33.20;033;04.14.36.984
12900;168952;33.20;034;04.14.36.984
12888;168937;33.20;035;04.14.36.984
12876;168955;33.20;036;04.14.36.984
12928;168949;33.20;037;04.14.36.984
12876;168945;33.20;038;04.14.36.984
12880;168946;33.20;039;04.14.36.984
12888;168955;33.20;040;04.14.36.984
12860;168944;33.20;041;04.14.36.984
12892;168942;33.20;042;04.14.37.017
12876;168951;33.20;043;04.14.37.017
12904;168950;33.20;044;04.14.37.017
12896;168951;33.20;045;04.14.37.017
12880;168955;33.20;046;04.14.37.017
12892;168956;33.20;047;04.14.37.017
12928;168963;33.20;048;04.14.37.017
12892;168958;33.20;049;04.14.37.017
12896;168952;33.20;050;04.14.37.110
12872;168963;33.20;051;04.14.37.110
12928;168960;33.20;052;04.14.37.110
12876;168961;33.20;053;04.14.37.110
12864;168959;33.20;054;04.14.37.110
12912;168957;33.20;055;04.14.37.110
12868;168956;33.20;056;04.14.37.110
12876;168960;33.20;057;04.14.37.110
12892;168967;33.20;058;04.14.37.121
12892;168970;33.20;059;04.14.37.121
12876;168959;33.20;060;04.14.37.121
12928;168958;33.20;061;04.14.37.121
12852;168961;33.20;062;04.14.37.121
12888;168963;33.20;063;04.14.37.121
12888;168963;33.20;064;04.14.37.121
12896;168960;33.20;065;04.14.37.121
12888;168962;33.20;066;04.14.37.121
12864;168968;33.20;067;04.14.37.132
12912;168963;33.20;068;04.14.37.132
12908;168955;33.20;069;04.14.37.132
12888;168961;33.20;070;04.14.37.132
12872;168960;33.20;071;04.14.37.132
12904;168965;33.20;072;04.14.37.132
12900;168967;33.20;073;04.14.37.132
12896;168962;33.20;074;04.14.37.132
12904;168948;33.28;075;04.14.37.219
12884;168955;33.28;076;04.14.37.219
12892;168961;33.28;077;04.14.37.219
12868;168959;33.28;078;04.14.37.219
12896;168964;33.28;079;04.14.37.219
12880;168952;33.28;080;04.14.37.219
12904;168965;33.28;081;04.14.37.219
12908;168968;33.28;082;04.14.37.219
12884;168970;33.28;083;04.14.37.241
12896;168956;33.28;084;04.14.37.241
12908;168967;33.28;085;04.14.37.241
12892;168969;33.28;086;04.14.37.241
12928;168967;33.28;087;04.14.37.241
12912;168971;33.28;088;04.14.37.241
12876;168973;33.28;089;04.14.37.241
12888;168960;33.28;090;04.14.37.241
12880;168969;33.28;091;04.14.37.252
12876;168965;33.28;092;04.14.37.252
12880;168966;33.28;093;04.14.37.252
12880;168970;33.28;094;04.14.37.252
12868;168973;33.28;095;04.14.37.252
12912;168973;33.28;096;04.14.37.252
12884;168972;33.28;097;04.14.37.252
12856;168974;33.28;098;04.14.37.252
12892;168968;33.28;099;04.14.37.252
12884;168972;33.28;100;04.14.37.340
12892;168978;33.28;101;04.14.37.340
12884;168972;33.28;102;04.14.37.340
12880;168971;33.28;103;04.14.37.340
12892;168979;33.28;104;04.14.37.351
12876;168979;33.28;105;04.14.37.351
12880;168981;33.28;106;04.14.37.351
12872;168983;33.28;107;04.14.37.351
12904;168971;33.28;108;04.14.37.351
12912;168979;33.28;109;04.14.37.351
12928;168982;33.28;110;04.14.37.351
12880;168980;33.28;111;04.14.37.351
12884;168982;33.28;112;04.14.37.351
12880;168985;33.28;113;04.14.37.362
12908;168981;33.28;114;04.14.37.362
12888;168979;33.28;115;04.14.37.362
12896;168988;33.28;116;04.14.37.362
12892;168986;33.28;117;04.14.37.373
12880;168987;33.28;118;04.14.37.373
12876;168990;33.28;119;04.14.37.373
12884;168995;33.28;120;04.14.37.384
12896;168991;33.28;121;04.14.37.384
12868;168998;33.28;122;04.14.37.384
12896;168997;33.28;123;04.14.37.384
12876;168992;33.28;124;04.14.37.384
12892;168993;33.20;125;04.14.37.472
12892;168999;33.20;126;04.14.37.472
12900;168994;33.20;127;04.14.37.472
12896;168996;33.20;128;04.14.37.472
12892;168986;33.20;129;04.14.37.472
12892;168988;33.20;130;04.14.37.472
12892;168989;33.20;131;04.14.37.472
12896;168990;33.20;132;04.14.37.472
12908;168990;33.20;133;04.14.37.472
12888;168991;33.20;134;04.14.37.472
12876;168988;33.20;135;04.14.37.472
12896;168993;33.20;136;04.14.37.472
12904;168994;33.20;137;04.14.37.483
12872;168990;33.20;138;04.14.37.483
12888;168982;33.20;139;04.14.37.483
12896;168982;33.20;140;04.14.37.483
12888;168974;33.20;141;04.14.37.483
12884;168975;33.20;142;04.14.37.483
12888;168980;33.20;143;04.14.37.483
12892;168974;33.20;144;04.14.37.483
12896;168971;33.20;145;04.14.37.483
12884;168965;33.20;146;04.14.37.483
12880;168969;33.20;147;04.14.37.483
12900;168952;33.20;148;04.14.37.483
12884;168953;33.20;149;04.14.37.483
12880;168960;33.20;150;04.14.37.602
12876;168943;33.20;151;04.14.37.602
12876;168953;33.20;152;04.14.37.602
12860;168942;33.20;153;04.14.37.602
12876;168946;33.20;154;04.14.37.602
12876;168935;33.20;155;04.14.37.602
12908;168942;33.20;156;04.14.37.602
12880;168934;33.20;157;04.14.37.602
12884;168931;33.20;158;04.14.37.613
12884;168931;33.20;159;04.14.37.613
12888;168931;33.20;160;04.14.37.613
12884;168932;33.20;161;04.14.37.613
12896;168933;33.20;162;04.14.37.613
12888;168938;33.20;163;04.14.37.613
12916;168919;33.20;164;04.14.37.613
12896;168934;33.20;165;04.14.37.613
12904;168916;33.20;166;04.14.37.613
12892;168937;33.20;167;04.14.37.613
12856;168924;33.20;168;04.14.37.613
12880;168935;33.20;169;04.14.37.613
12864;168922;33.20;170;04.14.37.613
12888;168926;33.20;171;04.14.37.624
12872;168923;33.20;172;04.14.37.624
12884;168933;33.20;173;04.14.37.624
12900;168931;33.20;174;04.14.37.624
12904;168940;33.20;175;04.14.37.713
12876;168930;33.20;176;04.14.37.713
12864;168935;33.20;177;04.14.37.713
12916;168925;33.20;178;04.14.37.713
12852;168932;33.20;179;04.14.37.713
12912;168927;33.20;180;04.14.37.713
12892;168931;33.20;181;04.14.37.724
12888;168930;33.20;182;04.14.37.724
12888;168928;33.20;183;04.14.37.724
12868;168926;33.20;184;04.14.37.724
12876;168935;33.20;185;04.14.37.724
12884;168934;33.20;186;04.14.37.724
12888;168932;33.20;187;04.14.37.724
12896;168932;33.20;188;04.14.37.724
12904;168943;33.20;189;04.14.37.724
12912;168932;33.20;190;04.14.37.724
12916;168932;33.20;191;04.14.37.724
12880;168941;33.20;192;04.14.37.735
12888;168932;33.20;193;04.14.37.735
12896;168937;33.20;194;04.14.37.735
12900;168928;33.20;195;04.14.37.735
12900;168939;33.20;196;04.14.37.735
12880;168926;33.20;197;04.14.37.735
12884;168932;33.20;198;04.14.37.746
12908;168934;33.20;199;04.14.37.746
12884;168937;33.20;200;04.14.37.833
12920;168934;33.20;201;04.14.37.844
12896;168940;33.20;202;04.14.37.844
12880;168932;33.20;203;04.14.37.844
12880;168935;33.20;204;04.14.37.844
12904;168934;33.20;205;04.14.37.844
12880;168935;33.20;206;04.14.37.844
12896;168939;33.20;207;04.14.37.844
12896;168934;33.20;208;04.14.37.844
12896;168935;33.20;209;04.14.37.844
12892;168940;33.20;210;04.14.37.844
12868;168938;33.20;211;04.14.37.844
12860;168936;33.20;212;04.14.37.844
12888;168932;33.20;213;04.14.37.855
12880;168943;33.20;214;04.14.37.855
12872;168935;33.20;215;04.14.37.855
12880;168938;33.20;216;04.14.37.855
12888;168941;33.20;217;04.14.37.855
12888;168937;33.20;218;04.14.37.855
12888;168934;33.20;219;04.14.37.855
12912;168942;33.20;220;04.14.37.855
12892;168932;33.20;221;04.14.37.855
12888;168940;33.20;222;04.14.37.855
12884;168931;33.20;223;04.14.37.855
12892;168938;33.20;224;04.14.37.855
12860;168929;33.20;225;04.14.37.964
12828;168935;33.20;226;04.14.37.964
12868;168940;33.20;227;04.14.37.964
12876;168938;33.20;228;04.14.37.964
12896;168948;33.20;229;04.14.37.964
12868;168940;33.20;230;04.14.37.964
12892;168945;33.20;231;04.14.37.964
12860;168949;33.20;232;04.14.37.964
12896;168949;33.20;233;04.14.37.964
12868;168953;33.20;234;04.14.37.964
12876;168951;33.20;235;04.14.37.964
12912;168946;33.20;236;04.14.37.976
12892;168950;33.20;237;04.14.37.976
12876;168945;33.20;238;04.14.37.976
12876;168962;33.20;239;04.14.37.976
12912;168953;33.20;240;04.14.37.976
12888;168956;33.20;241;04.14.37.976
12880;168959;33.20;242;04.14.37.987
12892;168959;33.20;243;04.14.37.987
12896;168955;33.20;244;04.14.37.987
12900;168960;33.20;245;04.14.37.987
12860;168964;33.20;246;04.14.37.987
12876;168959;33.20;247;04.14.37.987
12876;168975;33.20;248;04.14.37.987
12908;168967;33.20;249;04.14.37.987
12884;168972;33.20;250;04.14.38.097
12876;168976;33.20;251;04.14.38.097
12868;168973;33.20;252;04.14.38.097
12892;168967;33.20;253;04.14.38.097
12880;168968;33.20;254;04.14.38.097
12880;168974;33.20;255;04.14.38.097
12912;168971;33.20;256;04.14.38.097
12884;168974;33.20;257;04.14.38.107
12864;168975;33.20;258;04.14.38.107
12884;168970;33.20;259;04.14.38.107
12872;168973;33.20;260;04.14.38.107
12888;168974;33.20;261;04.14.38.107
12892;168974;33.20;262;04.14.38.107
12884;168974;33.20;263;04.14.38.107
12900;168982;33.20;264;04.14.38.107
12892;168981;33.20;265;04.14.38.107
12904;168981;33.20;266;04.14.38.107
12884;168986;33.20;267;04.14.38.107
12880;168979;33.20;268;04.14.38.107
12884;168985;33.20;269;04.14.38.118
12912;169000;33.20;270;04.14.38.118
12900;168988;33.20;271;04.14.38.118
12872;168990;33.20;272;04.14.38.118
12884;168999;33.20;273;04.14.38.118
12876;168992;33.20;274;04.14.38.118
12896;168992;33.20;275;04.14.38.228
12928;168997;33.20;276;04.14.38.228
12884;168997;33.20;277;04.14.38.239
12900;169003;33.20;278;04.14.38.239
12884;169001;33.20;279;04.14.38.239
12896;168998;33.20;280;04.14.38.239
12888;169004;33.20;281;04.14.38.239
12896;169000;33.20;282;04.14.38.239
12852;169005;33.20;283;04.14.38.239
12884;169011;33.20;284;04.14.38.239
12884;169010;33.20;285;04.14.38.239
12892;169006;33.20;286;04.14.38.239
12876;169008;33.20;287;04.14.38.239
12876;169010;33.20;288;04.14.38.239
12884;169001;33.20;289;04.14.38.239
12872;169004;33.20;290;04.14.38.250
12888;169006;33.20;291;04.14.38.250
12884;169011;33.20;292;04.14.38.250
12896;169001;33.20;293;04.14.38.250
12900;168997;33.20;294;04.14.38.250
12880;168992;33.20;295;04.14.38.250
12900;168988;33.20;296;04.14.38.250
12896;168971;33.20;297;04.14.38.250
12904;168983;33.20;298;04.14.38.250
12876;168987;33.20;299;04.14.38.250
12896;168981;33.20;300;04.14.38.348
12904;168974;33.20;301;04.14.38.348
12904;168972;33.20;302;04.14.38.348
12880;168975;33.20;303;04.14.38.348
12880;168963;33.20;304;04.14.38.348
12884;168968;33.20;305;04.14.38.348
12884;168960;33.20;306;04.14.38.348
12884;168969;33.20;307;04.14.38.348
12880;168966;33.20;308;04.14.38.370
12876;168955;33.20;309;04.14.38.370
12888;168958;33.20;310;04.14.38.370
12876;168960;33.20;311;04.14.38.370
12876;168956;33.20;312;04.14.38.370
12908;168946;33.20;313;04.14.38.370
12880;168951;33.20;314;04.14.38.370
12884;168942;33.20;315;04.14.38.370
12876;168947;33.20;316;04.14.38.370
12880;168940;33.20;317;04.14.38.370
12876;168947;33.20;318;04.14.38.370
12876;168944;33.20;319;04.14.38.370
12868;168942;33.20;320;04.14.38.381
12892;168942;33.20;321;04.14.38.381
12876;168944;33.20;322;04.14.38.381
12892;168937;33.20;323;04.14.38.381
12904;168935;33.20;324;04.14.38.381
12880;168932;33.24;325;04.14.38.469
12868;168937;33.24;326;04.14.38.469
12876;168939;33.24;327;04.14.38.469
12876;168932;33.24;328;04.14.38.469
12900;168937;33.24;329;04.14.38.469
12880;168935;33.24;330;04.14.38.469
12880;168941;33.24;331;04.14.38.469
12876;168933;33.24;332;04.14.38.469
12892;168934;33.24;333;04.14.38.480
12876;168939;33.24;334;04.14.38.480
12876;168939;33.24;335;04.14.38.480
12864;168939;33.24;336;04.14.38.480
12904;168936;33.24;337;04.14.38.480
12876;168933;33.24;338;04.14.38.480
12880;168943;33.24;339;04.14.38.480
12888;168931;33.24;340;04.14.38.480
12888;168936;33.24;341;04.14.38.480
12908;168944;33.24;342;04.14.38.502
12896;168944;33.24;343;04.14.38.502
12876;168944;33.24;344;04.14.38.502
12876;168951;33.24;345;04.14.38.502
12896;168945;33.24;346;04.14.38.502
12868;168952;33.24;347;04.14.38.502
12884;168946;33.24;348;04.14.38.502
12876;168953;33.24;349;04.14.38.513
12900;168950;33.24;350;04.14.38.590
12904;168955;33.24;351;04.14.38.590
12896;168947;33.24;352;04.14.38.590
12888;168950;33.24;353;04.14.38.590
12880;168949;33.24;354;04.14.38.590
12876;168951;33.24;355;04.14.38.591
12880;168956;33.24;356;04.14.38.602
12872;168959;33.24;357;04.14.38.602
12884;168952;33.24;358;04.14.38.602
12892;168954;33.24;359;04.14.38.602
12844;168952;33.24;360;04.14.38.602
12864;168955;33.24;361;04.14.38.602
12896;168955;33.24;362;04.14.38.602
12896;168951;33.24;363;04.14.38.602
12896;168941;33.24;364;04.14.38.602
