gsr; bvp; skt; skt2; Cont; time
12908;173156;34.40;125;03.30.59.608
12900;173151;34.40;126;03.30.59.608
12912;173152;34.40;127;03.30.59.608
12932;173150;34.40;128;03.30.59.608
12892;173162;34.40;129;03.30.59.608
12916;173156;34.40;130;03.30.59.624
12888;173150;34.40;131;03.30.59.624
12892;173150;34.40;132;03.30.59.624
12892;173159;34.40;133;03.30.59.624
12904;173153;34.40;134;03.30.59.624
12900;173158;34.40;135;03.30.59.624
12904;173146;34.40;136;03.30.59.624
12920;173158;34.40;137;03.30.59.624
12912;173157;34.40;138;03.30.59.624
12924;173157;34.40;139;03.30.59.624
12904;173156;34.40;140;03.30.59.624
12936;173160;34.40;141;03.30.59.624
12916;173156;34.40;142;03.30.59.624
12928;173149;34.40;143;03.30.59.624
12936;173163;34.40;144;03.30.59.624
12908;173155;34.40;145;03.30.59.635
12908;173163;34.40;146;03.30.59.635
12860;173154;34.40;147;03.30.59.635
12928;173157;34.40;148;03.30.59.635
12928;173164;34.40;149;03.30.59.635
12892;173158;34.44;150;03.30.59.726
12904;173168;34.44;151;03.30.59.726
12920;173171;34.44;152;03.30.59.726
12928;173161;34.44;153;03.30.59.726
12896;173153;34.44;154;03.30.59.726
12892;173162;34.44;155;03.30.59.726
12928;173169;34.44;156;03.30.59.726
12928;173176;34.44;157;03.30.59.726
12920;173167;34.44;158;03.30.59.748
12916;173173;34.44;159;03.30.59.748
12944;173168;34.44;160;03.30.59.748
12904;173177;34.44;161;03.30.59.748
12920;173176;34.44;162;03.30.59.748
12912;173173;34.44;163;03.30.59.748
12928;173169;34.44;164;03.30.59.748
12924;173179;34.44;165;03.30.59.748
12916;173182;34.44;166;03.30.59.748
12928;173177;34.44;167;03.30.59.748
12916;173181;34.44;168;03.30.59.748
12892;173187;34.44;169;03.30.59.759
12908;173178;34.44;170;03.30.59.759
12912;173191;34.44;171;03.30.59.759
12932;173193;34.44;172;03.30.59.759
12924;173196;34.44;173;03.30.59.759
12940;173185;34.44;174;03.30.59.759
12916;173190;34.44;175;03.30.59.846
12888;173196;34.44;176;03.30.59.846
12908;173205;34.44;177;03.30.59.846
12932;173199;34.44;178;03.30.59.846
12900;173200;34.44;179;03.30.59.846
12920;173201;34.44;180;03.30.59.846
12896;173204;34.44;181;03.30.59.846
12908;173202;34.44;182;03.30.59.857
12912;173208;34.44;183;03.30.59.857
12916;173207;34.44;184;03.30.59.857
12904;173214;34.44;185;03.30.59.857
12928;173211;34.44;186;03.30.59.857
12936;173213;34.44;187;03.30.59.857
12892;173214;34.44;188;03.30.59.857
12892;173214;34.44;189;03.30.59.857
12892;173216;34.44;190;03.30.59.857
12948;173227;34.44;191;03.30.59.857
12928;173227;34.44;192;03.30.59.857
12904;173220;34.44;193;03.30.59.857
12904;173236;34.44;194;03.30.59.857
12948;173225;34.44;195;03.30.59.868
12936;173225;34.44;196;03.30.59.868
12924;173224;34.44;197;03.30.59.868
12932;173225;34.44;198;03.30.59.868
12900;173220;34.44;199;03.30.59.868
12932;173229;34.48;200;03.30.59.977
12904;173228;34.48;201;03.30.59.977
12936;173228;34.48;202;03.30.59.988
12900;173223;34.48;203;03.30.59.988
12920;173222;34.48;204;03.30.59.988
12928;173219;34.48;205;03.30.59.988
12928;173207;34.48;206;03.30.59.988
12932;173212;34.48;207;03.30.59.988
12928;173205;34.48;208;03.30.59.988
12904;173198;34.48;209;03.30.59.988
12928;173192;34.48;210;03.30.59.988
12928;173190;34.48;211;03.30.59.988
12924;173177;34.48;212;03.30.59.988
12920;173173;34.48;213;03.30.59.988
12920;173166;34.48;214;03.30.59.988
12920;173166;34.48;215;03.30.59.999
12892;173155;34.48;216;03.30.59.999
12916;173153;34.48;217;03.30.59.999
12884;173143;34.48;218;03.30.59.999
12928;173144;34.48;219;03.30.59.999
12932;173134;34.48;220;03.30.59.999
12892;173135;34.48;221;03.30.59.999
12936;173130;34.48;222;03.30.59.999
12896;173127;34.48;223;03.30.59.999
12904;173124;34.48;224;03.30.59.999
12892;173124;34.48;225;03.31.00.120
12932;173119;34.48;226;03.31.00.120
12932;173118;34.48;227;03.31.00.120
12908;173123;34.48;228;03.31.00.120
12908;173125;34.48;229;03.31.00.120
12936;173124;34.48;230;03.31.00.120
12940;173122;34.48;231;03.31.00.120
12904;173121;34.48;232;03.31.00.120
12924;173116;34.48;233;03.31.00.120
12884;173118;34.48;234;03.31.00.120
12908;173125;34.48;235;03.31.00.120
12892;173123;34.48;236;03.31.00.131
12932;173123;34.48;237;03.31.00.131
12928;173126;34.48;238;03.31.00.131
12904;173120;34.48;239;03.31.00.131
12932;173123;34.48;240;03.31.00.131
12920;173115;34.48;241;03.31.00.131
12900;173123;34.48;242;03.31.00.131
12932;173125;34.48;243;03.31.00.131
12904;173117;34.48;244;03.31.00.131
12940;173130;34.48;245;03.31.00.131
12908;173128;34.48;246;03.31.00.131
12908;173121;34.48;247;03.31.00.131
12928;173129;34.48;248;03.31.00.131
12920;173132;34.48;249;03.31.00.142
12912;173134;34.48;250;03.31.00.252
12924;173135;34.48;251;03.31.00.252
12924;173133;34.48;252;03.31.00.252
12908;173139;34.48;253;03.31.00.252
12916;173141;34.48;254;03.31.00.252
12960;173136;34.48;255;03.31.00.252
12936;173145;34.48;256;03.31.00.252
12912;173143;34.48;257;03.31.00.252
12928;173138;34.48;258;03.31.00.263
12944;173144;34.48;259;03.31.00.263
12920;173139;34.48;260;03.31.00.263
12920;173142;34.48;261;03.31.00.263
12904;173141;34.48;262;03.31.00.263
12904;173148;34.48;263;03.31.00.263
12920;173144;34.48;264;03.31.00.263
12928;173153;34.48;265;03.31.00.263
12908;173147;34.48;266;03.31.00.263
12908;173146;34.48;267;03.31.00.263
12892;173150;34.48;268;03.31.00.263
12952;173151;34.48;269;03.31.00.263
12904;173151;34.48;270;03.31.00.274
12900;173152;34.48;271;03.31.00.274
12900;173143;34.48;272;03.31.00.274
12936;173140;34.48;273;03.31.00.274
12916;173135;34.48;274;03.31.00.274
12892;173144;34.48;275;03.31.00.339
12888;173151;34.48;276;03.31.00.339
12924;173149;34.48;277;03.31.00.339
12920;173153;34.48;278;03.31.00.339
12904;173145;34.48;279;03.31.00.339
12916;173145;34.48;280;03.31.00.350
12916;173147;34.48;281;03.31.00.350
12936;173135;34.48;282;03.31.00.350
12924;173156;34.48;283;03.31.00.350
12908;173149;34.48;284;03.31.00.350
12924;173143;34.48;285;03.31.00.350
12912;173144;34.48;286;03.31.00.350
12928;173148;34.48;287;03.31.00.350
12892;173147;34.48;288;03.31.00.350
12884;173156;34.48;289;03.31.00.350
12928;173155;34.48;290;03.31.00.350
12920;173153;34.48;291;03.31.00.362
12936;173150;34.48;292;03.31.00.362
12896;173147;34.48;293;03.31.00.362
12920;173157;34.48;294;03.31.00.362
12932;173157;34.48;295;03.31.00.362
12924;173156;34.48;296;03.31.00.362
12924;173156;34.48;297;03.31.00.362
12912;173159;34.48;298;03.31.00.362
12924;173149;34.48;299;03.31.00.362
12928;173151;34.44;300;03.31.00.472
12904;173157;34.44;301;03.31.00.472
12936;173155;34.44;302;03.31.00.483
12932;173158;34.44;303;03.31.00.483
12892;173159;34.44;304;03.31.00.483
12892;173162;34.44;305;03.31.00.483
12908;173155;34.44;306;03.31.00.483
12952;173161;34.44;307;03.31.00.483
12924;173161;34.44;308;03.31.00.483
12908;173167;34.44;309;03.31.00.483
12920;173165;34.44;310;03.31.00.483
12916;173165;34.44;311;03.31.00.483
12900;173165;34.44;312;03.31.00.483
12928;173157;34.44;313;03.31.00.483
12928;173165;34.44;314;03.31.00.483
12928;173164;34.44;315;03.31.00.494
12936;173160;34.44;316;03.31.00.494
12900;173170;34.44;317;03.31.00.494
12912;173171;34.44;318;03.31.00.494
12940;173160;34.44;319;03.31.00.494
12900;173167;34.44;320;03.31.00.494
12912;173170;34.44;321;03.31.00.494
12920;173166;34.44;322;03.31.00.494
12908;173177;34.44;323;03.31.00.494
12952;173172;34.44;324;03.31.00.494
12900;173175;34.44;325;03.31.00.615
12904;173175;34.44;326;03.31.00.615
12908;173176;34.44;327;03.31.00.615
12904;173178;34.44;328;03.31.00.615
12932;173182;34.44;329;03.31.00.615
12928;173181;34.44;330;03.31.00.615
12928;173188;34.44;331;03.31.00.615
12892;173189;34.44;332;03.31.00.615
12912;173179;34.44;333;03.31.00.615
12928;173185;34.44;334;03.31.00.615
12912;173182;34.44;335;03.31.00.615
12920;173191;34.44;336;03.31.00.626
12920;173185;34.44;337;03.31.00.626
12908;173190;34.44;338;03.31.00.626
12916;173190;34.44;339;03.31.00.626
12900;173188;34.44;340;03.31.00.626
12892;173194;34.44;341;03.31.00.626
12896;173198;34.44;342;03.31.00.626
12932;173200;34.44;343;03.31.00.626
12920;173197;34.44;344;03.31.00.626
12924;173188;34.44;345;03.31.00.626
12928;173186;34.44;346;03.31.00.626
12892;173191;34.44;347;03.31.00.626
12928;173184;34.44;348;03.31.00.626
12952;173187;34.44;349;03.31.00.637
12908;173183;34.44;350;03.31.00.724
12892;173172;34.44;351;03.31.00.724
12904;173167;34.44;352;03.31.00.724
12904;173152;34.44;353;03.31.00.724
12928;173149;34.44;354;03.31.00.724
12924;173143;34.44;355;03.31.00.724
12932;173141;34.44;356;03.31.00.724
12928;173141;34.44;357;03.31.00.724
12936;173129;34.44;358;03.31.00.746
12940;173128;34.44;359;03.31.00.746
12932;173116;34.44;360;03.31.00.746
12928;173112;34.44;361;03.31.00.746
12932;173102;34.44;362;03.31.00.746
12904;173111;34.44;363;03.31.00.746
12920;173111;34.44;364;03.31.00.746
12912;173103;34.44;365;03.31.00.757
12920;173101;34.44;366;03.31.00.757
12904;173093;34.44;367;03.31.00.757
12908;173101;34.44;368;03.31.00.757
12920;173098;34.44;369;03.31.00.757
12928;173099;34.44;370;03.31.00.757
12944;173097;34.44;371;03.31.00.757
12916;173094;34.44;372;03.31.00.757
12920;173098;34.44;373;03.31.00.757
12944;173098;34.44;374;03.31.00.757
12924;173101;34.44;375;03.31.00.845
12924;173100;34.44;376;03.31.00.845
12900;173093;34.44;377;03.31.00.845
12892;173101;34.44;378;03.31.00.845
12936;173095;34.44;379;03.31.00.856
12928;173103;34.44;380;03.31.00.856
12904;173109;34.44;381;03.31.00.856
12896;173101;34.44;382;03.31.00.856
12912;173105;34.44;383;03.31.00.878
12916;173112;34.44;384;03.31.00.878
12912;173109;34.44;385;03.31.00.878
12924;173106;34.44;386;03.31.00.878
12916;173118;34.44;387;03.31.00.889
12944;173113;34.44;388;03.31.00.889
12916;173116;34.44;389;03.31.00.889
12924;173118;34.44;390;03.31.00.889
12920;173122;34.44;391;03.31.00.889
12908;173130;34.44;392;03.31.00.889
12900;173122;34.44;393;03.31.00.889
12924;173127;34.44;394;03.31.00.889
12908;173134;34.44;395;03.31.00.889
12920;173133;34.44;396;03.31.00.889
12900;173140;34.44;397;03.31.00.889
12928;173134;34.44;398;03.31.00.889
12936;173129;34.44;399;03.31.00.889
12892;173134;34.44;400;03.31.00.977
12928;173129;34.44;401;03.31.00.977
12924;173135;34.44;402;03.31.00.977
12924;173146;34.44;403;03.31.00.977
12928;173143;34.44;404;03.31.00.977
12928;173146;34.44;405;03.31.00.977
12928;173149;34.44;406;03.31.00.977
12916;173146;34.44;407;03.31.00.977
12892;173146;34.44;408;03.31.00.977
12912;173148;34.44;409;03.31.00.977
12928;173144;34.44;410;03.31.00.977
12936;173147;34.44;411;03.31.00.977
12924;173136;34.44;412;03.31.00.977
12944;173147;34.44;413;03.31.00.988
12920;173150;34.44;414;03.31.00.988
12928;173148;34.44;415;03.31.00.988
12908;173146;34.44;416;03.31.00.988
12920;173149;34.44;417;03.31.00.988
12900;173156;34.44;418;03.31.00.988
12936;173157;34.44;419;03.31.00.988
12876;173157;34.44;420;03.31.00.988
12888;173157;34.44;421;03.31.00.988
12936;173152;34.44;422;03.31.00.988
12920;173159;34.44;423;03.31.00.988
12928;173158;34.44;424;03.31.00.988
12892;173164;34.44;425;03.31.01.108
12912;173157;34.44;426;03.31.01.108
12944;173166;34.44;427;03.31.01.108
12908;173162;34.44;428;03.31.01.108
12908;173170;34.44;429;03.31.01.108
12928;173167;34.44;430;03.31.01.108
12928;173168;34.44;431;03.31.01.108
12908;173171;34.44;432;03.31.01.108
12928;173180;34.44;433;03.31.01.108
12936;173169;34.44;434;03.31.01.119
12928;173169;34.44;435;03.31.01.119
12932;173174;34.44;436;03.31.01.119
12908;173165;34.44;437;03.31.01.119
12912;173166;34.44;438;03.31.01.119
12908;173177;34.44;439;03.31.01.119
12900;173181;34.44;440;03.31.01.119
12904;173177;34.44;441;03.31.01.119
12920;173174;34.44;442;03.31.01.119
12924;173178;34.44;443;03.31.01.119
12928;173182;34.44;444;03.31.01.119
12928;173188;34.44;445;03.31.01.119
12904;173184;34.44;446;03.31.01.119
12948;173202;34.44;447;03.31.01.130
12904;173202;34.44;448;03.31.01.130
12940;173199;34.44;449;03.31.01.130
12908;173199;34.44;450;03.31.01.240
12932;173206;34.44;451;03.31.01.240
12928;173206;34.44;452;03.31.01.240
12916;173214;34.44;453;03.31.01.240
12912;173219;34.44;454;03.31.01.240
12908;173219;34.44;455;03.31.01.240
12908;173225;34.44;456;03.31.01.251
12892;173224;34.44;457;03.31.01.251
12944;173217;34.44;458;03.31.01.251
12936;173228;34.44;459;03.31.01.251
12892;173231;34.44;460;03.31.01.251
12884;173232;34.44;461;03.31.01.251
12904;173227;34.44;462;03.31.01.251
12924;173234;34.44;463;03.31.01.251
12908;173237;34.44;464;03.31.01.251
12920;173230;34.44;465;03.31.01.251
12900;173232;34.44;466;03.31.01.251
12928;173235;34.44;467;03.31.01.251
12916;173241;34.44;468;03.31.01.251
12900;173242;34.44;469;03.31.01.262
12876;173253;34.44;470;03.31.01.262
12932;173246;34.44;471;03.31.01.262
12928;173250;34.44;472;03.31.01.262
12912;173254;34.44;473;03.31.01.262
12916;173252;34.44;474;03.31.01.262
12916;173252;34.44;475;03.31.01.338
12892;173266;34.44;476;03.31.01.338
12908;173270;34.44;477;03.31.01.349
12936;173267;34.44;478;03.31.01.349
12924;173269;34.44;479;03.31.01.349
12916;173268;34.44;480;03.31.01.349
12908;173264;34.44;481;03.31.01.349
12932;173257;34.44;482;03.31.01.349
12932;173246;34.44;483;03.31.01.360
12924;173238;34.44;484;03.31.01.371
12912;173234;34.44;485;03.31.01.371
12944;173224;34.44;486;03.31.01.371
12920;173233;34.44;487;03.31.01.371
12884;173219;34.44;488;03.31.01.371
12904;173226;34.44;489;03.31.01.371
12924;173218;34.44;490;03.31.01.371
12928;173211;34.44;491;03.31.01.371
12904;173209;34.44;492;03.31.01.371
12928;173203;34.44;493;03.31.01.371
12912;173202;34.44;494;03.31.01.371
12888;173205;34.44;495;03.31.01.371
12920;173206;34.44;496;03.31.01.371
12928;173197;34.44;497;03.31.01.382
12928;173200;34.44;498;03.31.01.382
12924;173202;34.44;499;03.31.01.382
12920;173206;34.44;500;03.31.01.470
12892;173204;34.44;501;03.31.01.470
12924;173201;34.44;502;03.31.01.470
12916;173194;34.44;503;03.31.01.470
12920;173205;34.44;504;03.31.01.470
12944;173197;34.44;505;03.31.01.470
12912;173204;34.44;506;03.31.01.470
12908;173202;34.44;507;03.31.01.470
12892;173204;34.44;508;03.31.01.470
12916;173213;34.44;509;03.31.01.470
12888;173208;34.44;510;03.31.01.470
12928;173215;34.44;511;03.31.01.470
12924;173217;34.44;512;03.31.01.481
12900;173213;34.44;513;03.31.01.481
12916;173217;34.44;514;03.31.01.481
12928;173220;34.44;515;03.31.01.481
12904;173224;34.44;516;03.31.01.481
12892;173228;34.44;517;03.31.01.481
12900;173237;34.44;518;03.31.01.481
12896;173229;34.44;519;03.31.01.481
12876;173238;34.44;520;03.31.01.481
12912;173245;34.44;521;03.31.01.481
12892;173246;34.44;522;03.31.01.481
12928;173251;34.44;523;03.31.01.481
12928;173255;34.44;524;03.31.01.492
12880;173253;34.44;525;03.31.01.602
12932;173257;34.44;526;03.31.01.602
12916;173265;34.44;527;03.31.01.602
12888;173262;34.44;528;03.31.01.602
12892;173269;34.44;529;03.31.01.602
12912;173260;34.44;530;03.31.01.602
12936;173270;34.44;531;03.31.01.602
12900;173273;34.44;532;03.31.01.602
12936;173276;34.44;533;03.31.01.613
12900;173276;34.44;534;03.31.01.613
12928;173276;34.44;535;03.31.01.613
12924;173278;34.44;536;03.31.01.613
12920;173288;34.44;537;03.31.01.613
12928;173290;34.44;538;03.31.01.613
12916;173294;34.44;539;03.31.01.613
12920;173295;34.44;540;03.31.01.613
12912;173291;34.44;541;03.31.01.613
12916;173297;34.44;542;03.31.01.613
12916;173300;34.44;543;03.31.01.613
12912;173306;34.44;544;03.31.01.613
12928;173301;34.44;545;03.31.01.624
12912;173310;34.44;546;03.31.01.624
12928;173310;34.44;547;03.31.01.624
12892;173304;34.44;548;03.31.01.624
12908;173307;34.44;549;03.31.01.624
12912;173303;34.44;550;03.31.01.733
12944;173308;34.44;551;03.31.01.733
12904;173317;34.44;552;03.31.01.733
12908;173320;34.44;553;03.31.01.744
12888;173316;34.44;554;03.31.01.744
12908;173311;34.44;555;03.31.01.744
12892;173312;34.44;556;03.31.01.744
12900;173313;34.44;557;03.31.01.744
12904;173325;34.44;558;03.31.01.744
12916;173322;34.44;559;03.31.01.744
12928;173327;34.44;560;03.31.01.744
12912;173324;34.44;561;03.31.01.744
12904;173320;34.44;562;03.31.01.744
12928;173319;34.44;563;03.31.01.744
12904;173328;34.44;564;03.31.01.744
12884;173334;34.44;565;03.31.01.744
12928;173328;34.44;566;03.31.01.744
12908;173338;34.44;567;03.31.01.755
12932;173334;34.44;568;03.31.01.755
12892;173341;34.44;569;03.31.01.755
12912;173340;34.44;570;03.31.01.755
12928;173343;34.44;571;03.31.01.755
12912;173349;34.44;572;03.31.01.755
12900;173346;34.44;573;03.31.01.755
12908;173346;34.44;574;03.31.01.755
12904;173340;34.44;575;03.31.01.854
12928;173351;34.44;576;03.31.01.854
12920;173343;34.44;577;03.31.01.854
12928;173340;34.44;578;03.31.01.854
12940;173347;34.44;579;03.31.01.854
12908;173345;34.44;580;03.31.01.854
12912;173340;34.44;581;03.31.01.854
12912;173334;34.44;582;03.31.01.854
12920;173341;34.44;583;03.31.01.854
12908;173335;34.44;584;03.31.01.854
12928;173338;34.44;585;03.31.01.854
12920;173328;34.44;586;03.31.01.854
12912;173336;34.44;587;03.31.01.865
12908;173337;34.44;588;03.31.01.865
12892;173337;34.44;589;03.31.01.865
12904;173333;34.44;590;03.31.01.865
12944;173344;34.44;591;03.31.01.865
12908;173345;34.44;592;03.31.01.876
12924;173358;34.44;593;03.31.01.876
12884;173364;34.44;594;03.31.01.876
12908;173357;34.44;595;03.31.01.876
12920;173352;34.44;596;03.31.01.876
12892;173360;34.44;597;03.31.01.876
12904;173368;34.44;598;03.31.01.876
12928;173366;34.44;599;03.31.01.876
12916;173369;34.44;600;03.31.01.975
12936;173367;34.44;601;03.31.01.975
12928;173369;34.44;602;03.31.01.975
12932;173369;34.44;603;03.31.01.975
12916;173361;34.44;604;03.31.01.975
12900;173356;34.44;605;03.31.01.975
12920;173358;34.44;606;03.31.01.975
12936;173341;34.44;607;03.31.01.975
12908;173349;34.44;608;03.31.01.975
12892;173342;34.44;609;03.31.01.975
12932;173329;34.44;610;03.31.01.986
12900;173330;34.44;611;03.31.01.986
12944;173318;34.44;612;03.31.01.986
12960;173322;34.44;613;03.31.01.986
12916;173303;34.44;614;03.31.01.986
12892;173299;34.44;615;03.31.01.986
12956;173295;34.44;616;03.31.01.986
12900;173280;34.44;617;03.31.01.986
12920;173268;34.44;618;03.31.01.986
12908;173270;34.44;619;03.31.01.986
12928;173258;34.44;620;03.31.01.986
12944;173244;34.44;621;03.31.01.986
12896;173243;34.44;622;03.31.01.997
12916;173231;34.44;623;03.31.01.997
12940;173227;34.44;624;03.31.01.997
12888;173215;34.44;625;03.31.02.095
12912;173223;34.44;626;03.31.02.095
12928;173210;34.44;627;03.31.02.095
12936;173195;34.44;628;03.31.02.095
12936;173202;34.44;629;03.31.02.095
12908;173202;34.44;630;03.31.02.095
12904;173207;34.44;631;03.31.02.106
12900;173208;34.44;632;03.31.02.106
12916;173220;34.44;633;03.31.02.106
12916;173212;34.44;634;03.31.02.106
12904;173214;34.44;635;03.31.02.106
12908;173221;34.44;636;03.31.02.106
12916;173217;34.44;637;03.31.02.106
12908;173225;34.44;638;03.31.02.106
12916;173233;34.44;639;03.31.02.106
12920;173228;34.44;640;03.31.02.106
12960;173228;34.44;641;03.31.02.106
12904;173234;34.44;642;03.31.02.106
12892;173238;34.44;643;03.31.02.117
12908;173237;34.44;644;03.31.02.117
12924;173230;34.44;645;03.31.02.117
12928;173232;34.44;646;03.31.02.117
12912;173245;34.44;647;03.31.02.117
12908;173249;34.44;648;03.31.02.117
12920;173241;34.44;649;03.31.02.117
12936;173247;34.44;650;03.31.02.227
12936;173242;34.44;651;03.31.02.238
12932;173233;34.44;652;03.31.02.238
12912;173244;34.44;653;03.31.02.238
12944;173248;34.44;654;03.31.02.238
12920;173242;34.44;655;03.31.02.238
12892;173243;34.44;656;03.31.02.238
12912;173236;34.44;657;03.31.02.238
12912;173234;34.44;658;03.31.02.238
12928;173237;34.44;659;03.31.02.238
12908;173234;34.44;660;03.31.02.238
12904;173229;34.44;661;03.31.02.238
12944;173220;34.44;662;03.31.02.238
12912;173226;34.44;663;03.31.02.238
12888;173218;34.44;664;03.31.02.249
12920;173218;34.44;665;03.31.02.249
12924;173207;34.44;666;03.31.02.249
12936;173194;34.44;667;03.31.02.249
12904;173187;34.44;668;03.31.02.249
12920;173185;34.44;669;03.31.02.249
12940;173176;34.44;670;03.31.02.249
12908;173172;34.44;671;03.31.02.249
12916;173165;34.44;672;03.31.02.249
12904;173165;34.44;673;03.31.02.249
12948;173160;34.44;674;03.31.02.249
12900;173166;34.44;675;03.31.02.347
12876;173161;34.44;676;03.31.02.347
12904;173158;34.44;677;03.31.02.347
12892;173163;34.44;678;03.31.02.347
12916;173157;34.44;679;03.31.02.347
12928;173158;34.44;680;03.31.02.347
12920;173160;34.44;681;03.31.02.347
12928;173165;34.44;682;03.31.02.347
12908;173162;34.44;683;03.31.02.358
12908;173165;34.44;684;03.31.02.358
12892;173169;34.44;685;03.31.02.358
12920;173171;34.44;686;03.31.02.358
12924;173184;34.44;687;03.31.02.358
12928;173180;34.44;688;03.31.02.358
12912;173187;34.44;689;03.31.02.358
12928;173163;34.44;690;03.31.02.358
12924;173177;34.44;691;03.31.02.358
12932;173164;34.44;692;03.31.02.358
12912;173170;34.44;693;03.31.02.369
12916;173174;34.44;694;03.31.02.369
12920;173169;34.44;695;03.31.02.369
12928;173163;34.44;696;03.31.02.369
12928;173171;34.44;697;03.31.02.369
12916;173173;34.44;698;03.31.02.369
12944;173169;34.44;699;03.31.02.369
12944;173170;34.44;700;03.31.02.468
12904;173173;34.44;701;03.31.02.468
12928;173176;34.44;702;03.31.02.468
12928;173175;34.44;703;03.31.02.468
12900;173174;34.44;704;03.31.02.468
12944;173171;34.44;705;03.31.02.468
12936;173183;34.44;706;03.31.02.468
12944;173181;34.44;707;03.31.02.468
12920;173182;34.44;708;03.31.02.479
12928;173193;34.44;709;03.31.02.479
12900;173191;34.44;710;03.31.02.479
12920;173199;34.44;711;03.31.02.479
12932;173197;34.44;712;03.31.02.479
12908;173193;34.44;713;03.31.02.479
12936;173193;34.44;714;03.31.02.479
12916;173180;34.44;715;03.31.02.479
12912;173174;34.44;716;03.31.02.479
12904;173183;34.44;717;03.31.02.479
12908;173168;34.44;718;03.31.02.479
12912;173160;34.44;719;03.31.02.479
12888;173161;34.44;720;03.31.02.479
12900;173155;34.44;721;03.31.02.490
12908;173143;34.44;722;03.31.02.490
12928;173138;34.44;723;03.31.02.490
12920;173142;34.44;724;03.31.02.490
12936;173138;34.44;725;03.31.02.589
12900;173134;34.44;726;03.31.02.589
12912;173133;34.44;727;03.31.02.589
12896;173126;34.44;728;03.31.02.589
12900;173124;34.44;729;03.31.02.599
12912;173125;34.44;730;03.31.02.599
12920;173126;34.44;731;03.31.02.599
12896;173123;34.44;732;03.31.02.599
12936;173130;34.44;733;03.31.02.599
12912;173124;34.44;734;03.31.02.599
12916;173118;34.44;735;03.31.02.599
12920;173121;34.44;736;03.31.02.599
12916;173116;34.44;737;03.31.02.599
12912;173115;34.44;738;03.31.02.599
12920;173124;34.44;739;03.31.02.599
12924;173120;34.44;740;03.31.02.599
12912;173114;34.44;741;03.31.02.599
12892;173121;34.44;742;03.31.02.610
12932;173126;34.44;743;03.31.02.610
12924;173122;34.44;744;03.31.02.610
12940;173124;34.44;745;03.31.02.610
12908;173126;34.44;746;03.31.02.621
12904;173130;34.44;747;03.31.02.621
12912;173132;34.44;748;03.31.02.621
12916;173136;34.44;749;03.31.02.621
12904;173138;34.44;750;03.31.02.730
12920;173135;34.44;751;03.31.02.730
12892;173148;34.44;752;03.31.02.730
12900;173145;34.44;753;03.31.02.730
12940;173148;34.44;754;03.31.02.730
12892;173151;34.44;755;03.31.02.730
12888;173146;34.44;756;03.31.02.730
12896;173157;34.44;757;03.31.02.730
12892;173167;34.44;758;03.31.02.730
12924;173166;34.44;759;03.31.02.730
12936;173167;34.44;760;03.31.02.730
12896;173165;34.44;761;03.31.02.741
12932;173164;34.44;762;03.31.02.741
12888;173173;34.44;763;03.31.02.741
12948;173166;34.44;764;03.31.02.741
12908;173179;34.44;765;03.31.02.741
12944;173179;34.44;766;03.31.02.741
12916;173181;34.44;767;03.31.02.741
12892;173187;34.44;768;03.31.02.741
12924;173186;34.44;769;03.31.02.741
12928;173196;34.44;770;03.31.02.741
12912;173196;34.44;771;03.31.02.741
12908;173194;34.44;772;03.31.02.741
12896;173197;34.44;773;03.31.02.741
12944;173192;34.44;774;03.31.02.741
12904;173195;34.44;775;03.31.02.862
12908;173186;34.44;776;03.31.02.862
12920;173191;34.44;777;03.31.02.862
12908;173181;34.44;778;03.31.02.862
12932;173188;34.44;779;03.31.02.862
12920;173183;34.44;780;03.31.02.862
12904;173190;34.44;781;03.31.02.862
12908;173183;34.44;782;03.31.02.873
12936;173179;34.44;783;03.31.02.873
12928;173179;34.44;784;03.31.02.873
12892;173183;34.44;785;03.31.02.873
12916;173175;34.44;786;03.31.02.873
12932;173179;34.44;787;03.31.02.873
12908;173175;34.44;788;03.31.02.873
12908;173165;34.44;789;03.31.02.873
12912;173171;34.44;790;03.31.02.873
12936;173171;34.44;791;03.31.02.873
12912;173174;34.44;792;03.31.02.873
12908;173166;34.44;793;03.31.02.873
12928;173174;34.44;794;03.31.02.873
12916;173168;34.44;795;03.31.02.884
12904;173178;34.44;796;03.31.02.884
12892;173177;34.44;797;03.31.02.884
12920;173167;34.44;798;03.31.02.884
12896;173174;34.44;799;03.31.02.884
12896;173167;34.44;800;03.31.02.971
12896;173186;34.44;801;03.31.02.971
12892;173174;34.44;802;03.31.02.971
12892;173177;34.44;803;03.31.02.971
12924;173178;34.44;804;03.31.02.982
12908;173178;34.44;805;03.31.02.982
12904;173180;34.44;806;03.31.02.982
12924;173185;34.44;807;03.31.02.982
12916;173174;34.44;808;03.31.02.982
12916;173178;34.44;809;03.31.02.982
12916;173180;34.44;810;03.31.02.982
12892;173171;34.44;811;03.31.02.982
12896;173183;34.44;812;03.31.02.982
12904;173188;34.44;813;03.31.02.982
12884;173178;34.44;814;03.31.02.982
12924;173183;34.44;815;03.31.02.982
12912;173186;34.44;816;03.31.02.982
12912;173177;34.44;817;03.31.02.993
12904;173176;34.44;818;03.31.02.993
12932;173188;34.44;819;03.31.02.993
12892;173186;34.44;820;03.31.02.993
12908;173184;34.44;821;03.31.02.993
12936;173194;34.44;822;03.31.03.004
12928;173186;34.44;823;03.31.03.004
12920;173195;34.44;824;03.31.03.004
12896;173195;34.44;825;03.31.03.103
12908;173195;34.44;826;03.31.03.103
12928;173187;34.44;827;03.31.03.103
12892;173187;34.44;828;03.31.03.103
12916;173189;34.44;829;03.31.03.103
12896;173179;34.44;830;03.31.03.103
12928;173172;34.44;831;03.31.03.103
12908;173168;34.44;832;03.31.03.103
12916;173156;34.44;833;03.31.03.103
12944;173148;34.44;834;03.31.03.103
12904;173138;34.44;835;03.31.03.103
12900;173136;34.44;836;03.31.03.103
12880;173130;34.44;837;03.31.03.103
12904;173124;34.44;838;03.31.03.114
12916;173118;34.44;839;03.31.03.114
12892;173106;34.44;840;03.31.03.114
12916;173117;34.44;841;03.31.03.114
12908;173111;34.44;842;03.31.03.114
12892;173094;34.44;843;03.31.03.114
12928;173107;34.44;844;03.31.03.114
12912;173104;34.44;845;03.31.03.114
12904;173101;34.44;846;03.31.03.114
12924;173104;34.44;847;03.31.03.114
12908;173098;34.44;848;03.31.03.114
12952;173107;34.44;849;03.31.03.114
12892;173099;34.44;850;03.31.03.235
12908;173099;34.44;851;03.31.03.235
12912;173096;34.44;852;03.31.03.235
12912;173088;34.44;853;03.31.03.235
12904;173094;34.44;854;03.31.03.235
12900;173093;34.44;855;03.31.03.235
12876;173088;34.44;856;03.31.03.235
12912;173084;34.44;857;03.31.03.235
12936;173081;34.44;858;03.31.03.235
12908;173083;34.44;859;03.31.03.246
12904;173072;34.44;860;03.31.03.246
12896;173079;34.44;861;03.31.03.246
12892;173082;34.44;862;03.31.03.246
12912;173080;34.44;863;03.31.03.246
12916;173077;34.44;864;03.31.03.246
12888;173073;34.44;865;03.31.03.246
12912;173086;34.44;866;03.31.03.246
12892;173076;34.44;867;03.31.03.257
12928;173075;34.44;868;03.31.03.257
12944;173076;34.44;869;03.31.03.257
12900;173084;34.44;870;03.31.03.257
12892;173078;34.44;871;03.31.03.257
12924;173078;34.44;872;03.31.03.257
12920;173075;34.44;873;03.31.03.257
12960;173075;34.44;874;03.31.03.257
12892;173080;34.44;875;03.31.03.366
12908;173084;34.44;876;03.31.03.366
12920;173085;34.44;877;03.31.03.366
12900;173082;34.44;878;03.31.03.366
12916;173080;34.44;879;03.31.03.366
12944;173081;34.44;880;03.31.03.377
12900;173088;34.44;881;03.31.03.377
12924;173079;34.44;882;03.31.03.377
12936;173087;34.44;883;03.31.03.377
12896;173082;34.44;884;03.31.03.377
12944;173082;34.44;885;03.31.03.377
12928;173075;34.44;886;03.31.03.377
12928;173084;34.44;887;03.31.03.377
12908;173084;34.44;888;03.31.03.377
12896;173084;34.44;889;03.31.03.377
12928;173082;34.44;890;03.31.03.377
12932;173092;34.44;891;03.31.03.377
12932;173096;34.44;892;03.31.03.377
12928;173083;34.44;893;03.31.03.388
12908;173093;34.44;894;03.31.03.388
12920;173099;34.44;895;03.31.03.388
12916;173103;34.44;896;03.31.03.388
12924;173096;34.44;897;03.31.03.388
12892;173097;34.44;898;03.31.03.388
12928;173094;34.44;899;03.31.03.388
12896;173094;34.44;900;03.31.03.465
12908;173094;34.44;901;03.31.03.465
12912;173088;34.44;902;03.31.03.465
12932;173094;34.44;903;03.31.03.476
12884;173105;34.44;904;03.31.03.476
12944;173097;34.44;905;03.31.03.476
12912;173105;34.44;906;03.31.03.476
12928;173103;34.44;907;03.31.03.476
12900;173103;34.44;908;03.31.03.476
12892;173117;34.44;909;03.31.03.476
12928;173097;34.44;910;03.31.03.476
12916;173108;34.44;911;03.31.03.476
12916;173107;34.44;912;03.31.03.476
12904;173102;34.44;913;03.31.03.476
12900;173104;34.44;914;03.31.03.476
12908;173108;34.44;915;03.31.03.476
12916;173112;34.44;916;03.31.03.487
12904;173112;34.44;917;03.31.03.498
12884;173107;34.44;918;03.31.03.498
12876;173110;34.44;919;03.31.03.498
12924;173110;34.44;920;03.31.03.509
12912;173104;34.44;921;03.31.03.509
12928;173109;34.44;922;03.31.03.509
12912;173116;34.44;923;03.31.03.509
12928;173118;34.44;924;03.31.03.509
12924;173116;34.44;925;03.31.03.597
12904;173110;34.44;926;03.31.03.597
12924;173122;34.44;927;03.31.03.597
12920;173119;34.44;928;03.31.03.597
12892;173121;34.44;929;03.31.03.597
12892;173120;34.44;930;03.31.03.597
12892;173118;34.44;931;03.31.03.597
12912;173127;34.44;932;03.31.03.597
12916;173124;34.44;933;03.31.03.597
12900;173124;34.44;934;03.31.03.597
12904;173129;34.44;935;03.31.03.597
12912;173129;34.44;936;03.31.03.597
12920;173142;34.44;937;03.31.03.608
12916;173131;34.44;938;03.31.03.608
12916;173143;34.44;939;03.31.03.608
12920;173131;34.44;940;03.31.03.608
12904;173132;34.44;941;03.31.03.608
12912;173133;34.44;942;03.31.03.608
12928;173139;34.44;943;03.31.03.608
12944;173129;34.44;944;03.31.03.608
12908;173121;34.44;945;03.31.03.608
12928;173115;34.44;946;03.31.03.608
12928;173108;34.44;947;03.31.03.608
12952;173102;34.44;948;03.31.03.608
12916;173094;34.44;949;03.31.03.608
12888;173091;34.44;950;03.31.03.728
12912;173080;34.44;951;03.31.03.728
12936;173075;34.44;952;03.31.03.728
12888;173076;34.44;953;03.31.03.728
12896;173078;34.44;954;03.31.03.728
12912;173065;34.44;955;03.31.03.728
12892;173066;34.44;956;03.31.03.728
12904;173065;34.44;957;03.31.03.728
12880;173063;34.44;958;03.31.03.739
12936;173054;34.44;959;03.31.03.739
12916;173056;34.44;960;03.31.03.739
12912;173050;34.44;961;03.31.03.739
12920;173041;34.44;962;03.31.03.739
12912;173041;34.44;963;03.31.03.739
12888;173032;34.44;964;03.31.03.739
12916;173035;34.44;965;03.31.03.739
12908;173038;34.44;966;03.31.03.739
12916;173033;34.44;967;03.31.03.739
12928;173022;34.44;968;03.31.03.739
12892;173035;34.44;969;03.31.03.739
12928;173029;34.44;970;03.31.03.739
12908;173019;34.44;971;03.31.03.750
12928;173029;34.44;972;03.31.03.750
12912;173023;34.44;973;03.31.03.750
12936;173022;34.44;974;03.31.03.750
12912;173020;34.44;975;03.31.03.860
12928;173016;34.44;976;03.31.03.860
12912;173023;34.44;977;03.31.03.860
12940;173030;34.44;978;03.31.03.860
12892;173038;34.44;979;03.31.03.871
12916;173021;34.44;980;03.31.03.871
12928;173029;34.44;981;03.31.03.871
12928;173035;34.44;982;03.31.03.871
12916;173022;34.44;983;03.31.03.871
12916;173035;34.44;984;03.31.03.871
12892;173028;34.44;985;03.31.03.871
12912;173036;34.44;986;03.31.03.871
12924;173030;34.44;987;03.31.03.871
12896;173031;34.44;988;03.31.03.871
12936;173025;34.44;989;03.31.03.871
12860;173034;34.44;990;03.31.03.882
12904;173038;34.44;991;03.31.03.882
12944;173044;34.44;992;03.31.03.882
12908;173040;34.44;993;03.31.03.882
12928;173045;34.44;994;03.31.03.882
12928;173048;34.44;995;03.31.03.882
12928;173046;34.44;996;03.31.03.882
12900;173047;34.44;997;03.31.03.882
12932;173043;34.44;998;03.31.03.882
12944;173055;34.44;999;03.31.03.882
12920;173060;34.44;000;03.31.03.970
12896;173057;34.44;001;03.31.03.981
12944;173066;34.44;002;03.31.03.981
12936;173066;34.44;003;03.31.03.981
12904;173074;34.44;004;03.31.03.981
12916;173069;34.44;005;03.31.03.981
12924;173074;34.44;006;03.31.03.981
12908;173063;34.44;007;03.31.03.981
12900;173069;34.44;008;03.31.04.003
12920;173067;34.44;009;03.31.04.003
12908;173067;34.44;010;03.31.04.003
12912;173058;34.44;011;03.31.04.003
12908;173060;34.44;012;03.31.04.003
12920;173062;34.44;013;03.31.04.003
12904;173056;34.44;014;03.31.04.003
12908;173050;34.44;015;03.31.04.003
12928;173053;34.44;016;03.31.04.003
12936;173045;34.44;017;03.31.04.003
12896;173042;34.44;018;03.31.04.003
12928;173039;34.44;019;03.31.04.003
12904;173043;34.44;020;03.31.04.003
12888;173035;34.44;021;03.31.04.003
12912;173037;34.44;022;03.31.04.014
12940;173027;34.44;023;03.31.04.014
12928;173027;34.44;024;03.31.04.014
12924;173031;34.44;025;03.31.04.101
12888;173032;34.44;026;03.31.04.101
12884;173026;34.44;027;03.31.04.101
12924;173025;34.44;028;03.31.04.101
12912;173024;34.44;029;03.31.04.101
12900;173017;34.44;030;03.31.04.101
12928;173024;34.44;031;03.31.04.101
12920;173023;34.44;032;03.31.04.101
12916;173027;34.44;033;03.31.04.112
12908;173031;34.44;034;03.31.04.112
12904;173022;34.44;035;03.31.04.112
12884;173020;34.44;036;03.31.04.112
12924;173018;34.44;037;03.31.04.112
12916;173020;34.44;038;03.31.04.112
12928;173017;34.44;039;03.31.04.112
12892;173018;34.44;040;03.31.04.112
12928;173016;34.44;041;03.31.04.112
12912;173020;34.44;042;03.31.04.134
12908;173015;34.44;043;03.31.04.134
12908;173021;34.44;044;03.31.04.134
12904;173020;34.44;045;03.31.04.134
12900;173028;34.44;046;03.31.04.134
12900;173026;34.44;047;03.31.04.134
12908;173024;34.44;048;03.31.04.134
12916;173028;34.44;049;03.31.04.134
12944;173029;34.44;050;03.31.04.222
12944;173032;34.44;051;03.31.04.222
12912;173041;34.44;052;03.31.04.222
12892;173041;34.44;053;03.31.04.222
12916;173040;34.44;054;03.31.04.222
12908;173034;34.44;055;03.31.04.233
12896;173042;34.44;056;03.31.04.233
12892;173038;34.44;057;03.31.04.233
12908;173041;34.44;058;03.31.04.233
12916;173041;34.44;059;03.31.04.233
12940;173039;34.44;060;03.31.04.233
12920;173029;34.44;061;03.31.04.233
12900;173032;34.44;062;03.31.04.233
12928;173016;34.44;063;03.31.04.233
12908;173018;34.44;064;03.31.04.233
12916;173001;34.44;065;03.31.04.233
12920;172998;34.44;066;03.31.04.233
12916;172998;34.44;067;03.31.04.233
12912;172995;34.44;068;03.31.04.244
12924;172995;34.44;069;03.31.04.244
12888;172988;34.44;070;03.31.04.244
12960;172988;34.44;071;03.31.04.244
12876;172990;34.44;072;03.31.04.244
12908;172981;34.44;073;03.31.04.244
12908;172980;34.44;074;03.31.04.244
12928;172976;34.44;075;03.31.04.353
12892;172975;34.44;076;03.31.04.353
12904;172975;34.44;077;03.31.04.364
12920;172976;34.44;078;03.31.04.364
12888;172971;34.44;079;03.31.04.364
12928;172969;34.44;080;03.31.04.364
12928;172968;34.44;081;03.31.04.364
12892;172974;34.44;082;03.31.04.364
12892;172974;34.44;083;03.31.04.364
12896;172972;34.44;084;03.31.04.364
12888;172978;34.44;085;03.31.04.364
12928;172975;34.44;086;03.31.04.364
12936;172985;34.44;087;03.31.04.364
12908;172987;34.44;088;03.31.04.364
12916;172991;34.44;089;03.31.04.364
12900;172997;34.44;090;03.31.04.375
12928;173002;34.44;091;03.31.04.375
12908;173003;34.44;092;03.31.04.375
12924;172997;34.44;093;03.31.04.375
12920;172998;34.44;094;03.31.04.386
12920;172999;34.44;095;03.31.04.386
12908;172991;34.44;096;03.31.04.386
12936;173005;34.44;097;03.31.04.386
12928;173006;34.44;098;03.31.04.386
12948;172998;34.44;099;03.31.04.386
12920;173000;34.44;100;03.31.04.474
12908;173005;34.44;101;03.31.04.474
12912;173010;34.44;102;03.31.04.474
12920;173003;34.44;103;03.31.04.474
12928;173021;34.44;104;03.31.04.474
12912;173026;34.44;105;03.31.04.474
12932;173022;34.44;106;03.31.04.474
12916;173023;34.44;107;03.31.04.474
12928;173025;34.44;108;03.31.04.485
12892;173027;34.44;109;03.31.04.485
12916;173034;34.44;110;03.31.04.485
12908;173031;34.44;111;03.31.04.485
12908;173029;34.44;112;03.31.04.485
12900;173033;34.44;113;03.31.04.485
12932;173029;34.44;114;03.31.04.485
12880;173034;34.44;115;03.31.04.485
12912;173031;34.44;116;03.31.04.485
12884;173034;34.44;117;03.31.04.507
12892;173030;34.44;118;03.31.04.507
12904;173027;34.44;119;03.31.04.507
12896;173037;34.44;120;03.31.04.507
12900;173036;34.44;121;03.31.04.507
12912;173028;34.44;122;03.31.04.507
12928;173026;34.44;123;03.31.04.507
12928;173025;34.44;124;03.31.04.507
12920;173033;34.44;125;03.31.04.605
12892;173028;34.44;126;03.31.04.605
12908;173030;34.44;127;03.31.04.605
12912;173027;34.44;128;03.31.04.605
12928;173016;34.44;129;03.31.04.605
12940;173020;34.44;130;03.31.04.605
12908;173018;34.44;131;03.31.04.605
12928;173019;34.44;132;03.31.04.616
12892;173019;34.44;133;03.31.04.616
12892;173023;34.44;134;03.31.04.616
12884;173014;34.44;135;03.31.04.616
12900;173018;34.44;136;03.31.04.616
12928;173014;34.44;137;03.31.04.616
12928;173023;34.44;138;03.31.04.616
12948;173019;34.44;139;03.31.04.627
12928;173022;34.44;140;03.31.04.627
12888;173022;34.44;141;03.31.04.627
12892;173027;34.44;142;03.31.04.627
12920;173021;34.44;143;03.31.04.627
12912;173023;34.44;144;03.31.04.627
12928;173023;34.44;145;03.31.04.627
12892;173026;34.44;146;03.31.04.627
12904;173025;34.44;147;03.31.04.627
12928;173028;34.44;148;03.31.04.627
12944;173023;34.44;149;03.31.04.638
12892;173028;34.44;150;03.31.04.714
12892;173029;34.44;151;03.31.04.714
12916;173040;34.44;152;03.31.04.714
12928;173035;34.44;153;03.31.04.725
12884;173033;34.44;154;03.31.04.725
12924;173038;34.44;155;03.31.04.725
12888;173039;34.44;156;03.31.04.725
12912;173044;34.44;157;03.31.04.725
12904;173036;34.44;158;03.31.04.725
12912;173044;34.44;159;03.31.04.725
12896;173047;34.44;160;03.31.04.725
12912;173048;34.44;161;03.31.04.725
12928;173047;34.44;162;03.31.04.725
12892;173059;34.44;163;03.31.04.725
12916;173057;34.44;164;03.31.04.725
12920;173058;34.44;165;03.31.04.725
12916;173044;34.44;166;03.31.04.736
12928;173059;34.44;167;03.31.04.736
12920;173060;34.44;168;03.31.04.736
12896;173060;34.44;169;03.31.04.736
12912;173060;34.44;170;03.31.04.736
12900;173065;34.44;171;03.31.04.736
12908;173074;34.44;172;03.31.04.736
12892;173067;34.44;173;03.31.04.736
12928;173056;34.44;174;03.31.04.736
12892;173061;34.44;175;03.31.04.857
12916;173056;34.44;176;03.31.04.857
12908;173055;34.44;177;03.31.04.857
12892;173050;34.44;178;03.31.04.857
12916;173048;34.44;179;03.31.04.857
12920;173039;34.44;180;03.31.04.857
12912;173030;34.44;181;03.31.04.857
12908;173019;34.44;182;03.31.04.857
12912;173018;34.44;183;03.31.04.857
12912;173020;34.44;184;03.31.04.857
12892;173013;34.44;185;03.31.04.857
12924;173009;34.44;186;03.31.04.857
12924;173004;34.44;187;03.31.04.868
12924;172993;34.44;188;03.31.04.868
12916;172996;34.44;189;03.31.04.868
12888;172988;34.44;190;03.31.04.868
12928;172988;34.44;191;03.31.04.868
12912;172984;34.44;192;03.31.04.868
12892;172982;34.44;193;03.31.04.868
12884;172984;34.44;194;03.31.04.868
12908;172974;34.44;195;03.31.04.868
12916;172969;34.44;196;03.31.04.868
12908;172974;34.44;197;03.31.04.868
12932;172974;34.44;198;03.31.04.868
12932;172968;34.44;199;03.31.04.868
12896;172971;34.44;200;03.31.04.989
12924;172963;34.44;201;03.31.04.989
12888;172969;34.44;202;03.31.04.989
12916;172978;34.44;203;03.31.04.989
12896;172968;34.44;204;03.31.04.989
12920;172972;34.44;205;03.31.04.989
12932;172969;34.44;206;03.31.04.989
12908;172979;34.44;207;03.31.04.989
12904;172983;34.44;208;03.31.04.989
12904;172989;34.44;209;03.31.05.000
12920;172979;34.44;210;03.31.05.000
12936;172994;34.44;211;03.31.05.000
12920;172989;34.44;212;03.31.05.000
12928;172992;34.44;213;03.31.05.000
12948;172991;34.44;214;03.31.05.000
12944;172996;34.44;215;03.31.05.000
12876;172991;34.44;216;03.31.05.000
12920;172999;34.44;217;03.31.05.000
12904;173001;34.44;218;03.31.05.000
12924;173005;34.44;219;03.31.05.000
12908;173016;34.44;220;03.31.05.000
12912;173007;34.44;221;03.31.05.011
12924;173010;34.44;222;03.31.05.011
12944;173014;34.44;223;03.31.05.011
12944;173017;34.44;224;03.31.05.011
12932;173017;34.44;225;03.31.05.098
12936;173016;34.44;226;03.31.05.098
12920;173021;34.44;227;03.31.05.098
12916;173030;34.44;228;03.31.05.098
12924;173021;34.44;229;03.31.05.098
12952;173027;34.44;230;03.31.05.109
12928;173034;34.44;231;03.31.05.109
12924;173030;34.44;232;03.31.05.109
12932;173038;34.44;233;03.31.05.109
12896;173040;34.44;234;03.31.05.109
12928;173034;34.44;235;03.31.05.109
12920;173037;34.44;236;03.31.05.109
12908;173040;34.44;237;03.31.05.120
12916;173044;34.44;238;03.31.05.120
12928;173041;34.44;239;03.31.05.120
12904;173038;34.44;240;03.31.05.120
12948;173039;34.44;241;03.31.05.120
12928;173033;34.44;242;03.31.05.120
12920;173038;34.44;243;03.31.05.120
12916;173040;34.44;244;03.31.05.120
12944;173036;34.44;245;03.31.05.120
12920;173036;34.44;246;03.31.05.120
12900;173036;34.44;247;03.31.05.131
12944;173048;34.44;248;03.31.05.131
12916;173044;34.44;249;03.31.05.131
12892;173048;34.44;250;03.31.05.219
12920;173043;34.44;251;03.31.05.230
12916;173051;34.44;252;03.31.05.230
12912;173050;34.44;253;03.31.05.230
12920;173052;34.44;254;03.31.05.230
12920;173058;34.44;255;03.31.05.230
12920;173072;34.44;256;03.31.05.230
12920;173067;34.44;257;03.31.05.230
12892;173071;34.44;258;03.31.05.230
12900;173076;34.44;259;03.31.05.230
12912;173076;34.44;260;03.31.05.241
12908;173085;34.44;261;03.31.05.241
12944;173080;34.44;262;03.31.05.241
12920;173088;34.44;263;03.31.05.241
12912;173086;34.44;264;03.31.05.241
12920;173092;34.44;265;03.31.05.241
12928;173089;34.44;266;03.31.05.241
12916;173096;34.44;267;03.31.05.252
12912;173087;34.44;268;03.31.05.263
12924;173088;34.44;269;03.31.05.263
12936;173096;34.44;270;03.31.05.263
12936;173094;34.44;271;03.31.05.263
12932;173100;34.44;272;03.31.05.263
12896;173094;34.44;273;03.31.05.263
12912;173097;34.44;274;03.31.05.263
12896;173109;34.44;275;03.31.05.351
12924;173107;34.44;276;03.31.05.351
12900;173108;34.44;277;03.31.05.351
12916;173098;34.44;278;03.31.05.351
12916;173107;34.44;279;03.31.05.351
12904;173109;34.44;280;03.31.05.351
12904;173115;34.44;281;03.31.05.351
12916;173113;34.44;282;03.31.05.351
12900;173118;34.44;283;03.31.05.351
12892;173121;34.44;284;03.31.05.351
12900;173114;34.44;285;03.31.05.362
12920;173120;34.44;286;03.31.05.362
12908;173123;34.44;287;03.31.05.362
12924;173119;34.44;288;03.31.05.362
12908;173126;34.44;289;03.31.05.362
12892;173124;34.44;290;03.31.05.362
12936;173118;34.44;291;03.31.05.362
12944;173133;34.44;292;03.31.05.362
12912;173124;34.44;293;03.31.05.362
12932;173128;34.44;294;03.31.05.362
12900;173123;34.44;295;03.31.05.362
12924;173118;34.44;296;03.31.05.362
12912;173123;34.44;297;03.31.05.362
12936;173115;34.44;298;03.31.05.373
12948;173112;34.44;299;03.31.05.373
12940;173111;34.44;300;03.31.05.482
12928;173102;34.44;301;03.31.05.482
12916;173090;34.44;302;03.31.05.482
12932;173085;34.44;303;03.31.05.482
12912;173087;34.44;304;03.31.05.482
12920;173078;34.44;305;03.31.05.482
12888;173073;34.44;306;03.31.05.482
12908;173076;34.44;307;03.31.05.493
12916;173064;34.44;308;03.31.05.493
12936;173057;34.44;309;03.31.05.493
12884;173057;34.44;310;03.31.05.493
12908;173060;34.44;311;03.31.05.493
12904;173060;34.44;312;03.31.05.493
12928;173058;34.44;313;03.31.05.493
12908;173053;34.44;314;03.31.05.493
12908;173045;34.44;315;03.31.05.493
12900;173049;34.44;316;03.31.05.493
12900;173054;34.44;317;03.31.05.493
12892;173055;34.44;318;03.31.05.493
12904;173051;34.44;319;03.31.05.493
12892;173054;34.44;320;03.31.05.504
12892;173047;34.44;321;03.31.05.504
12928;173067;34.44;322;03.31.05.504
12916;173064;34.44;323;03.31.05.504
12928;173059;34.44;324;03.31.05.504
12904;173059;34.44;325;03.31.05.613
12924;173059;34.44;326;03.31.05.613
12944;173065;34.44;327;03.31.05.624
12928;173068;34.44;328;03.31.05.624
12928;173072;34.44;329;03.31.05.624
12916;173079;34.44;330;03.31.05.624
12960;173078;34.44;331;03.31.05.624
12892;173082;34.44;332;03.31.05.624
12952;173081;34.44;333;03.31.05.624
12920;173085;34.44;334;03.31.05.624
12920;173094;34.44;335;03.31.05.624
12928;173097;34.44;336;03.31.05.624
12936;173096;34.44;337;03.31.05.624
12936;173100;34.44;338;03.31.05.624
12920;173099;34.44;339;03.31.05.624
12920;173100;34.44;340;03.31.05.635
12944;173098;34.44;341;03.31.05.635
12892;173099;34.44;342;03.31.05.635
12892;173106;34.44;343;03.31.05.635
12916;173106;34.44;344;03.31.05.635
12912;173110;34.44;345;03.31.05.635
12912;173114;34.44;346;03.31.05.635
12896;173113;34.44;347;03.31.05.635
12912;173117;34.44;348;03.31.05.635
12932;173115;34.44;349;03.31.05.635
12908;173116;34.44;350;03.31.05.723
12920;173114;34.44;351;03.31.05.723
12920;173117;34.44;352;03.31.05.723
12900;173115;34.44;353;03.31.05.723
12928;173114;34.44;354;03.31.05.723
12956;173107;34.44;355;03.31.05.723
12904;173117;34.44;356;03.31.05.723
12928;173117;34.44;357;03.31.05.723
12936;173116;34.44;358;03.31.05.723
12920;173115;34.44;359;03.31.05.723
12924;173120;34.44;360;03.31.05.723
12920;173112;34.44;361;03.31.05.723
12912;173118;34.44;362;03.31.05.734
12892;173115;34.44;363;03.31.05.734
12928;173114;34.44;364;03.31.05.734
12884;173119;34.44;365;03.31.05.734
12940;173124;34.44;366;03.31.05.734
12944;173117;34.44;367;03.31.05.734
12916;173123;34.44;368;03.31.05.734
12916;173118;34.44;369;03.31.05.734
12908;173119;34.44;370;03.31.05.734
12928;173126;34.44;371;03.31.05.734
12928;173126;34.44;372;03.31.05.734
12944;173130;34.44;373;03.31.05.734
12932;173127;34.44;374;03.31.05.734
12888;173126;34.44;375;03.31.05.843
12892;173133;34.44;376;03.31.05.843
12900;173130;34.44;377;03.31.05.843
12908;173135;34.44;378;03.31.05.843
12892;173135;34.44;379;03.31.05.843
12920;173125;34.44;380;03.31.05.843
12912;173133;34.44;381;03.31.05.843
12924;173137;34.44;382;03.31.05.843
12928;173139;34.44;383;03.31.05.854
12908;173136;34.44;384;03.31.05.854
12916;173142;34.44;385;03.31.05.854
12920;173145;34.44;386;03.31.05.854
12924;173137;34.44;387;03.31.05.854
12916;173149;34.44;388;03.31.05.854
12936;173141;34.44;389;03.31.05.854
12928;173142;34.44;390;03.31.05.854
12924;173153;34.44;391;03.31.05.854
12916;173148;34.44;392;03.31.05.854
12928;173146;34.44;393;03.31.05.854
12904;173164;34.44;394;03.31.05.854
12904;173166;34.44;395;03.31.05.854
12928;173162;34.44;396;03.31.05.865
12876;173162;34.44;397;03.31.05.865
12924;173160;34.44;398;03.31.05.865
12936;173165;34.44;399;03.31.05.865
12904;173174;34.44;400;03.31.05.975
12924;173174;34.44;401;03.31.05.975
12900;173177;34.44;402;03.31.05.975
12900;173169;34.44;403;03.31.05.975
12920;173182;34.44;404;03.31.05.986
12912;173190;34.44;405;03.31.05.986
12912;173193;34.44;406;03.31.05.986
12920;173196;34.44;407;03.31.05.986
12912;173194;34.44;408;03.31.05.986
12916;173189;34.44;409;03.31.05.986
12892;173196;34.44;410;03.31.05.986
12928;173194;34.44;411;03.31.05.986
12900;173185;34.44;412;03.31.05.986
12892;173187;34.44;413;03.31.05.986
12916;173180;34.44;414;03.31.05.986
12908;173175;34.44;415;03.31.05.986
12900;173172;34.44;416;03.31.05.986
12892;173173;34.44;417;03.31.05.997
12928;173172;34.44;418;03.31.05.997
12932;173168;34.44;419;03.31.05.997
12904;173160;34.44;420;03.31.05.997
12892;173160;34.44;421;03.31.05.997
12924;173154;34.44;422;03.31.05.997
12928;173158;34.44;423;03.31.05.997
12904;173152;34.44;424;03.31.05.997
12916;173152;34.44;425;03.31.06.128
12928;173160;34.44;426;03.31.06.128
12916;173148;34.44;427;03.31.06.128
12920;173146;34.44;428;03.31.06.128
12908;173149;34.44;429;03.31.06.128
12940;173149;34.44;430;03.31.06.128
12904;173144;34.44;431;03.31.06.128
12928;173149;34.44;432;03.31.06.128
12904;173152;34.44;433;03.31.06.128
12924;173149;34.44;434;03.31.06.128
12892;173154;34.44;435;03.31.06.128
12900;173159;34.44;436;03.31.06.139
12892;173161;34.44;437;03.31.06.139
12888;173156;34.44;438;03.31.06.139
12900;173164;34.44;439;03.31.06.139
12904;173161;34.44;440;03.31.06.139
12900;173163;34.44;441;03.31.06.139
12928;173169;34.44;442;03.31.06.139
12888;173175;34.44;443;03.31.06.139
12900;173171;34.44;444;03.31.06.139
12904;173173;34.44;445;03.31.06.139
12920;173179;34.44;446;03.31.06.139
12920;173177;34.44;447;03.31.06.139
12928;173174;34.44;448;03.31.06.139
12948;173183;34.44;449;03.31.06.150
12888;173182;34.44;450;03.31.06.226
12928;173178;34.44;451;03.31.06.226
12944;173175;34.44;452;03.31.06.226
12920;173184;34.44;453;03.31.06.226
12892;173185;34.44;454;03.31.06.226
12888;173184;34.44;455;03.31.06.226
12908;173180;34.44;456;03.31.06.226
12928;173184;34.44;457;03.31.06.226
12912;173180;34.44;458;03.31.06.259
12928;173182;34.44;459;03.31.06.259
12896;173183;34.44;460;03.31.06.259
12928;173188;34.44;461;03.31.06.259
12900;173181;34.44;462;03.31.06.259
12924;173185;34.44;463;03.31.06.259
12892;173186;34.44;464;03.31.06.259
12916;173185;34.44;465;03.31.06.259
12928;173185;34.44;466;03.31.06.259
12920;173189;34.44;467;03.31.06.270
12900;173186;34.44;468;03.31.06.270
12960;173185;34.44;469;03.31.06.270
12924;173185;34.44;470;03.31.06.270
12904;173192;34.44;471;03.31.06.270
12908;173190;34.44;472;03.31.06.270
12932;173187;34.44;473;03.31.06.270
12920;173184;34.44;474;03.31.06.270
12916;173189;34.44;475;03.31.06.347
12928;173183;34.44;476;03.31.06.347
12936;173175;34.44;477;03.31.06.347
12920;173172;34.44;478;03.31.06.347
12920;173185;34.44;479;03.31.06.347
12904;173176;34.44;480;03.31.06.358
12924;173179;34.44;481;03.31.06.358
12932;173174;34.44;482;03.31.06.358
12900;173181;34.44;483;03.31.06.358
12944;173172;34.44;484;03.31.06.358
12892;173178;34.44;485;03.31.06.358
12896;173179;34.44;486;03.31.06.358
12916;173183;34.44;487;03.31.06.358
12928;173183;34.44;488;03.31.06.358
12928;173184;34.44;489;03.31.06.358
12888;173180;34.44;490;03.31.06.358
12932;173189;34.44;491;03.31.06.358
12892;173200;34.44;492;03.31.06.358
12932;173191;34.44;493;03.31.06.369
12936;173197;34.44;494;03.31.06.369
12912;173193;34.44;495;03.31.06.369
12928;173196;34.44;496;03.31.06.369
12892;173203;34.44;497;03.31.06.369
12936;173201;34.44;498;03.31.06.369
12944;173194;34.44;499;03.31.06.369
12928;173201;34.48;500;03.31.06.468
12892;173204;34.48;501;03.31.06.479
12920;173195;34.48;502;03.31.06.479
12936;173201;34.48;503;03.31.06.479
12900;173202;34.48;504;03.31.06.479
12916;173203;34.48;505;03.31.06.479
12928;173195;34.48;506;03.31.06.479
12960;173202;34.48;507;03.31.06.479
12908;173206;34.48;508;03.31.06.479
12900;173201;34.48;509;03.31.06.479
12860;173200;34.48;510;03.31.06.479
12908;173210;34.48;511;03.31.06.479
12936;173207;34.48;512;03.31.06.479
12928;173205;34.48;513;03.31.06.479
12908;173207;34.48;514;03.31.06.490
12932;173208;34.48;515;03.31.06.490
12884;173211;34.48;516;03.31.06.490
12908;173209;34.48;517;03.31.06.490
12924;173214;34.48;518;03.31.06.490
12928;173211;34.48;519;03.31.06.490
12908;173220;34.48;520;03.31.06.490
12900;173220;34.48;521;03.31.06.490
12908;173227;34.48;522;03.31.06.490
12916;173223;34.48;523;03.31.06.490
12960;173217;34.48;524;03.31.06.490
12908;173215;34.48;525;03.31.06.599
12928;173222;34.48;526;03.31.06.599
12924;173214;34.48;527;03.31.06.599
12908;173217;34.48;528;03.31.06.599
12924;173213;34.48;529;03.31.06.599
12908;173216;34.48;530;03.31.06.599
12912;173212;34.48;531;03.31.06.599
12904;173199;34.48;532;03.31.06.599
12928;173195;34.48;533;03.31.06.632
12924;173189;34.48;534;03.31.06.632
12908;173181;34.48;535;03.31.06.632
12912;173179;34.48;536;03.31.06.632
12884;173178;34.48;537;03.31.06.632
12892;173166;34.48;538;03.31.06.632
12928;173160;34.48;539;03.31.06.632
12888;173160;34.48;540;03.31.06.632
12908;173165;34.48;541;03.31.06.632
12924;173150;34.48;542;03.31.06.665
12892;173153;34.48;543;03.31.06.665
12944;173151;34.48;544;03.31.06.665
12892;173149;34.48;545;03.31.06.665
12928;173148;34.48;546;03.31.06.665
12908;173144;34.48;547;03.31.06.665
12932;173144;34.48;548;03.31.06.665
12920;173142;34.48;549;03.31.06.665
12904;173145;34.44;550;03.31.06.720
12892;173137;34.44;551;03.31.06.720
12904;173135;34.44;552;03.31.06.720
12924;173134;34.44;553;03.31.06.720
12896;173131;34.44;554;03.31.06.720
12920;173136;34.44;555;03.31.06.720
12924;173129;34.44;556;03.31.06.720
12908;173135;34.44;557;03.31.06.731
12912;173136;34.44;558;03.31.06.731
12908;173125;34.44;559;03.31.06.731
12920;173136;34.44;560;03.31.06.731
12916;173138;34.44;561;03.31.06.731
12892;173138;34.44;562;03.31.06.731
12904;173143;34.44;563;03.31.06.731
12908;173139;34.44;564;03.31.06.731
12928;173147;34.44;565;03.31.06.731
12936;173146;34.44;566;03.31.06.731
12928;173142;34.44;567;03.31.06.753
12904;173148;34.44;568;03.31.06.753
12888;173143;34.44;569;03.31.06.753
12916;173146;34.44;570;03.31.06.753
12908;173147;34.44;571;03.31.06.753
12908;173153;34.44;572;03.31.06.753
12912;173156;34.44;573;03.31.06.753
12904;173147;34.44;574;03.31.06.764
12904;173153;34.44;575;03.31.06.841
12900;173160;34.44;576;03.31.06.841
12912;173154;34.44;577;03.31.06.841
12916;173151;34.44;578;03.31.06.852
12892;173156;34.44;579;03.31.06.852
12904;173156;34.44;580;03.31.06.852
12924;173155;34.44;581;03.31.06.852
12928;173159;34.44;582;03.31.06.852
12916;173153;34.44;583;03.31.06.852
12928;173155;34.44;584;03.31.06.852
12900;173156;34.44;585;03.31.06.852
12912;173156;34.44;586;03.31.06.852
12896;173155;34.44;587;03.31.06.852
12892;173163;34.44;588;03.31.06.852
12924;173162;34.44;589;03.31.06.852
12908;173159;34.44;590;03.31.06.852
12896;173161;34.44;591;03.31.06.863
12928;173154;34.44;592;03.31.06.863
12904;173152;34.44;593;03.31.06.863
12944;173163;34.44;594;03.31.06.863
12944;173161;34.44;595;03.31.06.863
12904;173157;34.44;596;03.31.06.863
12944;173168;34.44;597;03.31.06.863
12932;173161;34.44;598;03.31.06.863
12916;173165;34.44;599;03.31.06.863
12904;173166;34.44;600;03.31.06.983
12900;173167;34.44;601;03.31.06.983
12896;173160;34.44;602;03.31.06.983
12924;173172;34.44;603;03.31.06.983
12892;173171;34.44;604;03.31.06.983
12904;173170;34.44;605;03.31.06.983
12920;173167;34.44;606;03.31.06.983
12900;173170;34.44;607;03.31.06.983
12916;173172;34.44;608;03.31.06.983
12912;173179;34.44;609;03.31.06.983
12920;173173;34.44;610;03.31.06.983
12916;173176;34.44;611;03.31.06.983
12924;173167;34.44;612;03.31.06.994
12900;173176;34.44;613;03.31.06.994
12904;173180;34.44;614;03.31.06.994
12932;173180;34.44;615;03.31.06.994
12932;173179;34.44;616;03.31.06.994
12900;173184;34.44;617;03.31.06.994
12916;173178;34.44;618;03.31.06.994
12908;173187;34.44;619;03.31.06.994
12932;173183;34.44;620;03.31.06.994
12932;173184;34.44;621;03.31.06.994
12928;173189;34.44;622;03.31.06.994
12944;173186;34.44;623;03.31.06.994
12908;173183;34.44;624;03.31.06.994
12872;173182;34.44;625;03.31.07.115
12928;173186;34.44;626;03.31.07.115
12932;173193;34.44;627;03.31.07.115
12896;173194;34.44;628;03.31.07.115
12920;173195;34.44;629;03.31.07.115
12904;173196;34.44;630;03.31.07.115
12904;173192;34.44;631;03.31.07.115
12928;173185;34.44;632;03.31.07.115
12932;173190;34.44;633;03.31.07.126
12904;173192;34.44;634;03.31.07.126
12900;173196;34.44;635;03.31.07.126
12928;173193;34.44;636;03.31.07.126
12924;173197;34.44;637;03.31.07.126
12912;173197;34.44;638;03.31.07.126
12904;173202;34.44;639;03.31.07.126
12924;173192;34.44;640;03.31.07.126
12912;173202;34.44;641;03.31.07.126
12944;173195;34.44;642;03.31.07.137
12928;173195;34.44;643;03.31.07.137
12912;173187;34.44;644;03.31.07.137
12940;173188;34.44;645;03.31.07.137
12916;173182;34.44;646;03.31.07.137
12920;173178;34.44;647;03.31.07.137
12928;173164;34.44;648;03.31.07.137
12948;173164;34.44;649;03.31.07.137
12928;173158;34.44;650;03.31.07.247
12920;173150;34.44;651;03.31.07.247
12916;173151;34.44;652;03.31.07.247
12924;173145;34.44;653;03.31.07.247
12892;173147;34.44;654;03.31.07.247
12924;173139;34.44;655;03.31.07.258
12932;173139;34.44;656;03.31.07.258
12892;173137;34.44;657;03.31.07.258
12924;173134;34.44;658;03.31.07.258
12912;173136;34.44;659;03.31.07.258
12908;173135;34.44;660;03.31.07.258
12904;173138;34.44;661;03.31.07.258
12928;173134;34.44;662;03.31.07.258
12920;173134;34.44;663;03.31.07.258
12904;173135;34.44;664;03.31.07.258
12916;173130;34.44;665;03.31.07.258
12920;173129;34.44;666;03.31.07.258
12928;173131;34.44;667;03.31.07.258
12904;173131;34.44;668;03.31.07.269
12928;173124;34.44;669;03.31.07.269
12892;173127;34.44;670;03.31.07.269
12908;173129;34.44;671;03.31.07.269
12908;173131;34.44;672;03.31.07.269
12912;173134;34.44;673;03.31.07.269
12920;173133;34.44;674;03.31.07.269
12912;173135;34.44;675;03.31.07.345
12908;173136;34.44;676;03.31.07.356
12916;173133;34.44;677;03.31.07.356
12912;173132;34.44;678;03.31.07.356
12900;173137;34.44;679;03.31.07.356
12924;173140;34.44;680;03.31.07.356
12928;173134;34.44;681;03.31.07.356
12936;173146;34.44;682;03.31.07.356
12888;173146;34.44;683;03.31.07.356
12928;173152;34.44;684;03.31.07.356
12928;173144;34.44;685;03.31.07.367
12932;173152;34.44;686;03.31.07.367
12924;173157;34.44;687;03.31.07.367
12916;173156;34.44;688;03.31.07.367
12892;173156;34.44;689;03.31.07.367
12952;173162;34.44;690;03.31.07.367
12944;173151;34.44;691;03.31.07.367
12908;173159;34.44;692;03.31.07.378
12940;173160;34.44;693;03.31.07.389
12896;173160;34.44;694;03.31.07.389
12944;173155;34.44;695;03.31.07.389
12912;173165;34.44;696;03.31.07.389
12900;173157;34.44;697;03.31.07.389
12916;173158;34.44;698;03.31.07.389
12928;173160;34.44;699;03.31.07.389
12912;173155;34.44;700;03.31.07.477
12892;173151;34.44;701;03.31.07.477
12932;173155;34.44;702;03.31.07.477
12908;173156;34.44;703;03.31.07.477
12904;173152;34.44;704;03.31.07.477
12916;173159;34.44;705;03.31.07.477
12912;173148;34.44;706;03.31.07.477
12916;173150;34.44;707;03.31.07.477
12924;173152;34.44;708;03.31.07.477
12912;173151;34.44;709;03.31.07.477
12932;173147;34.44;710;03.31.07.477
12924;173146;34.44;711;03.31.07.488
12908;173144;34.44;712;03.31.07.488
12932;173145;34.44;713;03.31.07.488
12916;173152;34.44;714;03.31.07.488
12920;173153;34.44;715;03.31.07.488
12924;173155;34.44;716;03.31.07.488
12928;173155;34.44;717;03.31.07.488
12892;173150;34.44;718;03.31.07.488
12916;173165;34.44;719;03.31.07.488
12860;173167;34.44;720;03.31.07.488
12904;173168;34.44;721;03.31.07.488
12904;173165;34.44;722;03.31.07.488
12944;173171;34.44;723;03.31.07.488
12944;173172;34.44;724;03.31.07.499
12904;173178;34.44;725;03.31.07.608
12916;173184;34.44;726;03.31.07.608
12912;173181;34.44;727;03.31.07.608
12892;173188;34.44;728;03.31.07.608
12912;173184;34.44;729;03.31.07.608
12916;173198;34.44;730;03.31.07.608
12948;173193;34.44;731;03.31.07.608
12936;173197;34.44;732;03.31.07.619
12908;173202;34.44;733;03.31.07.619
12912;173205;34.44;734;03.31.07.619
12920;173203;34.44;735;03.31.07.619
12920;173200;34.44;736;03.31.07.619
12904;173206;34.44;737;03.31.07.619
12916;173220;34.44;738;03.31.07.619
12904;173221;34.44;739;03.31.07.619
12884;173215;34.44;740;03.31.07.619
12908;173229;34.44;741;03.31.07.619
12928;173233;34.44;742;03.31.07.619
12928;173228;34.44;743;03.31.07.619
12908;173223;34.44;744;03.31.07.630
12936;173237;34.44;745;03.31.07.630
12904;173238;34.44;746;03.31.07.630
12924;173240;34.44;747;03.31.07.630
12892;173240;34.44;748;03.31.07.630
12912;173243;34.44;749;03.31.07.630
12928;173240;34.44;750;03.31.07.718
12896;173245;34.44;751;03.31.07.718
12888;173249;34.44;752;03.31.07.718
12888;173248;34.44;753;03.31.07.729
12904;173242;34.44;754;03.31.07.729
12896;173235;34.44;755;03.31.07.729
12916;173235;34.44;756;03.31.07.729
12916;173233;34.44;757;03.31.07.729
12892;173224;34.44;758;03.31.07.751
12904;173221;34.44;759;03.31.07.751
12896;173217;34.44;760;03.31.07.751
12904;173211;34.44;761;03.31.07.761
12916;173206;34.44;762;03.31.07.761
12908;173204;34.44;763;03.31.07.761
12928;173198;34.44;764;03.31.07.761
12928;173185;34.44;765;03.31.07.761
12920;173183;34.44;766;03.31.07.761
12904;173180;34.44;767;03.31.07.761
12908;173180;34.44;768;03.31.07.761
12920;173168;34.44;769;03.31.07.761
12920;173164;34.44;770;03.31.07.761
12916;173165;34.44;771;03.31.07.761
12892;173162;34.44;772;03.31.07.761
12908;173157;34.44;773;03.31.07.761
12936;173157;34.44;774;03.31.07.772
12928;173148;34.44;775;03.31.07.849
12912;173152;34.44;776;03.31.07.849
12904;173148;34.44;777;03.31.07.849
12908;173160;34.44;778;03.31.07.849
12892;173156;34.44;779;03.31.07.849
12904;173154;34.44;780;03.31.07.849
12908;173155;34.44;781;03.31.07.849
12904;173152;34.44;782;03.31.07.849
12912;173149;34.44;783;03.31.07.849
12908;173152;34.44;784;03.31.07.849
12888;173160;34.44;785;03.31.07.849
12960;173158;34.44;786;03.31.07.849
12892;173160;34.44;787;03.31.07.860
12892;173155;34.44;788;03.31.07.860
12900;173161;34.44;789;03.31.07.860
12908;173169;34.44;790;03.31.07.860
12912;173168;34.44;791;03.31.07.860
12896;173170;34.44;792;03.31.07.860
12920;173175;34.44;793;03.31.07.860
12892;173177;34.44;794;03.31.07.860
12928;173181;34.44;795;03.31.07.860
12912;173186;34.44;796;03.31.07.860
12928;173195;34.44;797;03.31.07.860
12908;173195;34.44;798;03.31.07.860
12920;173193;34.44;799;03.31.07.860
12896;173189;34.44;800;03.31.07.970
12892;173183;34.44;801;03.31.07.970
12928;173194;34.44;802;03.31.07.970
12884;173204;34.44;803;03.31.07.970
12944;173207;34.44;804;03.31.07.970
12912;173199;34.44;805;03.31.07.970
12904;173200;34.44;806;03.31.07.970
12916;173209;34.44;807;03.31.07.970
12876;173208;34.44;808;03.31.07.981
12904;173206;34.44;809;03.31.07.981
12908;173213;34.44;810;03.31.07.981
12912;173205;34.44;811;03.31.07.981
12932;173219;34.44;812;03.31.07.981
12916;173214;34.44;813;03.31.07.981
12944;173218;34.44;814;03.31.07.981
12916;173216;34.44;815;03.31.07.981
12892;173222;34.44;816;03.31.07.981
12896;173225;34.44;817;03.31.07.981
12908;173229;34.44;818;03.31.07.981
12912;173235;34.44;819;03.31.07.981
12920;173230;34.44;820;03.31.07.981
12936;173229;34.44;821;03.31.07.992
12908;173228;34.44;822;03.31.07.992
12928;173232;34.44;823;03.31.07.992
12920;173243;34.44;824;03.31.07.992
12928;173233;34.44;825;03.31.08.102
12892;173236;34.44;826;03.31.08.102
12892;173238;34.44;827;03.31.08.102
12928;173232;34.44;828;03.31.08.102
12916;173235;34.44;829;03.31.08.113
12936;173236;34.44;830;03.31.08.113
12928;173235;34.44;831;03.31.08.113
12860;173230;34.44;832;03.31.08.113
12904;173231;34.44;833;03.31.08.113
12892;173233;34.44;834;03.31.08.113
12928;173232;34.44;835;03.31.08.113
12928;173239;34.44;836;03.31.08.113
12904;173241;34.44;837;03.31.08.113
12900;173241;34.44;838;03.31.08.113
12928;173237;34.44;839;03.31.08.113
12912;173238;34.44;840;03.31.08.113
12912;173242;34.44;841;03.31.08.113
12924;173243;34.44;842;03.31.08.124
12920;173249;34.44;843;03.31.08.124
12912;173248;34.44;844;03.31.08.124
12912;173239;34.44;845;03.31.08.124
12912;173257;34.44;846;03.31.08.124
12892;173260;34.44;847;03.31.08.134
12892;173264;34.44;848;03.31.08.134
12936;173266;34.44;849;03.31.08.134
12928;173269;34.44;850;03.31.08.255
12952;173271;34.44;851;03.31.08.255
12936;173272;34.44;852;03.31.08.255
12904;173272;34.44;853;03.31.08.255
12928;173284;34.44;854;03.31.08.255
12912;173283;34.44;855;03.31.08.255
12916;173277;34.44;856;03.31.08.255
12900;173281;34.44;857;03.31.08.255
12920;173287;34.44;858;03.31.08.266
12908;173286;34.44;859;03.31.08.266
12916;173290;34.44;860;03.31.08.266
12928;173288;34.44;861;03.31.08.266
12900;173277;34.44;862;03.31.08.266
12920;173274;34.44;863;03.31.08.266
12924;173269;34.44;864;03.31.08.266
12928;173256;34.44;865;03.31.08.266
12904;173263;34.44;866;03.31.08.266
12932;173251;34.44;867;03.31.08.288
12928;173244;34.44;868;03.31.08.288
12920;173241;34.44;869;03.31.08.288
12928;173237;34.44;870;03.31.08.288
12904;173229;34.44;871;03.31.08.288
12896;173225;34.44;872;03.31.08.288
12912;173226;34.44;873;03.31.08.288
12928;173220;34.44;874;03.31.08.288
12908;173218;34.44;875;03.31.08.354
12928;173214;34.44;876;03.31.08.354
12912;173207;34.44;877;03.31.08.354
12892;173204;34.44;878;03.31.08.354
12916;173201;34.44;879;03.31.08.354
12920;173194;34.44;880;03.31.08.354
12908;173207;34.44;881;03.31.08.354
12932;173206;34.44;882;03.31.08.354
12920;173201;34.44;883;03.31.08.376
12928;173195;34.44;884;03.31.08.376
12924;173200;34.44;885;03.31.08.376
12908;173194;34.44;886;03.31.08.376
12920;173201;34.44;887;03.31.08.376
12932;173201;34.44;888;03.31.08.376
12916;173195;34.44;889;03.31.08.376
12932;173194;34.44;890;03.31.08.376
12928;173201;34.44;891;03.31.08.376
12908;173199;34.44;892;03.31.08.376
12940;173201;34.44;893;03.31.08.387
12892;173205;34.44;894;03.31.08.387
12928;173210;34.44;895;03.31.08.387
12928;173215;34.44;896;03.31.08.387
12944;173211;34.44;897;03.31.08.387
12912;173202;34.44;898;03.31.08.387
12960;173215;34.44;899;03.31.08.387
12904;173215;34.44;900;03.31.08.475
12936;173209;34.44;901;03.31.08.475
12916;173220;34.44;902;03.31.08.475
12904;173222;34.44;903;03.31.08.475
12924;173227;34.44;904;03.31.08.475
12928;173222;34.44;905;03.31.08.475
12896;173225;34.44;906;03.31.08.475
12928;173230;34.44;907;03.31.08.486
12928;173228;34.44;908;03.31.08.486
12944;173237;34.44;909;03.31.08.486
12916;173236;34.44;910;03.31.08.486
12912;173239;34.44;911;03.31.08.486
12916;173240;34.44;912;03.31.08.486
12908;173244;34.44;913;03.31.08.486
12904;173241;34.44;914;03.31.08.486
12916;173246;34.44;915;03.31.08.486
12892;173255;34.44;916;03.31.08.486
12888;173267;34.44;917;03.31.08.486
12928;173253;34.44;918;03.31.08.486
12912;173258;34.44;919;03.31.08.497
12944;173267;34.44;920;03.31.08.497
12920;173271;34.44;921;03.31.08.497
12888;173272;34.44;922;03.31.08.497
12932;173264;34.44;923;03.31.08.497
12900;173269;34.44;924;03.31.08.497
12904;173275;34.44;925;03.31.08.595
12900;173282;34.44;926;03.31.08.595
12928;173280;34.44;927;03.31.08.595
12880;173278;34.44;928;03.31.08.606
12900;173281;34.44;929;03.31.08.606
12904;173279;34.44;930;03.31.08.606
12932;173270;34.44;931;03.31.08.606
12912;173283;34.44;932;03.31.08.606
12916;173276;34.44;933;03.31.08.606
12920;173280;34.44;934;03.31.08.606
12924;173287;34.44;935;03.31.08.606
12908;173275;34.44;936;03.31.08.606
12892;173281;34.44;937;03.31.08.606
12912;173280;34.44;938;03.31.08.606
12916;173281;34.44;939;03.31.08.606
12916;173276;34.44;940;03.31.08.606
12904;173279;34.44;941;03.31.08.617
12908;173283;34.44;942;03.31.08.617
12920;173284;34.44;943;03.31.08.617
12916;173280;34.44;944;03.31.08.617
12900;173277;34.44;945;03.31.08.617
12912;173285;34.44;946;03.31.08.617
12908;173286;34.44;947;03.31.08.617
12932;173283;34.44;948;03.31.08.617
12908;173283;34.44;949;03.31.08.617
12892;173288;34.48;950;03.31.08.736
12892;173300;34.48;951;03.31.08.736
12892;173296;34.48;952;03.31.08.736
12912;173291;34.48;953;03.31.08.736
12920;173295;34.48;954;03.31.08.736
12920;173296;34.48;955;03.31.08.736
12924;173294;34.48;956;03.31.08.736
12928;173296;34.48;957;03.31.08.736
12908;173291;34.48;958;03.31.08.736
12904;173290;34.48;959;03.31.08.736
12892;173300;34.48;960;03.31.08.747
12916;173300;34.48;961;03.31.08.747
12892;173298;34.48;962;03.31.08.747
12900;173295;34.48;963;03.31.08.747
12912;173296;34.48;964;03.31.08.747
12924;173301;34.48;965;03.31.08.747
12892;173302;34.48;966;03.31.08.747
12952;173300;34.48;967;03.31.08.747
12912;173295;34.48;968;03.31.08.747
12900;173286;34.48;969;03.31.08.747
12920;173284;34.48;970;03.31.08.747
12940;173278;34.48;971;03.31.08.747
12892;173278;34.48;972;03.31.08.747
12932;173279;34.48;973;03.31.08.758
12936;173270;34.48;974;03.31.08.758
12896;173261;34.48;975;03.31.08.846
12916;173259;34.48;976;03.31.08.846
12936;173249;34.48;977;03.31.08.846
12912;173239;34.48;978;03.31.08.846
12924;173249;34.48;979;03.31.08.846
12940;173244;34.48;980;03.31.08.846
12912;173232;34.48;981;03.31.08.856
12928;173235;34.48;982;03.31.08.856
12912;173231;34.48;983;03.31.08.856
12916;173224;34.48;984;03.31.08.856
12908;173228;34.48;985;03.31.08.856
12916;173226;34.48;986;03.31.08.856
12912;173227;34.48;987;03.31.08.856
12944;173223;34.48;988;03.31.08.856
12928;173218;34.48;989;03.31.08.856
12928;173217;34.48;990;03.31.08.867
12928;173212;34.48;991;03.31.08.867
12892;173213;34.48;992;03.31.08.867
12904;173209;34.48;993;03.31.08.867
12912;173210;34.48;994;03.31.08.867
12920;173218;34.48;995;03.31.08.867
12908;173215;34.48;996;03.31.08.867
12888;173221;34.48;997;03.31.08.867
12908;173224;34.48;998;03.31.08.878
12932;173220;34.48;999;03.31.08.878
12920;173234;34.48;000;03.31.08.999
12892;173229;34.48;001;03.31.09.010
12928;173232;34.48;002;03.31.09.010
12928;173234;34.48;003;03.31.09.010
12928;173244;34.48;004;03.31.09.010
12904;173244;34.48;005;03.31.09.010
12892;173246;34.48;006;03.31.09.010
12920;173249;34.48;007;03.31.09.010
12892;173258;34.48;008;03.31.09.010
12924;173257;34.48;009;03.31.09.010
12884;173264;34.48;010;03.31.09.010
12920;173270;34.48;011;03.31.09.010
12888;173269;34.48;012;03.31.09.010
12892;173267;34.48;013;03.31.09.010
12908;173266;34.48;014;03.31.09.021
12928;173270;34.48;015;03.31.09.021
12916;173273;34.48;016;03.31.09.021
12924;173263;34.48;017;03.31.09.021
12908;173265;34.48;018;03.31.09.021
12908;173275;34.48;019;03.31.09.021
12892;173276;34.48;020;03.31.09.021
12912;173272;34.48;021;03.31.09.021
12892;173267;34.48;022;03.31.09.021
12944;173263;34.48;023;03.31.09.021
12948;173264;34.48;024;03.31.09.021
12912;173266;34.48;025;03.31.09.098
12912;173266;34.48;026;03.31.09.098
12944;173260;34.48;027;03.31.09.098
12928;173270;34.48;028;03.31.09.098
12916;173259;34.48;029;03.31.09.098
12924;173259;34.48;030;03.31.09.098
12924;173259;34.48;031;03.31.09.098
12912;173263;34.48;032;03.31.09.098
12892;173262;34.48;033;03.31.09.098
12928;173260;34.48;034;03.31.09.098
12900;173258;34.48;035;03.31.09.098
12944;173262;34.48;036;03.31.09.109
12920;173261;34.48;037;03.31.09.109
12932;173260;34.48;038;03.31.09.109
12932;173260;34.48;039;03.31.09.109
12924;173263;34.48;040;03.31.09.109
12908;173258;34.48;041;03.31.09.109
12916;173268;34.48;042;03.31.09.109
12916;173264;34.48;043;03.31.09.109
12912;173267;34.48;044;03.31.09.109
12912;173264;34.48;045;03.31.09.109
12892;173261;34.48;046;03.31.09.109
12928;173268;34.48;047;03.31.09.109
12892;173268;34.48;048;03.31.09.109
12928;173267;34.48;049;03.31.09.109
12912;173269;34.48;050;03.31.09.240
12920;173262;34.48;051;03.31.09.240
12932;173262;34.48;052;03.31.09.240
12888;173266;34.48;053;03.31.09.240
12904;173260;34.48;054;03.31.09.240
12900;173256;34.48;055;03.31.09.240
12884;173263;34.48;056;03.31.09.251
12912;173268;34.48;057;03.31.09.251
12884;173264;34.48;058;03.31.09.251
12916;173270;34.48;059;03.31.09.251
12904;173262;34.48;060;03.31.09.251
12892;173267;34.48;061;03.31.09.251
12928;173274;34.48;062;03.31.09.251
12912;173272;34.48;063;03.31.09.251
12904;173268;34.48;064;03.31.09.251
12936;173278;34.48;065;03.31.09.251
12928;173276;34.48;066;03.31.09.251
12928;173272;34.48;067;03.31.09.251
12928;173280;34.48;068;03.31.09.251
12928;173281;34.48;069;03.31.09.262
12904;173275;34.48;070;03.31.09.262
12912;173276;34.48;071;03.31.09.262
12920;173272;34.48;072;03.31.09.262
12928;173274;34.48;073;03.31.09.262
12920;173268;34.48;074;03.31.09.262
12892;173277;34.48;075;03.31.09.372
12920;173271;34.48;076;03.31.09.372
12924;173263;34.48;077;03.31.09.372
12908;173245;34.48;078;03.31.09.383
12900;173237;34.48;079;03.31.09.383
12928;173237;34.48;080;03.31.09.383
12916;173232;34.48;081;03.31.09.383
12912;173224;34.48;082;03.31.09.383
12892;173217;34.48;083;03.31.09.383
12904;173207;34.48;084;03.31.09.383
12928;173213;34.48;085;03.31.09.383
12916;173202;34.48;086;03.31.09.383
12936;173202;34.48;087;03.31.09.383
12944;173192;34.48;088;03.31.09.383
12908;173183;34.48;089;03.31.09.383
12928;173182;34.48;090;03.31.09.383
12892;173182;34.48;091;03.31.09.393
12928;173184;34.48;092;03.31.09.393
12892;173179;34.48;093;03.31.09.393
12900;173180;34.48;094;03.31.09.393
12928;173179;34.48;095;03.31.09.393
12916;173185;34.48;096;03.31.09.393
12924;173177;34.48;097;03.31.09.393
12916;173171;34.48;098;03.31.09.393
12920;173181;34.48;099;03.31.09.393
12928;173180;34.44;100;03.31.09.481
12920;173174;34.44;101;03.31.09.481
12904;173178;34.44;102;03.31.09.481
12892;173176;34.44;103;03.31.09.481
12924;173165;34.44;104;03.31.09.481
12916;173185;34.44;105;03.31.09.481
12904;173183;34.44;106;03.31.09.481
12948;173178;34.44;107;03.31.09.481
12892;173183;34.44;108;03.31.09.481
12932;173172;34.44;109;03.31.09.481
12944;173183;34.44;110;03.31.09.481
12920;173180;34.44;111;03.31.09.481
12912;173180;34.44;112;03.31.09.481
12932;173188;34.44;113;03.31.09.492
12940;173191;34.44;114;03.31.09.492
12928;173192;34.44;115;03.31.09.492
12908;173190;34.44;116;03.31.09.492
12944;173190;34.44;117;03.31.09.514
12928;173192;34.44;118;03.31.09.514
12896;173193;34.44;119;03.31.09.514
12924;173189;34.44;120;03.31.09.514
12912;173194;34.44;121;03.31.09.514
12916;173188;34.44;122;03.31.09.514
12940;173192;34.44;123;03.31.09.514
12940;173188;34.44;124;03.31.09.514
12896;173186;34.44;125;03.31.09.602
12904;173182;34.44;126;03.31.09.602
12908;173193;34.44;127;03.31.09.602
12892;173183;34.44;128;03.31.09.602
12908;173193;34.44;129;03.31.09.602
12924;173199;34.44;130;03.31.09.602
12924;173193;34.44;131;03.31.09.602
12908;173181;34.44;132;03.31.09.602
12920;173198;34.44;133;03.31.09.602
12920;173188;34.44;134;03.31.09.613
12928;173193;34.44;135;03.31.09.613
12928;173185;34.44;136;03.31.09.613
12892;173193;34.44;137;03.31.09.613
12876;173196;34.44;138;03.31.09.613
12912;173192;34.44;139;03.31.09.613
12932;173187;34.44;140;03.31.09.613
12892;173195;34.44;141;03.31.09.613
12912;173191;34.44;142;03.31.09.613
12880;173191;34.44;143;03.31.09.613
12908;173190;34.44;144;03.31.09.613
12928;173193;34.44;145;03.31.09.613
12884;173193;34.44;146;03.31.09.613
12928;173189;34.44;147;03.31.09.624
12952;173194;34.44;148;03.31.09.624
12936;173198;34.44;149;03.31.09.624
12928;173194;34.48;150;03.31.09.734
12904;173194;34.48;151;03.31.09.734
12908;173191;34.48;152;03.31.09.734
12904;173196;34.48;153;03.31.09.734
12928;173197;34.48;154;03.31.09.734
12900;173203;34.48;155;03.31.09.745
12936;173202;34.48;156;03.31.09.745
12884;173201;34.48;157;03.31.09.745
12944;173205;34.48;158;03.31.09.745
12928;173204;34.48;159;03.31.09.745
12908;173205;34.48;160;03.31.09.745
12928;173195;34.48;161;03.31.09.745
12900;173206;34.48;162;03.31.09.745
12888;173215;34.48;163;03.31.09.745
12916;173210;34.48;164;03.31.09.745
12928;173222;34.48;165;03.31.09.756
12924;173216;34.48;166;03.31.09.756
12928;173218;34.48;167;03.31.09.756
12900;173216;34.48;168;03.31.09.756
12944;173213;34.48;169;03.31.09.756
12908;173223;34.48;170;03.31.09.756
12928;173220;34.48;171;03.31.09.756
12920;173231;34.48;172;03.31.09.756
12928;173226;34.48;173;03.31.09.756
12920;173223;34.48;174;03.31.09.756
12916;173223;34.48;175;03.31.09.865
12908;173227;34.48;176;03.31.09.876
12920;173231;34.48;177;03.31.09.876
12904;173231;34.48;178;03.31.09.876
12908;173226;34.48;179;03.31.09.876
12916;173237;34.48;180;03.31.09.876
12900;173234;34.48;181;03.31.09.876
12928;173230;34.48;182;03.31.09.876
12932;173222;34.48;183;03.31.09.876
12892;173224;34.48;184;03.31.09.876
12916;173217;34.48;185;03.31.09.876
12916;173222;34.48;186;03.31.09.876
12920;173213;34.48;187;03.31.09.876
12900;173211;34.48;188;03.31.09.876
12924;173206;34.48;189;03.31.09.887
12908;173203;34.48;190;03.31.09.887
12912;173202;34.48;191;03.31.09.887
12916;173199;34.48;192;03.31.09.887
12908;173193;34.48;193;03.31.09.887
12920;173190;34.48;194;03.31.09.887
12904;173184;34.48;195;03.31.09.887
12912;173182;34.48;196;03.31.09.887
12888;173176;34.48;197;03.31.09.887
12916;173175;34.48;198;03.31.09.887
12936;173170;34.48;199;03.31.09.887
12928;173167;34.44;200;03.31.09.975
12912;173161;34.44;201;03.31.09.975
12924;173156;34.44;202;03.31.09.975
12892;173147;34.44;203;03.31.09.975
12940;173155;34.44;204;03.31.09.975
12920;173154;34.44;205;03.31.09.975
12916;173151;34.44;206;03.31.09.975
12936;173145;34.44;207;03.31.09.975
12936;173152;34.44;208;03.31.09.986
12928;173147;34.44;209;03.31.09.986
12892;173147;34.44;210;03.31.09.986
12928;173154;34.44;211;03.31.09.986
12932;173157;34.44;212;03.31.09.986
12908;173158;34.44;213;03.31.09.986
12928;173159;34.44;214;03.31.09.986
12916;173160;34.44;215;03.31.09.986
12924;173156;34.44;216;03.31.09.986
12900;173156;34.44;217;03.31.10.008
12876;173159;34.44;218;03.31.10.008
12928;173169;34.44;219;03.31.10.008
12936;173165;34.44;220;03.31.10.008
12928;173159;34.44;221;03.31.10.008
12900;173162;34.44;222;03.31.10.008
12944;173166;34.44;223;03.31.10.008
12904;173158;34.44;224;03.31.10.008
12916;173155;34.44;225;03.31.10.096
12908;173164;34.44;226;03.31.10.096
12912;173165;34.44;227;03.31.10.096
12892;173168;34.44;228;03.31.10.096
12916;173160;34.44;229;03.31.10.096
12916;173157;34.44;230;03.31.10.096
12920;173160;34.44;231;03.31.10.096
12924;173155;34.44;232;03.31.10.107
12908;173144;34.44;233;03.31.10.107
12892;173152;34.44;234;03.31.10.107
12928;173156;34.44;235;03.31.10.107
12900;173163;34.44;236;03.31.10.107
12900;173159;34.44;237;03.31.10.107
12920;173148;34.44;238;03.31.10.107
12932;173153;34.44;239;03.31.10.107
12892;173151;34.44;240;03.31.10.107
12928;173142;34.44;241;03.31.10.107
12892;173149;34.44;242;03.31.10.107
12892;173150;34.44;243;03.31.10.107
12892;173148;34.44;244;03.31.10.107
12912;173146;34.44;245;03.31.10.118
12928;173147;34.44;246;03.31.10.118
12924;173137;34.44;247;03.31.10.118
12932;173141;34.44;248;03.31.10.118
12924;173129;34.44;249;03.31.10.118
12892;173143;34.44;250;03.31.10.227
12912;173131;34.44;251;03.31.10.227
12912;173140;34.44;252;03.31.10.227
12916;173134;34.44;253;03.31.10.239
12924;173144;34.44;254;03.31.10.239
12904;173137;34.44;255;03.31.10.239
12912;173140;34.44;256;03.31.10.239
12912;173133;34.44;257;03.31.10.239
12944;173137;34.44;258;03.31.10.239
12928;173120;34.44;259;03.31.10.239
12928;173128;34.44;260;03.31.10.239
12916;173137;34.44;261;03.31.10.239
12916;173126;34.44;262;03.31.10.239
12912;173133;34.44;263;03.31.10.250
12904;173134;34.44;264;03.31.10.250
12916;173136;34.44;265;03.31.10.250
12904;173129;34.44;266;03.31.10.250
12916;173139;34.44;267;03.31.10.250
12928;173128;34.44;268;03.31.10.250
12936;173132;34.44;269;03.31.10.250
12928;173136;34.44;270;03.31.10.250
12936;173128;34.44;271;03.31.10.261
12884;173136;34.44;272;03.31.10.261
12904;173133;34.44;273;03.31.10.261
12944;173133;34.44;274;03.31.10.261
12936;173139;34.44;275;03.31.10.370
12932;173143;34.44;276;03.31.10.370
12900;173138;34.44;277;03.31.10.370
12916;173136;34.44;278;03.31.10.370
12916;173141;34.44;279;03.31.10.370
12928;173139;34.44;280;03.31.10.370
12932;173142;34.44;281;03.31.10.370
12916;173143;34.44;282;03.31.10.370
12928;173141;34.44;283;03.31.10.370
12904;173144;34.44;284;03.31.10.370
12892;173146;34.44;285;03.31.10.370
12900;173148;34.44;286;03.31.10.370
12896;173154;34.44;287;03.31.10.370
12924;173150;34.44;288;03.31.10.381
12920;173149;34.44;289;03.31.10.381
12920;173144;34.44;290;03.31.10.381
12936;173154;34.44;291;03.31.10.381
12900;173161;34.44;292;03.31.10.381
12928;173161;34.44;293;03.31.10.381
12928;173153;34.44;294;03.31.10.381
12908;173163;34.44;295;03.31.10.381
12908;173156;34.44;296;03.31.10.381
12928;173160;34.44;297;03.31.10.381
12924;173159;34.44;298;03.31.10.381
12928;173147;34.44;299;03.31.10.381
12912;173141;34.44;300;03.31.10.480
12904;173142;34.44;301;03.31.10.480
12924;173135;34.44;302;03.31.10.480
12908;173127;34.44;303;03.31.10.480
12932;173120;34.44;304;03.31.10.480
12904;173110;34.44;305;03.31.10.480
12912;173098;34.44;306;03.31.10.480
12916;173094;34.44;307;03.31.10.480
12924;173092;34.44;308;03.31.10.502
12960;173089;34.44;309;03.31.10.502
12928;173084;34.44;310;03.31.10.502
12916;173075;34.44;311;03.31.10.502
12920;173074;34.44;312;03.31.10.502
12912;173071;34.44;313;03.31.10.502
12920;173064;34.44;314;03.31.10.502
12892;173068;34.44;315;03.31.10.502
12924;173061;34.44;316;03.31.10.502
12928;173057;34.44;317;03.31.10.513
12904;173056;34.44;318;03.31.10.513
12928;173046;34.44;319;03.31.10.513
12920;173053;34.44;320;03.31.10.513
12936;173049;34.44;321;03.31.10.513
12892;173050;34.44;322;03.31.10.513
12908;173052;34.44;323;03.31.10.513
12920;173054;34.44;324;03.31.10.513
12900;173050;34.44;325;03.31.10.599
12892;173054;34.44;326;03.31.10.599
12904;173059;34.44;327;03.31.10.599
12912;173056;34.44;328;03.31.10.599
12896;173049;34.44;329;03.31.10.599
12924;173059;34.44;330;03.31.10.610
12912;173058;34.44;331;03.31.10.610
12896;173057;34.44;332;03.31.10.610
12912;173066;34.44;333;03.31.10.610
12912;173068;34.44;334;03.31.10.610
12904;173061;34.44;335;03.31.10.610
12900;173060;34.44;336;03.31.10.610
12928;173057;34.44;337;03.31.10.610
12916;173059;34.44;338;03.31.10.610
12908;173065;34.44;339;03.31.10.610
12908;173064;34.44;340;03.31.10.610
12924;173059;34.44;341;03.31.10.610
12920;173059;34.44;342;03.31.10.610
12904;173060;34.44;343;03.31.10.621
12928;173062;34.44;344;03.31.10.621
12896;173062;34.44;345;03.31.10.621
12920;173061;34.44;346;03.31.10.621
12916;173066;34.44;347;03.31.10.621
12932;173061;34.44;348;03.31.10.621
12944;173065;34.44;349;03.31.10.621
12924;173063;34.48;350;03.31.10.720
12916;173054;34.48;351;03.31.10.730
12896;173062;34.48;352;03.31.10.730
12920;173062;34.48;353;03.31.10.730
12908;173056;34.48;354;03.31.10.730
12928;173059;34.48;355;03.31.10.730
12904;173058;34.48;356;03.31.10.730
12900;173048;34.48;357;03.31.10.730
12892;173053;34.48;358;03.31.10.730
12944;173053;34.48;359;03.31.10.730
12928;173052;34.48;360;03.31.10.730
12908;173054;34.48;361;03.31.10.730
12928;173050;34.48;362;03.31.10.741
12904;173053;34.48;363;03.31.10.741
12920;173055;34.48;364;03.31.10.741
12932;173058;34.48;365;03.31.10.741
12916;173057;34.48;366;03.31.10.741
12912;173055;34.48;367;03.31.10.741
12924;173064;34.48;368;03.31.10.741
12892;173059;34.48;369;03.31.10.741
12916;173060;34.48;370;03.31.10.741
12900;173061;34.48;371;03.31.10.741
12920;173067;34.48;372;03.31.10.741
12912;173063;34.48;373;03.31.10.741
12960;173060;34.48;374;03.31.10.741
12908;173065;34.48;375;03.31.10.873
12908;173071;34.48;376;03.31.10.873
12900;173064;34.48;377;03.31.10.873
12924;173058;34.48;378;03.31.10.873
12900;173066;34.48;379;03.31.10.873
12924;173065;34.48;380;03.31.10.873
12912;173070;34.48;381;03.31.10.873
12928;173067;34.48;382;03.31.10.873
12920;173069;34.48;383;03.31.10.873
12904;173066;34.48;384;03.31.10.884
12912;173074;34.48;385;03.31.10.884
12892;173065;34.48;386;03.31.10.884
12912;173075;34.48;387;03.31.10.884
12904;173080;34.48;388;03.31.10.884
12908;173080;34.48;389;03.31.10.884
12908;173079;34.48;390;03.31.10.884
12876;173082;34.48;391;03.31.10.884
12924;173078;34.48;392;03.31.10.884
12884;173087;34.48;393;03.31.10.884
12904;173086;34.48;394;03.31.10.884
12908;173089;34.48;395;03.31.10.884
12896;173090;34.48;396;03.31.10.884
12908;173091;34.48;397;03.31.10.895
12908;173097;34.48;398;03.31.10.895
12936;173097;34.48;399;03.31.10.895
12920;173087;34.44;400;03.31.10.971
12928;173107;34.44;401;03.31.10.971
12916;173092;34.44;402;03.31.10.971
12888;173102;34.44;403;03.31.10.971
12920;173100;34.44;404;03.31.10.971
12896;173099;34.44;405;03.31.10.982
12904;173099;34.44;406;03.31.10.982
12928;173104;34.44;407;03.31.10.982
12928;173102;34.44;408;03.31.10.982
12892;173106;34.44;409;03.31.10.982
12936;173110;34.44;410;03.31.10.982
12916;173110;34.44;411;03.31.10.982
12924;173118;34.44;412;03.31.10.982
12920;173116;34.44;413;03.31.10.993
12904;173118;34.44;414;03.31.10.993
12924;173116;34.44;415;03.31.10.993
12928;173126;34.44;416;03.31.10.993
12912;173128;34.44;417;03.31.10.993
12916;173126;34.44;418;03.31.10.993
12896;173123;34.44;419;03.31.10.993
12916;173130;34.44;420;03.31.10.993
12904;173118;34.44;421;03.31.10.993
12904;173122;34.44;422;03.31.10.993
12932;173120;34.44;423;03.31.10.993
12928;173125;34.44;424;03.31.10.993
12896;173118;34.44;425;03.31.11.092
12928;173114;34.44;426;03.31.11.103
12940;173108;34.44;427;03.31.11.103
12912;173106;34.44;428;03.31.11.103
12924;173109;34.44;429;03.31.11.103
12932;173098;34.44;430;03.31.11.103
12892;173096;34.44;431;03.31.11.103
12944;173094;34.44;432;03.31.11.103
12916;173092;34.44;433;03.31.11.103
12908;173080;34.44;434;03.31.11.103
12924;173071;34.44;435;03.31.11.103
12932;173081;34.44;436;03.31.11.103
12892;173074;34.44;437;03.31.11.103
12904;173071;34.44;438;03.31.11.103
12928;173067;34.44;439;03.31.11.114
12908;173058;34.44;440;03.31.11.114
12888;173052;34.44;441;03.31.11.114
12928;173051;34.44;442;03.31.11.114
12916;173049;34.44;443;03.31.11.114
12928;173044;34.44;444;03.31.11.114
12892;173052;34.44;445;03.31.11.114
12932;173039;34.44;446;03.31.11.114
12916;173035;34.44;447;03.31.11.114
12960;173038;34.44;448;03.31.11.114
12924;173034;34.44;449;03.31.11.114
12916;173043;34.48;450;03.31.11.223
12896;173032;34.48;451;03.31.11.223
12900;173036;34.48;452;03.31.11.223
12904;173030;34.48;453;03.31.11.223
12900;173040;34.48;454;03.31.11.223
12912;173041;34.48;455;03.31.11.223
12928;173042;34.48;456;03.31.11.223
12892;173041;34.48;457;03.31.11.223
12928;173035;34.48;458;03.31.11.223
12912;173044;34.48;459;03.31.11.223
12908;173045;34.48;460;03.31.11.223
12928;173040;34.48;461;03.31.11.234
12928;173056;34.48;462;03.31.11.234
12908;173046;34.48;463;03.31.11.234
12904;173044;34.48;464;03.31.11.234
12928;173046;34.48;465;03.31.11.234
12940;173051;34.48;466;03.31.11.234
12920;173057;34.48;467;03.31.11.234
12928;173055;34.48;468;03.31.11.234
12884;173052;34.48;469;03.31.11.234
12932;173036;34.48;470;03.31.11.234
12916;173047;34.48;471;03.31.11.234
12908;173047;34.48;472;03.31.11.234
12916;173040;34.48;473;03.31.11.245
12936;173046;34.48;474;03.31.11.245
12892;173048;34.48;475;03.31.11.355
12888;173035;34.48;476;03.31.11.355
12928;173047;34.48;477;03.31.11.355
12904;173044;34.48;478;03.31.11.355
12916;173041;34.48;479;03.31.11.355
12948;173035;34.48;480;03.31.11.355
12900;173036;34.48;481;03.31.11.366
12908;173040;34.48;482;03.31.11.366
12884;173037;34.48;483;03.31.11.366
12908;173040;34.48;484;03.31.11.366
12932;173032;34.48;485;03.31.11.366
12904;173036;34.48;486;03.31.11.366
12920;173029;34.48;487;03.31.11.366
12904;173036;34.48;488;03.31.11.366
12912;173028;34.48;489;03.31.11.366
12928;173032;34.48;490;03.31.11.366
12880;173023;34.48;491;03.31.11.366
12900;173018;34.48;492;03.31.11.366
12920;173020;34.48;493;03.31.11.366
12928;173028;34.48;494;03.31.11.377
12920;173017;34.48;495;03.31.11.377
12908;173014;34.48;496;03.31.11.377
12892;173012;34.48;497;03.31.11.377
12936;173010;34.48;498;03.31.11.377
12928;173004;34.48;499;03.31.11.377
12936;172992;34.44;500;03.31.11.486
12924;172996;34.44;501;03.31.11.497
12908;172999;34.44;502;03.31.11.497
12920;172991;34.44;503;03.31.11.497
12912;172988;34.44;504;03.31.11.497
12928;172993;34.44;505;03.31.11.497
12916;172988;34.44;506;03.31.11.497
12924;172991;34.44;507;03.31.11.497
12936;172990;34.44;508;03.31.11.497
12924;172999;34.44;509;03.31.11.497
12928;172993;34.44;510;03.31.11.497
12904;172994;34.44;511;03.31.11.497
12872;172990;34.44;512;03.31.11.497
12932;172999;34.44;513;03.31.11.497
12892;173000;34.44;514;03.31.11.497
12924;173002;34.44;515;03.31.11.508
12936;172995;34.44;516;03.31.11.508
12920;173009;34.44;517;03.31.11.508
12928;173002;34.44;518;03.31.11.508
12944;173002;34.44;519;03.31.11.508
12928;173008;34.44;520;03.31.11.508
12936;173013;34.44;521;03.31.11.508
12928;173016;34.44;522;03.31.11.508
12908;173011;34.44;523;03.31.11.508
12932;173001;34.44;524;03.31.11.508
12892;173014;34.44;525;03.31.11.606
12892;173017;34.44;526;03.31.11.606
12940;173013;34.44;527;03.31.11.606
12900;173018;34.44;528;03.31.11.606
12928;173013;34.44;529;03.31.11.606
12908;173024;34.44;530;03.31.11.606
12908;173026;34.44;531;03.31.11.606
12920;173025;34.44;532;03.31.11.606
12924;173019;34.44;533;03.31.11.617
12916;173031;34.44;534;03.31.11.617
12908;173029;34.44;535;03.31.11.617
12916;173032;34.44;536;03.31.11.617
12908;173028;34.44;537;03.31.11.617
12892;173030;34.44;538;03.31.11.617
12908;173035;34.44;539;03.31.11.617
12908;173031;34.44;540;03.31.11.617
12900;173040;34.44;541;03.31.11.617
12928;173042;34.44;542;03.31.11.628
12932;173044;34.44;543;03.31.11.628
12900;173036;34.44;544;03.31.11.628
12908;173041;34.44;545;03.31.11.628
12952;173036;34.44;546;03.31.11.628
12940;173037;34.44;547;03.31.11.628
12916;173037;34.44;548;03.31.11.628
12924;173041;34.44;549;03.31.11.628
12912;173039;34.44;550;03.31.11.727
12932;173039;34.44;551;03.31.11.727
12920;173041;34.44;552;03.31.11.727
12920;173034;34.44;553;03.31.11.727
12944;173029;34.44;554;03.31.11.727
12928;173031;34.44;555;03.31.11.727
12928;173023;34.44;556;03.31.11.727
12928;173017;34.44;557;03.31.11.727
12912;173011;34.44;558;03.31.11.738
12932;173008;34.44;559;03.31.11.738
12912;173002;34.44;560;03.31.11.738
12908;173001;34.44;561;03.31.11.738
12928;172988;34.44;562;03.31.11.738
12924;172995;34.44;563;03.31.11.738
12908;172974;34.44;564;03.31.11.738
12928;172978;34.44;565;03.31.11.738
12908;172983;34.44;566;03.31.11.738
12928;172971;34.44;567;03.31.11.738
12916;172963;34.44;568;03.31.11.738
12912;172957;34.44;569;03.31.11.738
12904;172947;34.44;570;03.31.11.738
12888;172943;34.44;571;03.31.11.749
12920;172939;34.44;572;03.31.11.749
12892;172939;34.44;573;03.31.11.749
12928;172935;34.44;574;03.31.11.749
12912;172932;34.44;575;03.31.11.848
12892;172920;34.44;576;03.31.11.848
12952;172922;34.44;577;03.31.11.848
12900;172923;34.44;578;03.31.11.848
12892;172922;34.44;579;03.31.11.859
12900;172921;34.44;580;03.31.11.859
12936;172912;34.44;581;03.31.11.859
12900;172913;34.44;582;03.31.11.859
12892;172912;34.44;583;03.31.11.859
12900;172907;34.44;584;03.31.11.859
12908;172910;34.44;585;03.31.11.859
12896;172900;34.44;586;03.31.11.859
12940;172902;34.44;587;03.31.11.859
12920;172905;34.44;588;03.31.11.859
12936;172907;34.44;589;03.31.11.859
12908;172906;34.44;590;03.31.11.859
12928;172907;34.44;591;03.31.11.859
12904;172899;34.44;592;03.31.11.870
12916;172901;34.44;593;03.31.11.870
12916;172909;34.44;594;03.31.11.870
12920;172898;34.44;595;03.31.11.870
12904;172908;34.44;596;03.31.11.870
12908;172903;34.44;597;03.31.11.870
12908;172908;34.44;598;03.31.11.870
12892;172901;34.44;599;03.31.11.870
12892;172890;34.44;600;03.31.11.990
12904;172894;34.44;601;03.31.11.990
12928;172897;34.44;602;03.31.11.990
12920;172896;34.44;603;03.31.11.990
12904;172895;34.44;604;03.31.11.990
12896;172896;34.44;605;03.31.11.990
12892;172897;34.44;606;03.31.11.990
12908;172896;34.44;607;03.31.11.990
12912;172896;34.44;608;03.31.11.990
12920;172889;34.44;609;03.31.11.990
12908;172890;34.44;610;03.31.11.990
12904;172896;34.44;611;03.31.11.990
12908;172888;34.44;612;03.31.11.990
12904;172896;34.44;613;03.31.12.001
12900;172891;34.44;614;03.31.12.001
12920;172887;34.44;615;03.31.12.001
12900;172883;34.44;616;03.31.12.001
12900;172889;34.44;617;03.31.12.001
12896;172894;34.44;618;03.31.12.001
12924;172883;34.44;619;03.31.12.001
12924;172891;34.44;620;03.31.12.001
12928;172891;34.44;621;03.31.12.001
12916;172885;34.44;622;03.31.12.001
12912;172887;34.44;623;03.31.12.001
12912;172889;34.44;624;03.31.12.001
12916;172894;34.44;625;03.31.12.100
12920;172902;34.44;626;03.31.12.100
12892;172904;34.44;627;03.31.12.100
12932;172896;34.44;628;03.31.12.100
12912;172907;34.44;629;03.31.12.100
12932;172902;34.44;630;03.31.12.100
12928;172909;34.44;631;03.31.12.100
12908;172913;34.44;632;03.31.12.100
12908;172904;34.44;633;03.31.12.133
12908;172905;34.44;634;03.31.12.133
12944;172916;34.44;635;03.31.12.133
12916;172906;34.44;636;03.31.12.133
12916;172914;34.44;637;03.31.12.133
12924;172910;34.44;638;03.31.12.133
12908;172914;34.44;639;03.31.12.133
12884;172911;34.44;640;03.31.12.133
12888;172912;34.44;641;03.31.12.133
12904;172917;34.44;642;03.31.12.144
12920;172917;34.44;643;03.31.12.144
12912;172917;34.44;644;03.31.12.144
12936;172907;34.44;645;03.31.12.144
12944;172911;34.44;646;03.31.12.144
12928;172908;34.44;647;03.31.12.144
12924;172915;34.44;648;03.31.12.144
12944;172914;34.44;649;03.31.12.144
12936;172918;34.44;650;03.31.12.219
12900;172927;34.44;651;03.31.12.219
12904;172927;34.44;652;03.31.12.219
12944;172918;34.44;653;03.31.12.219
12908;172918;34.44;654;03.31.12.230
12932;172918;34.44;655;03.31.12.230
12884;172926;34.44;656;03.31.12.230
12908;172929;34.44;657;03.31.12.230
12916;172934;34.44;658;03.31.12.230
12920;172938;34.44;659;03.31.12.230
12900;172934;34.44;660;03.31.12.230
12928;172941;34.44;661;03.31.12.230
12948;172945;34.44;662;03.31.12.230
12932;172947;34.44;663;03.31.12.230
12924;172933;34.44;664;03.31.12.230
12940;172948;34.44;665;03.31.12.230
12912;172942;34.44;666;03.31.12.230
12928;172948;34.44;667;03.31.12.241
12916;172941;34.44;668;03.31.12.241
12924;172938;34.44;669;03.31.12.241
12920;172947;34.44;670;03.31.12.241
12888;172942;34.44;671;03.31.12.241
12936;172948;34.44;672;03.31.12.241
12920;172949;34.44;673;03.31.12.241
12944;172942;34.44;674;03.31.12.241
12908;172953;34.44;675;03.31.12.362
12884;172951;34.44;676;03.31.12.362
12896;172951;34.44;677;03.31.12.362
12892;172954;34.44;678;03.31.12.362
12916;172953;34.44;679;03.31.12.362
12928;172956;34.44;680;03.31.12.362
12908;172950;34.44;681;03.31.12.362
12900;172946;34.44;682;03.31.12.362
12916;172942;34.44;683;03.31.12.362
12884;172946;34.44;684;03.31.12.362
12932;172957;34.44;685;03.31.12.362
12908;172953;34.44;686;03.31.12.362
12928;172954;34.44;687;03.31.12.362
12912;172959;34.44;688;03.31.12.373
12908;172962;34.44;689;03.31.12.373
12936;172958;34.44;690;03.31.12.373
12936;172969;34.44;691;03.31.12.373
12916;172969;34.44;692;03.31.12.373
12952;172972;34.44;693;03.31.12.373
12904;172965;34.44;694;03.31.12.373
12924;172973;34.44;695;03.31.12.373
12932;172963;34.44;696;03.31.12.373
12916;172966;34.44;697;03.31.12.373
12924;172965;34.44;698;03.31.12.373
12936;172962;34.44;699;03.31.12.373
12904;172959;34.44;700;03.31.12.504
12896;172964;34.44;701;03.31.12.504
12908;172955;34.44;702;03.31.12.504
12952;172956;34.44;703;03.31.12.504
12920;172951;34.44;704;03.31.12.504
12932;172938;34.44;705;03.31.12.504
12892;172937;34.44;706;03.31.12.504
12928;172942;34.44;707;03.31.12.504
12944;172929;34.44;708;03.31.12.504
12892;172922;34.44;709;03.31.12.515
12952;172916;34.44;710;03.31.12.515
12900;172911;34.44;711;03.31.12.515
12928;172908;34.44;712;03.31.12.515
12936;172905;34.44;713;03.31.12.515
12928;172900;34.44;714;03.31.12.515
12932;172892;34.44;715;03.31.12.515
12904;172895;34.44;716;03.31.12.515
12912;172883;34.44;717;03.31.12.537
12944;172883;34.44;718;03.31.12.537
12928;172882;34.44;719;03.31.12.537
12920;172883;34.44;720;03.31.12.537
12944;172877;34.44;721;03.31.12.537
12928;172886;34.44;722;03.31.12.537
12908;172885;34.44;723;03.31.12.537
12928;172883;34.44;724;03.31.12.537
12924;172884;34.44;725;03.31.12.603
12924;172894;34.44;726;03.31.12.603
12904;172886;34.44;727;03.31.12.603
12936;172894;34.44;728;03.31.12.603
12932;172898;34.44;729;03.31.12.603
12924;172896;34.44;730;03.31.12.603
12916;172900;34.44;731;03.31.12.614
12920;172901;34.44;732;03.31.12.614
12912;172905;34.44;733;03.31.12.625
12908;172906;34.44;734;03.31.12.625
12916;172907;34.44;735;03.31.12.625
12928;172911;34.44;736;03.31.12.625
12928;172915;34.44;737;03.31.12.625
12924;172920;34.44;738;03.31.12.625
12928;172919;34.44;739;03.31.12.636
12928;172919;34.44;740;03.31.12.636
12936;172918;34.44;741;03.31.12.636
12908;172915;34.44;742;03.31.12.636
12920;172916;34.44;743;03.31.12.636
12904;172923;34.44;744;03.31.12.636
12928;172916;34.44;745;03.31.12.636
12928;172916;34.44;746;03.31.12.636
12924;172914;34.44;747;03.31.12.647
12916;172921;34.44;748;03.31.12.647
12916;172915;34.44;749;03.31.12.647
12892;172918;34.44;750;03.31.12.735
12912;172917;34.44;751;03.31.12.746
12908;172928;34.44;752;03.31.12.746
12904;172918;34.44;753;03.31.12.746
12916;172920;34.44;754;03.31.12.746
12936;172921;34.44;755;03.31.12.746
12908;172921;34.44;756;03.31.12.746
12936;172923;34.44;757;03.31.12.746
12912;172922;34.44;758;03.31.12.757
12924;172914;34.44;759;03.31.12.768
12892;172916;34.44;760;03.31.12.768
12904;172910;34.44;761;03.31.12.768
12936;172913;34.44;762;03.31.12.768
12920;172897;34.44;763;03.31.12.768
12916;172909;34.44;764;03.31.12.768
12904;172901;34.44;765;03.31.12.768
12896;172900;34.44;766;03.31.12.768
12884;172897;34.44;767;03.31.12.768
12916;172899;34.44;768;03.31.12.768
12928;172894;34.44;769;03.31.12.768
12928;172903;34.44;770;03.31.12.768
12912;172906;34.44;771;03.31.12.768
12956;172900;34.44;772;03.31.12.768
12928;172898;34.44;773;03.31.12.778
12924;172900;34.44;774;03.31.12.778
12916;172901;34.44;775;03.31.12.855
12928;172914;34.44;776;03.31.12.855
12900;172914;34.44;777;03.31.12.855
12908;172914;34.44;778;03.31.12.855
12900;172914;34.44;779;03.31.12.855
12900;172909;34.44;780;03.31.12.855
12896;172911;34.44;781;03.31.12.855
12936;172917;34.44;782;03.31.12.855
12916;172909;34.44;783;03.31.12.855
12928;172910;34.44;784;03.31.12.855
12916;172920;34.44;785;03.31.12.855
12928;172917;34.44;786;03.31.12.855
12912;172916;34.44;787;03.31.12.866
12896;172920;34.44;788;03.31.12.866
12928;172936;34.44;789;03.31.12.866
12924;172925;34.44;790;03.31.12.866
12892;172926;34.44;791;03.31.12.866
12928;172926;34.44;792;03.31.12.866
12920;172938;34.44;793;03.31.12.866
12904;172940;34.44;794;03.31.12.866
12912;172947;34.44;795;03.31.12.866
12920;172949;34.44;796;03.31.12.866
12920;172939;34.44;797;03.31.12.866
12908;172945;34.44;798;03.31.12.866
12948;172948;34.44;799;03.31.12.866
12928;172951;34.44;800;03.31.12.987
12948;172950;34.44;801;03.31.12.987
12920;172958;34.44;802;03.31.12.987
12908;172959;34.44;803;03.31.12.987
12892;172967;34.44;804;03.31.12.987
12884;172963;34.44;805;03.31.12.987
12932;172975;34.44;806;03.31.12.987
12936;172975;34.44;807;03.31.12.987
12920;172978;34.44;808;03.31.12.998
12936;172975;34.44;809;03.31.12.998
12928;172974;34.44;810;03.31.12.998
12940;172979;34.44;811;03.31.12.998
12908;172986;34.44;812;03.31.12.998
12920;172990;34.44;813;03.31.12.998
12936;172992;34.44;814;03.31.12.998
12920;172992;34.44;815;03.31.12.998
12912;172991;34.44;816;03.31.12.998
12936;172998;34.44;817;03.31.12.998
12916;172997;34.44;818;03.31.12.998
12928;172995;34.44;819;03.31.12.998
12916;172999;34.44;820;03.31.12.998
12924;173004;34.44;821;03.31.13.009
12944;172997;34.44;822;03.31.13.009
12908;173013;34.44;823;03.31.13.009
12944;173007;34.44;824;03.31.13.009
12904;173004;34.44;825;03.31.13.119
12924;173011;34.44;826;03.31.13.119
12928;173009;34.44;827;03.31.13.119
12928;173006;34.44;828;03.31.13.119
12936;173005;34.44;829;03.31.13.119
12904;173011;34.44;830;03.31.13.130
12936;173012;34.44;831;03.31.13.130
12916;173010;34.44;832;03.31.13.130
12900;173012;34.44;833;03.31.13.130
12904;173012;34.44;834;03.31.13.130
12908;173025;34.44;835;03.31.13.130
12912;173012;34.44;836;03.31.13.130
12944;173026;34.44;837;03.31.13.130
12928;173015;34.44;838;03.31.13.130
12892;173020;34.44;839;03.31.13.130
12908;173004;34.44;840;03.31.13.130
12928;173002;34.44;841;03.31.13.130
12920;173011;34.44;842;03.31.13.141
12908;173004;34.44;843;03.31.13.141
12896;173011;34.44;844;03.31.13.141
12948;172999;34.44;845;03.31.13.141
12916;172994;34.44;846;03.31.13.151
12908;172992;34.44;847;03.31.13.151
12904;172995;34.44;848;03.31.13.151
12936;172992;34.44;849;03.31.13.151
12928;172991;34.44;850;03.31.13.228
12888;172982;34.44;851;03.31.13.228
12916;172974;34.44;852;03.31.13.228
12924;172973;34.44;853;03.31.13.228
12924;172972;34.44;854;03.31.13.228
12896;172970;34.44;855;03.31.13.228
12912;172962;34.44;856;03.31.13.228
12888;172958;34.44;857;03.31.13.228
12928;172955;34.44;858;03.31.13.228
12908;172948;34.44;859;03.31.13.228
12936;172944;34.44;860;03.31.13.228
12916;172939;34.44;861;03.31.13.228
12924;172932;34.44;862;03.31.13.228
12944;172936;34.44;863;03.31.13.239
12884;172932;34.44;864;03.31.13.239
12928;172921;34.44;865;03.31.13.239
12892;172930;34.44;866;03.31.13.239
12912;172926;34.44;867;03.31.13.239
12908;172926;34.44;868;03.31.13.239
12912;172919;34.44;869;03.31.13.239
12892;172922;34.44;870;03.31.13.239
12904;172925;34.44;871;03.31.13.239
12920;172924;34.44;872;03.31.13.239
12912;172924;34.44;873;03.31.13.239
12908;172918;34.44;874;03.31.13.239
12928;172919;34.44;875;03.31.13.349
12896;172921;34.44;876;03.31.13.349
12940;172921;34.44;877;03.31.13.349
12916;172920;34.44;878;03.31.13.349
12900;172921;34.44;879;03.31.13.349
12920;172924;34.44;880;03.31.13.349
12916;172926;34.44;881;03.31.13.349
12916;172924;34.44;882;03.31.13.349
12920;172929;34.44;883;03.31.13.349
12920;172924;34.44;884;03.31.13.349
12912;172936;34.44;885;03.31.13.360
12924;172933;34.44;886;03.31.13.360
12904;172939;34.44;887;03.31.13.360
12916;172934;34.44;888;03.31.13.360
12928;172931;34.44;889;03.31.13.360
12908;172936;34.44;890;03.31.13.360
12912;172935;34.44;891;03.31.13.360
12924;172932;34.44;892;03.31.13.360
12940;172939;34.44;893;03.31.13.360
12916;172943;34.44;894;03.31.13.360
12908;172942;34.44;895;03.31.13.360
12892;172928;34.44;896;03.31.13.360
12916;172935;34.44;897;03.31.13.360
12908;172933;34.44;898;03.31.13.371
12892;172938;34.44;899;03.31.13.371
12912;172935;34.48;900;03.31.13.492
12912;172931;34.48;901;03.31.13.492
12912;172939;34.48;902;03.31.13.492
12920;172943;34.48;903;03.31.13.492
12884;172935;34.48;904;03.31.13.492
12928;172941;34.48;905;03.31.13.492
12928;172937;34.48;906;03.31.13.492
12924;172943;34.48;907;03.31.13.503
12928;172939;34.48;908;03.31.13.503
12920;172947;34.48;909;03.31.13.503
12928;172943;34.48;910;03.31.13.503
12920;172948;34.48;911;03.31.13.503
12936;172942;34.48;912;03.31.13.503
12904;172938;34.48;913;03.31.13.503
12900;172946;34.48;914;03.31.13.503
12924;172948;34.48;915;03.31.13.503
12904;172954;34.48;916;03.31.13.503
12932;172959;34.48;917;03.31.13.503
12932;172958;34.48;918;03.31.13.503
12904;172960;34.48;919;03.31.13.514
12908;172967;34.48;920;03.31.13.514
12924;172962;34.48;921;03.31.13.514
12928;172964;34.48;922;03.31.13.514
12912;172967;34.48;923;03.31.13.514
12912;172968;34.48;924;03.31.13.514
12920;172971;34.48;925;03.31.13.612
12924;172974;34.48;926;03.31.13.612
12900;172972;34.48;927;03.31.13.612
12928;172981;34.48;928;03.31.13.623
12896;172969;34.48;929;03.31.13.623
12936;172986;34.48;930;03.31.13.623
12916;172986;34.48;931;03.31.13.623
12884;172988;34.48;932;03.31.13.623
12928;172987;34.48;933;03.31.13.623
12904;172981;34.48;934;03.31.13.623
12896;172994;34.48;935;03.31.13.623
12908;172991;34.48;936;03.31.13.634
12916;172995;34.48;937;03.31.13.634
12912;172995;34.48;938;03.31.13.634
12916;172991;34.48;939;03.31.13.634
12892;172997;34.48;940;03.31.13.634
12928;172997;34.48;941;03.31.13.634
12924;173009;34.48;942;03.31.13.634
12920;173001;34.48;943;03.31.13.634
12904;173005;34.48;944;03.31.13.634
12924;173012;34.48;945;03.31.13.634
12900;173011;34.48;946;03.31.13.634
12936;173008;34.48;947;03.31.13.634
12916;173017;34.48;948;03.31.13.634
12928;173025;34.48;949;03.31.13.645
12912;173024;34.44;950;03.31.13.732
12920;173024;34.44;951;03.31.13.732
12904;173022;34.44;952;03.31.13.732
12916;173030;34.44;953;03.31.13.732
12904;173030;34.44;954;03.31.13.732
12908;173029;34.44;955;03.31.13.732
12900;173034;34.44;956;03.31.13.732
12904;173031;34.44;957;03.31.13.732
12932;173039;34.44;958;03.31.13.743
12936;173029;34.44;959;03.31.13.743
12908;173035;34.44;960;03.31.13.743
12944;173040;34.44;961;03.31.13.743
12916;173037;34.44;962;03.31.13.743
12928;173037;34.44;963;03.31.13.743
12900;173034;34.44;964;03.31.13.743
12928;173036;34.44;965;03.31.13.743
12936;173042;34.44;966;03.31.13.743
12908;173046;34.44;967;03.31.13.743
12908;173045;34.44;968;03.31.13.754
12884;173051;34.44;969;03.31.13.754
12892;173052;34.44;970;03.31.13.754
12892;173060;34.44;971;03.31.13.754
12908;173060;34.44;972;03.31.13.754
12936;173077;34.44;973;03.31.13.754
12940;173075;34.44;974;03.31.13.754
12944;173075;34.44;975;03.31.13.853
12908;173079;34.44;976;03.31.13.853
12936;173088;34.44;977;03.31.13.853
12928;173073;34.44;978;03.31.13.853
12884;173080;34.44;979;03.31.13.853
12928;173084;34.44;980;03.31.13.853
12904;173083;34.44;981;03.31.13.853
12932;173086;34.44;982;03.31.13.864
12912;173091;34.44;983;03.31.13.864
12904;173087;34.44;984;03.31.13.864
12928;173089;34.44;985;03.31.13.864
12908;173079;34.44;986;03.31.13.864
12928;173076;34.44;987;03.31.13.864
12908;173083;34.44;988;03.31.13.864
12936;173089;34.44;989;03.31.13.864
12896;173074;34.44;990;03.31.13.864
12908;173080;34.44;991;03.31.13.864
12924;173067;34.44;992;03.31.13.885
12944;173064;34.44;993;03.31.13.885
12932;173063;34.44;994;03.31.13.885
12908;173058;34.44;995;03.31.13.885
12916;173052;34.44;996;03.31.13.885
12936;173048;34.44;997;03.31.13.885
12908;173041;34.44;998;03.31.13.896
12928;173042;34.44;999;03.31.13.896
12920;173032;34.44;000;03.31.13.973
12928;173037;34.44;001;03.31.13.973
12920;173031;34.44;002;03.31.13.984
12932;173029;34.44;003;03.31.13.984
12904;173021;34.44;004;03.31.13.984
12928;173016;34.44;005;03.31.13.984
12928;173015;34.44;006;03.31.13.984
12900;173014;34.44;007;03.31.13.984
12904;173008;34.44;008;03.31.13.984
12932;173003;34.44;009;03.31.13.984
12904;173002;34.44;010;03.31.13.984
12928;173000;34.44;011;03.31.13.984
12888;173005;34.44;012;03.31.13.984
12928;172996;34.44;013;03.31.13.984
12888;173006;34.44;014;03.31.13.984
12924;172994;34.44;015;03.31.13.984
12916;172993;34.44;016;03.31.13.995
12924;173005;34.44;017;03.31.13.995
12924;173005;34.44;018;03.31.13.995
12904;172999;34.44;019;03.31.13.995
12904;173005;34.44;020;03.31.13.995
12876;172990;34.44;021;03.31.13.995
12936;172997;34.44;022;03.31.13.995
12912;173001;34.44;023;03.31.13.995
12924;173002;34.44;024;03.31.13.995
12904;173002;34.44;025;03.31.14.115
12912;173007;34.44;026;03.31.14.115
12912;173004;34.44;027;03.31.14.115
12908;173005;34.44;028;03.31.14.115
12928;173006;34.44;029;03.31.14.115
12940;173012;34.44;030;03.31.14.115
12904;173011;34.44;031;03.31.14.115
12912;173008;34.44;032;03.31.14.115
12936;173016;34.44;033;03.31.14.115
12892;173014;34.44;034;03.31.14.115
12908;173010;34.44;035;03.31.14.115
12916;173013;34.44;036;03.31.14.115
12892;173004;34.44;037;03.31.14.126
12928;173013;34.44;038;03.31.14.126
12916;173013;34.44;039;03.31.14.126
12900;173016;34.44;040;03.31.14.126
12920;173010;34.44;041;03.31.14.126
12944;173003;34.44;042;03.31.14.126
12936;173017;34.44;043;03.31.14.126
12908;173018;34.44;044;03.31.14.126
12908;173019;34.44;045;03.31.14.126
12912;173024;34.44;046;03.31.14.126
12920;173018;34.44;047;03.31.14.126
12924;173018;34.44;048;03.31.14.137
12932;173032;34.44;049;03.31.14.137
12908;173033;34.44;050;03.31.14.225
12928;173034;34.44;051;03.31.14.225
12920;173032;34.44;052;03.31.14.225
12924;173034;34.44;053;03.31.14.225
12932;173038;34.44;054;03.31.14.225
12932;173037;34.44;055;03.31.14.225
12944;173042;34.44;056;03.31.14.225
12912;173038;34.44;057;03.31.14.225
12924;173043;34.44;058;03.31.14.236
12976;173036;34.44;059;03.31.14.236
12928;173049;34.44;060;03.31.14.236
12932;173043;34.44;061;03.31.14.236
12916;173048;34.44;062;03.31.14.236
12916;173057;34.44;063;03.31.14.236
12904;173061;34.44;064;03.31.14.236
12900;173054;34.44;065;03.31.14.236
12908;173056;34.44;066;03.31.14.247
12904;173061;34.44;067;03.31.14.247
12912;173063;34.44;068;03.31.14.247
12904;173065;34.44;069;03.31.14.247
12916;173075;34.44;070;03.31.14.247
12948;173086;34.44;071;03.31.14.247
12916;173079;34.44;072;03.31.14.247
12912;173085;34.44;073;03.31.14.247
12908;173088;34.44;074;03.31.14.247
12904;173093;34.44;075;03.31.14.346
12936;173100;34.44;076;03.31.14.346
12892;173105;34.44;077;03.31.14.346
12916;173102;34.44;078;03.31.14.346
12924;173101;34.44;079;03.31.14.346
12924;173112;34.44;080;03.31.14.357
12904;173111;34.44;081;03.31.14.357
12916;173105;34.44;082;03.31.14.357
12932;173117;34.44;083;03.31.14.357
12944;173115;34.44;084;03.31.14.357
12932;173120;34.44;085;03.31.14.357
12892;173117;34.44;086;03.31.14.357
12932;173118;34.44;087;03.31.14.357
12928;173121;34.44;088;03.31.14.357
12908;173128;34.44;089;03.31.14.357
12920;173132;34.44;090;03.31.14.357
12912;173132;34.44;091;03.31.14.357
12932;173134;34.44;092;03.31.14.357
12928;173135;34.44;093;03.31.14.368
12908;173140;34.44;094;03.31.14.368
12920;173144;34.44;095;03.31.14.368
12916;173153;34.44;096;03.31.14.368
12908;173153;34.44;097;03.31.14.368
12932;173150;34.44;098;03.31.14.368
12932;173164;34.44;099;03.31.14.368
12936;173161;34.44;100;03.31.14.466
12936;173167;34.44;101;03.31.14.466
12916;173166;34.44;102;03.31.14.477
12920;173177;34.44;103;03.31.14.477
12912;173175;34.44;104;03.31.14.477
12916;173188;34.44;105;03.31.14.477
12936;173176;34.44;106;03.31.14.477
12916;173185;34.44;107;03.31.14.477
12932;173186;34.44;108;03.31.14.488
12924;173197;34.44;109;03.31.14.488
12928;173191;34.44;110;03.31.14.488
12912;173194;34.44;111;03.31.14.488
12892;173194;34.44;112;03.31.14.488
12912;173199;34.44;113;03.31.14.488
12892;173191;34.44;114;03.31.14.488
12908;173202;34.44;115;03.31.14.488
12908;173192;34.44;116;03.31.14.488
12932;173196;34.44;117;03.31.14.488
12936;173193;34.44;118;03.31.14.488
12912;173188;34.44;119;03.31.14.499
12916;173199;34.44;120;03.31.14.499
12928;173196;34.44;121;03.31.14.499
12928;173195;34.44;122;03.31.14.499
12932;173197;34.44;123;03.31.14.499
12916;173201;34.44;124;03.31.14.499
12908;173203;34.44;125;03.31.14.620
12900;173201;34.44;126;03.31.14.620
12936;173200;34.44;127;03.31.14.620
12928;173199;34.44;128;03.31.14.620
12892;173205;34.44;129;03.31.14.620
12892;173205;34.44;130;03.31.14.620
12904;173203;34.44;131;03.31.14.620
12928;173196;34.44;132;03.31.14.620
12920;173192;34.44;133;03.31.14.620
12896;173186;34.44;134;03.31.14.631
12928;173189;34.44;135;03.31.14.631
12940;173192;34.44;136;03.31.14.631
12884;173195;34.44;137;03.31.14.631
12912;173178;34.44;138;03.31.14.631
12892;173172;34.44;139;03.31.14.631
12928;173171;34.44;140;03.31.14.631
12924;173154;34.44;141;03.31.14.631
12916;173159;34.44;142;03.31.14.631
12916;173146;34.44;143;03.31.14.631
12944;173150;34.44;144;03.31.14.631
12932;173138;34.44;145;03.31.14.631
12928;173138;34.44;146;03.31.14.631
12908;173142;34.44;147;03.31.14.642
12896;173133;34.44;148;03.31.14.642
12924;173125;34.44;149;03.31.14.642
12892;173131;34.48;150;03.31.14.730
12932;173120;34.48;151;03.31.14.730
12924;173122;34.48;152;03.31.14.730
12940;173123;34.48;153;03.31.14.730
12928;173119;34.48;154;03.31.14.730
12908;173125;34.48;155;03.31.14.741
12912;173120;34.48;156;03.31.14.741
12908;173120;34.48;157;03.31.14.741
12952;173113;34.48;158;03.31.14.741
12928;173109;34.48;159;03.31.14.741
12908;173116;34.48;160;03.31.14.741
12920;173117;34.48;161;03.31.14.741
12892;173115;34.48;162;03.31.14.741
12936;173124;34.48;163;03.31.14.741
12928;173126;34.48;164;03.31.14.741
12892;173127;34.48;165;03.31.14.741
12920;173126;34.48;166;03.31.14.752
12896;173119;34.48;167;03.31.14.752
12892;173124;34.48;168;03.31.14.752
12928;173119;34.48;169;03.31.14.752
12916;173114;34.48;170;03.31.14.752
12880;173116;34.48;171;03.31.14.752
12912;173122;34.48;172;03.31.14.752
12928;173120;34.48;173;03.31.14.752
12948;173122;34.48;174;03.31.14.752
12892;173122;34.48;175;03.31.14.872
12892;173123;34.48;176;03.31.14.872
12940;173118;34.48;177;03.31.14.883
12944;173120;34.48;178;03.31.14.883
12928;173126;34.48;179;03.31.14.883
12912;173124;34.48;180;03.31.14.883
12900;173122;34.48;181;03.31.14.883
12904;173126;34.48;182;03.31.14.883
12924;173126;34.48;183;03.31.14.883
12888;173125;34.48;184;03.31.14.883
12908;173133;34.48;185;03.31.14.883
12916;173127;34.48;186;03.31.14.883
12892;173135;34.48;187;03.31.14.883
12924;173134;34.48;188;03.31.14.883
12932;173136;34.48;189;03.31.14.883
12936;173139;34.48;190;03.31.14.894
12900;173143;34.48;191;03.31.14.894
12932;173140;34.48;192;03.31.14.894
12900;173146;34.48;193;03.31.14.894
12904;173144;34.48;194;03.31.14.894
12920;173144;34.48;195;03.31.14.894
12892;173140;34.48;196;03.31.14.894
12916;173152;34.48;197;03.31.14.894
12908;173155;34.48;198;03.31.14.894
12936;173151;34.48;199;03.31.14.894
12908;173149;34.44;200;03.31.14.982
12904;173155;34.44;201;03.31.14.982
12900;173155;34.44;202;03.31.14.982
12928;173169;34.44;203;03.31.14.982
12908;173169;34.44;204;03.31.14.982
12904;173166;34.44;205;03.31.14.982
12892;173176;34.44;206;03.31.14.982
12912;173171;34.44;207;03.31.14.982
12884;173174;34.44;208;03.31.14.982
12908;173179;34.44;209;03.31.14.982
12920;173186;34.44;210;03.31.14.982
12928;173181;34.44;211;03.31.14.982
12912;173186;34.44;212;03.31.14.993
12908;173188;34.44;213;03.31.14.993
12892;173185;34.44;214;03.31.14.993
12908;173199;34.44;215;03.31.14.993
12892;173189;34.44;216;03.31.14.993
12932;173193;34.44;217;03.31.14.993
12896;173199;34.44;218;03.31.14.993
12936;173189;34.44;219;03.31.14.993
12892;173196;34.44;220;03.31.14.993
12920;173209;34.44;221;03.31.14.993
12916;173207;34.44;222;03.31.14.993
12892;173208;34.44;223;03.31.14.993
12892;173213;34.44;224;03.31.14.993
12916;173212;34.44;225;03.31.15.114
12940;173215;34.44;226;03.31.15.114
12932;173215;34.44;227;03.31.15.114
12900;173210;34.44;228;03.31.15.114
12908;173218;34.44;229;03.31.15.114
12924;173224;34.44;230;03.31.15.114
12920;173216;34.44;231;03.31.15.114
12908;173212;34.44;232;03.31.15.114
12908;173216;34.44;233;03.31.15.114
12892;173224;34.44;234;03.31.15.125
12884;173212;34.44;235;03.31.15.125
12912;173217;34.44;236;03.31.15.125
12916;173210;34.44;237;03.31.15.125
12940;173215;34.44;238;03.31.15.125
12932;173217;34.44;239;03.31.15.125
12904;173209;34.44;240;03.31.15.125
12912;173215;34.44;241;03.31.15.125
12892;173219;34.44;242;03.31.15.136
12928;173212;34.44;243;03.31.15.136
12908;173207;34.44;244;03.31.15.136
12916;173210;34.44;245;03.31.15.136
12908;173217;34.44;246;03.31.15.136
12928;173206;34.44;247;03.31.15.136
12928;173222;34.44;248;03.31.15.136
12924;173218;34.44;249;03.31.15.136
12920;173217;34.44;250;03.31.15.246
12892;173223;34.44;251;03.31.15.246
12912;173216;34.44;252;03.31.15.246
12908;173223;34.44;253;03.31.15.246
12928;173225;34.44;254;03.31.15.246
12944;173236;34.44;255;03.31.15.246
12932;173233;34.44;256;03.31.15.246
12892;173237;34.44;257;03.31.15.257
12892;173237;34.44;258;03.31.15.257
12904;173241;34.44;259;03.31.15.257
12920;173246;34.44;260;03.31.15.257
12904;173240;34.44;261;03.31.15.257
12884;173244;34.44;262;03.31.15.257
12924;173248;34.44;263;03.31.15.257
12908;173247;34.44;264;03.31.15.257
12920;173243;34.44;265;03.31.15.257
12920;173238;34.44;266;03.31.15.257
12904;173239;34.44;267;03.31.15.257
12892;173243;34.44;268;03.31.15.257
12932;173246;34.44;269;03.31.15.268
12908;173244;34.44;270;03.31.15.268
12900;173243;34.44;271;03.31.15.268
12912;173240;34.44;272;03.31.15.268
12908;173237;34.44;273;03.31.15.268
12912;173242;34.44;274;03.31.15.268
12904;173234;34.44;275;03.31.15.345
12904;173241;34.44;276;03.31.15.356
12912;173228;34.44;277;03.31.15.356
12916;173224;34.44;278;03.31.15.356
12892;173219;34.44;279;03.31.15.356
12920;173222;34.44;280;03.31.15.356
12904;173219;34.44;281;03.31.15.356
12928;173226;34.44;282;03.31.15.356
12932;173215;34.44;283;03.31.15.356
12912;173221;34.44;284;03.31.15.356
12932;173208;34.44;285;03.31.15.356
12908;173203;34.44;286;03.31.15.367
12908;173207;34.44;287;03.31.15.367
12912;173194;34.44;288;03.31.15.367
12944;173184;34.44;289;03.31.15.367
12904;173186;34.44;290;03.31.15.367
12892;173188;34.44;291;03.31.15.367
12888;173179;34.44;292;03.31.15.389
12920;173178;34.44;293;03.31.15.389
12916;173176;34.44;294;03.31.15.400
12916;173175;34.44;295;03.31.15.400
12916;173168;34.44;296;03.31.15.400
12924;173163;34.44;297;03.31.15.400
12908;173157;34.44;298;03.31.15.400
12936;173154;34.44;299;03.31.15.400
12916;173154;34.44;300;03.31.15.477
12916;173146;34.44;301;03.31.15.477
12896;173155;34.44;302;03.31.15.477
12920;173158;34.44;303;03.31.15.477
12892;173150;34.44;304;03.31.15.477
12944;173150;34.44;305;03.31.15.477
12928;173146;34.44;306;03.31.15.477
12908;173146;34.44;307;03.31.15.477
12928;173142;34.44;308;03.31.15.477
12936;173140;34.44;309;03.31.15.477
12920;173142;34.44;310;03.31.15.477
12924;173138;34.44;311;03.31.15.477
12916;173143;34.44;312;03.31.15.488
12932;173147;34.44;313;03.31.15.488
12928;173149;34.44;314;03.31.15.488
12912;173150;34.44;315;03.31.15.488
12932;173144;34.44;316;03.31.15.488
12904;173151;34.44;317;03.31.15.488
12904;173156;34.44;318;03.31.15.488
12924;173159;34.44;319;03.31.15.488
12896;173167;34.44;320;03.31.15.488
12912;173169;34.44;321;03.31.15.488
12888;173172;34.44;322;03.31.15.488
12916;173180;34.44;323;03.31.15.488
12936;173180;34.44;324;03.31.15.488
12876;173176;34.44;325;03.31.15.608
12892;173188;34.44;326;03.31.15.608
12908;173187;34.44;327;03.31.15.608
12920;173198;34.44;328;03.31.15.608
12928;173200;34.44;329;03.31.15.608
12936;173209;34.44;330;03.31.15.608
12908;173208;34.44;331;03.31.15.608
12924;173212;34.44;332;03.31.15.608
12932;173220;34.44;333;03.31.15.619
12900;173218;34.44;334;03.31.15.619
12936;173221;34.44;335;03.31.15.619
12920;173221;34.44;336;03.31.15.619
12908;173225;34.44;337;03.31.15.619
12892;173232;34.44;338;03.31.15.619
12928;173241;34.44;339;03.31.15.619
12916;173226;34.44;340;03.31.15.619
12928;173230;34.44;341;03.31.15.619
12944;173225;34.44;342;03.31.15.619
12932;173237;34.44;343;03.31.15.619
12928;173238;34.44;344;03.31.15.619
12920;173240;34.44;345;03.31.15.619
12928;173238;34.44;346;03.31.15.630
12904;173237;34.44;347;03.31.15.630
12928;173236;34.44;348;03.31.15.630
12928;173227;34.44;349;03.31.15.630
12900;173228;34.44;350;03.31.15.740
12912;173233;34.44;351;03.31.15.740
12900;173230;34.44;352;03.31.15.740
12932;173237;34.44;353;03.31.15.740
12916;173233;34.44;354;03.31.15.751
12912;173226;34.44;355;03.31.15.751
12928;173227;34.44;356;03.31.15.751
12916;173230;34.44;357;03.31.15.751
12928;173223;34.44;358;03.31.15.751
12892;173225;34.44;359;03.31.15.751
12944;173231;34.44;360;03.31.15.751
12928;173236;34.44;361;03.31.15.751
12904;173235;34.44;362;03.31.15.751
12888;173237;34.44;363;03.31.15.751
12916;173232;34.44;364;03.31.15.751
12944;173241;34.44;365;03.31.15.751
12900;173245;34.44;366;03.31.15.751
12904;173252;34.44;367;03.31.15.762
12912;173247;34.44;368;03.31.15.762
12936;173243;34.44;369;03.31.15.762
12908;173246;34.44;370;03.31.15.762
12916;173253;34.44;371;03.31.15.762
12912;173268;34.44;372;03.31.15.762
12912;173265;34.44;373;03.31.15.762
12928;173264;34.44;374;03.31.15.762
12884;173276;34.44;375;03.31.15.850
12928;173282;34.44;376;03.31.15.861
12936;173283;34.44;377;03.31.15.861
12892;173286;34.44;378;03.31.15.861
12892;173284;34.44;379;03.31.15.861
12928;173294;34.44;380;03.31.15.861
12912;173287;34.44;381;03.31.15.861
12928;173297;34.44;382;03.31.15.861
12920;173285;34.44;383;03.31.15.883
12936;173297;34.44;384;03.31.15.883
12928;173304;34.44;385;03.31.15.883
12924;173295;34.44;386;03.31.15.883
12960;173298;34.44;387;03.31.15.883
12924;173300;34.44;388;03.31.15.883
12904;173301;34.44;389;03.31.15.883
12920;173295;34.44;390;03.31.15.883
12904;173305;34.44;391;03.31.15.883
12876;173297;34.44;392;03.31.15.883
12928;173299;34.44;393;03.31.15.883
12916;173308;34.44;394;03.31.15.883
12904;173305;34.44;395;03.31.15.894
12912;173309;34.44;396;03.31.15.894
12936;173310;34.44;397;03.31.15.894
12900;173312;34.44;398;03.31.15.894
12900;173306;34.44;399;03.31.15.894
12912;173311;34.44;400;03.31.15.981
12920;173309;34.44;401;03.31.15.981
12888;173310;34.44;402;03.31.15.981
12936;173315;34.44;403;03.31.15.981
12888;173315;34.44;404;03.31.15.981
12916;173306;34.44;405;03.31.15.981
12888;173308;34.44;406;03.31.15.981
12892;173302;34.44;407;03.31.15.981
12908;173313;34.44;408;03.31.15.992
12904;173310;34.44;409;03.31.15.992
12916;173297;34.44;410;03.31.15.992
12892;173296;34.44;411;03.31.15.992
12916;173288;34.44;412;03.31.15.992
12936;173293;34.44;413;03.31.15.992
12908;173283;34.44;414;03.31.15.992
12932;173269;34.44;415;03.31.15.992
12904;173266;34.44;416;03.31.15.992
12900;173259;34.44;417;03.31.16.014
12912;173261;34.44;418;03.31.16.014
12888;173256;34.44;419;03.31.16.014
12904;173262;34.44;420;03.31.16.014
12908;173250;34.44;421;03.31.16.014
12896;173252;34.44;422;03.31.16.014
12928;173246;34.44;423;03.31.16.014
12932;173249;34.44;424;03.31.16.014
12896;173246;34.44;425;03.31.16.102
12912;173247;34.44;426;03.31.16.102
12932;173245;34.44;427;03.31.16.102
12924;173239;34.44;428;03.31.16.102
12936;173241;34.44;429;03.31.16.102
12928;173233;34.44;430;03.31.16.102
12912;173239;34.44;431;03.31.16.113
12904;173238;34.44;432;03.31.16.113
12928;173237;34.44;433;03.31.16.113
12924;173243;34.44;434;03.31.16.113
12908;173246;34.44;435;03.31.16.113
12892;173242;34.44;436;03.31.16.113
12944;173246;34.44;437;03.31.16.113
12936;173244;34.44;438;03.31.16.113
12888;173243;34.44;439;03.31.16.113
12912;173245;34.44;440;03.31.16.113
12924;173233;34.44;441;03.31.16.113
12912;173241;34.44;442;03.31.16.113
12892;173233;34.44;443;03.31.16.113
12948;173241;34.44;444;03.31.16.124
12892;173242;34.44;445;03.31.16.124
12908;173240;34.44;446;03.31.16.124
12928;173241;34.44;447;03.31.16.124
12908;173234;34.44;448;03.31.16.124
12928;173247;34.44;449;03.31.16.124
12928;173235;34.44;450;03.31.16.234
12944;173235;34.44;451;03.31.16.234
12948;173242;34.44;452;03.31.16.245
12920;173248;34.44;453;03.31.16.245
12944;173242;34.44;454;03.31.16.245
12924;173253;34.44;455;03.31.16.245
12952;173253;34.44;456;03.31.16.245
