gsr; bvp; skt; skt2; Cont; time
12900;170998;34.80;075;03.43.03.203
12916;170997;34.80;076;03.43.03.203
12892;171002;34.80;077;03.43.03.203
12920;170994;34.80;078;03.43.03.203
12904;170976;34.80;079;03.43.03.203
12888;170980;34.80;080;03.43.03.203
12912;170974;34.80;081;03.43.03.203
12888;170970;34.80;082;03.43.03.203
12892;170969;34.80;083;03.43.03.203
12892;170967;34.80;084;03.43.03.203
12880;170962;34.80;085;03.43.03.203
12884;170954;34.80;086;03.43.03.214
12900;170948;34.80;087;03.43.03.214
12904;170956;34.80;088;03.43.03.214
12916;170945;34.80;089;03.43.03.214
12888;170947;34.80;090;03.43.03.214
12904;170944;34.80;091;03.43.03.214
12884;170945;34.80;092;03.43.03.214
12920;170942;34.80;093;03.43.03.214
12888;170938;34.80;094;03.43.03.214
12884;170939;34.80;095;03.43.03.214
12904;170927;34.80;096;03.43.03.214
12912;170936;34.80;097;03.43.03.214
12888;170925;34.80;098;03.43.03.225
12908;170927;34.80;099;03.43.03.225
12920;170940;34.76;100;03.43.03.312
12924;170934;34.76;101;03.43.03.312
12904;170929;34.76;102;03.43.03.312
12888;170927;34.76;103;03.43.03.312
12892;170933;34.76;104;03.43.03.312
12916;170931;34.76;105;03.43.03.312
12912;170930;34.76;106;03.43.03.312
12892;170927;34.76;107;03.43.03.323
12892;170928;34.76;108;03.43.03.334
12892;170920;34.76;109;03.43.03.334
12916;170927;34.76;110;03.43.03.334
12920;170923;34.76;111;03.43.03.334
12900;170926;34.76;112;03.43.03.334
12904;170929;34.76;113;03.43.03.334
12892;170922;34.76;114;03.43.03.334
12888;170924;34.76;115;03.43.03.344
12904;170924;34.76;116;03.43.03.344
12892;170930;34.76;117;03.43.03.344
12912;170924;34.76;118;03.43.03.344
12896;170928;34.76;119;03.43.03.344
12884;170922;34.76;120;03.43.03.344
12928;170925;34.76;121;03.43.03.344
12876;170923;34.76;122;03.43.03.344
12920;170926;34.76;123;03.43.03.344
12900;170929;34.76;124;03.43.03.344
12868;170932;34.76;125;03.43.03.432
12876;170924;34.76;126;03.43.03.432
12892;170927;34.76;127;03.43.03.443
12920;170925;34.76;128;03.43.03.443
12912;170930;34.76;129;03.43.03.443
12892;170926;34.76;130;03.43.03.443
12888;170928;34.76;131;03.43.03.443
12916;170926;34.76;132;03.43.03.443
12920;170926;34.76;133;03.43.03.443
12896;170930;34.76;134;03.43.03.443
12916;170919;34.76;135;03.43.03.443
12912;170935;34.76;136;03.43.03.443
12928;170925;34.76;137;03.43.03.454
12908;170935;34.76;138;03.43.03.454
12920;170926;34.76;139;03.43.03.454
12920;170936;34.76;140;03.43.03.454
12896;170929;34.76;141;03.43.03.454
12900;170934;34.76;142;03.43.03.465
12916;170925;34.76;143;03.43.03.465
12872;170931;34.76;144;03.43.03.476
12892;170931;34.76;145;03.43.03.476
12900;170929;34.76;146;03.43.03.476
12880;170929;34.76;147;03.43.03.476
12916;170930;34.76;148;03.43.03.476
12888;170930;34.76;149;03.43.03.476
12876;170932;34.80;150;03.43.03.563
12864;170937;34.80;151;03.43.03.563
12900;170928;34.80;152;03.43.03.563
12892;170940;34.80;153;03.43.03.563
12912;170938;34.80;154;03.43.03.563
12912;170941;34.80;155;03.43.03.563
12912;170941;34.80;156;03.43.03.563
12912;170938;34.80;157;03.43.03.563
12928;170937;34.80;158;03.43.03.563
12880;170942;34.80;159;03.43.03.563
12920;170946;34.80;160;03.43.03.574
12928;170946;34.80;161;03.43.03.574
12936;170937;34.80;162;03.43.03.574
12928;170950;34.80;163;03.43.03.574
12884;170943;34.80;164;03.43.03.574
12904;170954;34.80;165;03.43.03.574
12896;170944;34.80;166;03.43.03.574
12912;170947;34.80;167;03.43.03.574
12892;170951;34.80;168;03.43.03.574
12892;170953;34.80;169;03.43.03.574
12912;170962;34.80;170;03.43.03.574
12924;170962;34.80;171;03.43.03.574
12860;170961;34.80;172;03.43.03.574
12884;170965;34.80;173;03.43.03.574
12928;170970;34.80;174;03.43.03.585
12896;170963;34.80;175;03.43.03.696
12904;170970;34.80;176;03.43.03.696
12896;170968;34.80;177;03.43.03.696
12900;170961;34.80;178;03.43.03.696
12876;170965;34.80;179;03.43.03.696
12896;170974;34.80;180;03.43.03.696
12912;170969;34.80;181;03.43.03.696
12900;170976;34.80;182;03.43.03.696
12900;170973;34.80;183;03.43.03.707
12920;170985;34.80;184;03.43.03.707
12892;170982;34.80;185;03.43.03.707
12884;170984;34.80;186;03.43.03.707
12888;170988;34.80;187;03.43.03.707
12892;170987;34.80;188;03.43.03.707
12920;170996;34.80;189;03.43.03.707
12904;170998;34.80;190;03.43.03.707
12928;170992;34.80;191;03.43.03.707
12876;171000;34.80;192;03.43.03.707
12880;170991;34.80;193;03.43.03.707
12896;170989;34.80;194;03.43.03.707
12904;171000;34.80;195;03.43.03.707
12896;170995;34.80;196;03.43.03.718
12916;171004;34.80;197;03.43.03.718
12900;170999;34.80;198;03.43.03.718
12944;171000;34.80;199;03.43.03.718
12892;171011;34.80;200;03.43.03.827
12904;170998;34.80;201;03.43.03.827
12904;170999;34.80;202;03.43.03.827
12904;171007;34.80;203;03.43.03.827
12900;171005;34.80;204;03.43.03.838
12904;171002;34.80;205;03.43.03.838
12928;171007;34.80;206;03.43.03.838
12912;171019;34.80;207;03.43.03.838
12892;171007;34.80;208;03.43.03.838
12884;171014;34.80;209;03.43.03.838
12892;171016;34.80;210;03.43.03.838
12900;171017;34.80;211;03.43.03.838
12884;171016;34.80;212;03.43.03.838
12904;171023;34.80;213;03.43.03.838
12884;171022;34.80;214;03.43.03.838
12936;171019;34.80;215;03.43.03.838
12896;171020;34.80;216;03.43.03.839
12908;171027;34.80;217;03.43.03.839
12912;171020;34.80;218;03.43.03.850
12920;171031;34.80;219;03.43.03.850
12900;171028;34.80;220;03.43.03.850
12888;171031;34.80;221;03.43.03.850
12892;171033;34.80;222;03.43.03.850
12900;171036;34.80;223;03.43.03.850
12908;171030;34.80;224;03.43.03.850
12908;171027;34.80;225;03.43.03.938
12888;171035;34.80;226;03.43.03.951
12924;171032;34.80;227;03.43.03.951
12892;171038;34.80;228;03.43.03.951
12916;171029;34.80;229;03.43.03.951
12904;171043;34.80;230;03.43.03.951
12892;171041;34.80;231;03.43.03.951
12900;171050;34.80;232;03.43.03.951
12892;171036;34.80;233;03.43.03.951
12908;171053;34.80;234;03.43.03.951
12900;171053;34.80;235;03.43.03.951
12908;171048;34.80;236;03.43.03.951
12876;171053;34.80;237;03.43.03.952
12920;171046;34.80;238;03.43.03.963
12908;171055;34.80;239;03.43.03.963
12896;171050;34.80;240;03.43.03.963
12896;171057;34.80;241;03.43.03.963
12888;171057;34.80;242;03.43.03.974
12912;171061;34.80;243;03.43.03.974
12896;171058;34.80;244;03.43.03.974
12900;171053;34.80;245;03.43.03.974
12900;171059;34.80;246;03.43.03.974
12912;171056;34.80;247;03.43.03.974
12888;171060;34.80;248;03.43.03.985
12904;171064;34.80;249;03.43.03.985
12900;171064;34.76;250;03.43.04.063
12912;171052;34.76;251;03.43.04.074
12892;171058;34.76;252;03.43.04.074
12908;171050;34.76;253;03.43.04.074
12892;171051;34.76;254;03.43.04.074
12860;171041;34.76;255;03.43.04.074
12900;171038;34.76;256;03.43.04.074
12888;171033;34.76;257;03.43.04.074
12896;171034;34.76;258;03.43.04.074
12896;171032;34.76;259;03.43.04.074
12896;171013;34.76;260;03.43.04.074
12860;171018;34.76;261;03.43.04.074
12920;171014;34.76;262;03.43.04.074
12892;171006;34.76;263;03.43.04.074
12896;171008;34.76;264;03.43.04.074
12928;171008;34.76;265;03.43.04.074
12868;170994;34.76;266;03.43.04.085
12904;170989;34.76;267;03.43.04.107
12896;170989;34.76;268;03.43.04.107
12896;170982;34.76;269;03.43.04.107
12916;170988;34.76;270;03.43.04.118
12884;170984;34.76;271;03.43.04.118
12892;170974;34.76;272;03.43.04.118
12884;170972;34.76;273;03.43.04.118
12892;170978;34.76;274;03.43.04.118
12904;170964;34.76;275;03.43.04.205
12928;170964;34.76;276;03.43.04.205
12892;170959;34.76;277;03.43.04.205
12896;170953;34.76;278;03.43.04.205
12892;170957;34.76;279;03.43.04.205
12912;170955;34.76;280;03.43.04.205
12908;170961;34.76;281;03.43.04.205
12912;170954;34.76;282;03.43.04.205
12900;170964;34.76;283;03.43.04.205
12892;170957;34.76;284;03.43.04.205
12920;170954;34.76;285;03.43.04.205
12924;170959;34.76;286;03.43.04.205
12892;170958;34.76;287;03.43.04.216
12940;170958;34.76;288;03.43.04.216
12924;170955;34.76;289;03.43.04.216
12880;170955;34.76;290;03.43.04.216
12928;170951;34.76;291;03.43.04.216
12892;170958;34.76;292;03.43.04.238
12892;170958;34.76;293;03.43.04.238
12896;170958;34.76;294;03.43.04.238
12880;170962;34.76;295;03.43.04.238
12904;170956;34.76;296;03.43.04.238
12884;170956;34.76;297;03.43.04.238
12892;170956;34.76;298;03.43.04.238
12916;170959;34.76;299;03.43.04.238
12916;170964;34.80;300;03.43.04.337
12900;170957;34.80;301;03.43.04.337
12908;170969;34.80;302;03.43.04.337
12904;170971;34.80;303;03.43.04.337
12904;170964;34.80;304;03.43.04.337
12884;170966;34.80;305;03.43.04.337
12896;170971;34.80;306;03.43.04.337
12912;170971;34.80;307;03.43.04.337
12892;170965;34.80;308;03.43.04.348
12904;170976;34.80;309;03.43.04.348
12892;170977;34.80;310;03.43.04.348
12892;170973;34.80;311;03.43.04.348
12876;170970;34.80;312;03.43.04.348
12904;170971;34.80;313;03.43.04.348
12920;170974;34.80;314;03.43.04.348
12892;170976;34.80;315;03.43.04.348
12928;170974;34.80;316;03.43.04.348
12888;170970;34.80;317;03.43.04.348
12912;170967;34.80;318;03.43.04.348
12908;170967;34.80;319;03.43.04.348
12892;170960;34.80;320;03.43.04.348
12900;170967;34.80;321;03.43.04.359
12892;170958;34.80;322;03.43.04.359
12880;170958;34.80;323;03.43.04.359
12940;170961;34.80;324;03.43.04.359
12928;170964;34.80;325;03.43.04.436
12900;170958;34.80;326;03.43.04.436
12888;170957;34.80;327;03.43.04.436
12900;170956;34.80;328;03.43.04.436
12936;170958;34.80;329;03.43.04.436
12900;170965;34.80;330;03.43.04.436
12912;170961;34.80;331;03.43.04.447
12912;170964;34.80;332;03.43.04.447
12928;170963;34.80;333;03.43.04.447
12892;170965;34.80;334;03.43.04.447
12920;170970;34.80;335;03.43.04.447
12920;170958;34.80;336;03.43.04.447
12912;170969;34.80;337;03.43.04.447
12928;170958;34.80;338;03.43.04.458
12904;170959;34.80;339;03.43.04.458
12908;170961;34.80;340;03.43.04.458
12900;170959;34.80;341;03.43.04.458
12908;170976;34.80;342;03.43.04.458
12924;170974;34.80;343;03.43.04.458
12904;170974;34.80;344;03.43.04.458
12912;170972;34.80;345;03.43.04.458
12904;170969;34.80;346;03.43.04.458
12888;170980;34.80;347;03.43.04.458
12868;170977;34.80;348;03.43.04.458
12948;170979;34.80;349;03.43.04.458
12908;170988;34.80;350;03.43.04.556
12904;170991;34.80;351;03.43.04.567
12960;170981;34.80;352;03.43.04.567
12908;170990;34.80;353;03.43.04.567
12884;170989;34.80;354;03.43.04.567
12912;170994;34.80;355;03.43.04.567
12916;170998;34.80;356;03.43.04.567
12892;170990;34.80;357;03.43.04.567
12892;170991;34.80;358;03.43.04.567
12884;170996;34.80;359;03.43.04.567
12896;170995;34.80;360;03.43.04.567
12892;170998;34.80;361;03.43.04.567
12896;171004;34.80;362;03.43.04.567
12892;171003;34.80;363;03.43.04.567
12920;171009;34.80;364;03.43.04.578
12916;171000;34.80;365;03.43.04.578
12920;171007;34.80;366;03.43.04.578
12916;171005;34.80;367;03.43.04.578
12908;171010;34.80;368;03.43.04.578
12916;171010;34.80;369;03.43.04.578
12892;171016;34.80;370;03.43.04.578
12912;171015;34.80;371;03.43.04.578
12928;171012;34.80;372;03.43.04.578
12920;171011;34.80;373;03.43.04.578
12916;171016;34.80;374;03.43.04.578
12920;171026;34.80;375;03.43.04.687
12888;171026;34.80;376;03.43.04.687
12912;171026;34.80;377;03.43.04.687
12900;171027;34.80;378;03.43.04.687
12904;171029;34.80;379;03.43.04.687
12888;171017;34.80;380;03.43.04.687
12900;171037;34.80;381;03.43.04.687
12928;171035;34.80;382;03.43.04.687
12888;171033;34.80;383;03.43.04.687
12884;171026;34.80;384;03.43.04.698
12908;171027;34.80;385;03.43.04.698
12896;171029;34.80;386;03.43.04.698
12896;171032;34.80;387;03.43.04.698
12888;171034;34.80;388;03.43.04.698
12884;171039;34.80;389;03.43.04.698
12904;171042;34.80;390;03.43.04.698
12880;171037;34.80;391;03.43.04.698
12928;171040;34.80;392;03.43.04.698
12896;171045;34.80;393;03.43.04.698
12888;171052;34.80;394;03.43.04.698
12908;171047;34.80;395;03.43.04.698
12928;171048;34.80;396;03.43.04.698
12912;171059;34.80;397;03.43.04.709
12904;171058;34.80;398;03.43.04.709
12908;171055;34.80;399;03.43.04.709
12892;171053;34.80;400;03.43.04.818
12900;171053;34.80;401;03.43.04.818
12892;171056;34.80;402;03.43.04.818
12904;171055;34.80;403;03.43.04.818
12912;171060;34.80;404;03.43.04.818
12888;171064;34.80;405;03.43.04.829
12884;171067;34.80;406;03.43.04.829
12880;171062;34.80;407;03.43.04.829
12896;171070;34.80;408;03.43.04.829
12888;171069;34.80;409;03.43.04.829
12944;171066;34.80;410;03.43.04.829
12896;171070;34.80;411;03.43.04.829
12900;171064;34.80;412;03.43.04.829
12900;171071;34.80;413;03.43.04.829
12892;171075;34.80;414;03.43.04.829
12884;171078;34.80;415;03.43.04.829
12900;171077;34.80;416;03.43.04.829
12892;171081;34.80;417;03.43.04.840
12928;171083;34.80;418;03.43.04.840
12888;171080;34.80;419;03.43.04.840
12900;171085;34.80;420;03.43.04.840
12892;171091;34.80;421;03.43.04.840
12904;171084;34.80;422;03.43.04.840
12908;171083;34.80;423;03.43.04.840
12940;171092;34.80;424;03.43.04.840
12920;171100;34.80;425;03.43.04.950
12912;171103;34.80;426;03.43.04.961
12904;171100;34.80;427;03.43.04.961
12876;171093;34.80;428;03.43.04.961
12900;171103;34.80;429;03.43.04.961
12876;171103;34.80;430;03.43.04.961
12884;171116;34.80;431;03.43.04.961
12908;171108;34.80;432;03.43.04.961
12912;171102;34.80;433;03.43.04.961
12900;171103;34.80;434;03.43.04.961
12884;171109;34.80;435;03.43.04.961
12892;171104;34.80;436;03.43.04.961
12860;171105;34.80;437;03.43.04.961
12912;171103;34.80;438;03.43.04.961
12912;171099;34.80;439;03.43.04.972
12932;171095;34.80;440;03.43.04.972
12924;171093;34.80;441;03.43.04.972
12896;171084;34.80;442;03.43.04.972
12916;171083;34.80;443;03.43.04.972
12892;171087;34.80;444;03.43.04.972
12900;171082;34.80;445;03.43.04.972
12892;171073;34.80;446;03.43.04.972
12916;171065;34.80;447;03.43.04.972
12900;171060;34.80;448;03.43.04.972
12920;171055;34.80;449;03.43.04.972
12900;171050;34.76;450;03.43.05.092
12904;171045;34.76;451;03.43.05.092
12932;171040;34.76;452;03.43.05.092
12920;171036;34.76;453;03.43.05.092
12920;171036;34.76;454;03.43.05.092
12884;171028;34.76;455;03.43.05.092
12912;171027;34.76;456;03.43.05.092
12904;171028;34.76;457;03.43.05.092
12928;171023;34.76;458;03.43.05.092
12932;171019;34.76;459;03.43.05.103
12908;171015;34.76;460;03.43.05.103
12916;171018;34.76;461;03.43.05.103
12920;171013;34.76;462;03.43.05.103
12932;171024;34.76;463;03.43.05.103
12892;171013;34.76;464;03.43.05.103
12880;171017;34.76;465;03.43.05.103
12904;171011;34.76;466;03.43.05.103
12912;171022;34.76;467;03.43.05.103
12896;171015;34.76;468;03.43.05.103
12876;171010;34.76;469;03.43.05.103
12884;171014;34.76;470;03.43.05.103
12936;171013;34.76;471;03.43.05.103
12924;171003;34.76;472;03.43.05.103
12876;171011;34.76;473;03.43.05.114
12908;171013;34.76;474;03.43.05.114
12904;171016;34.76;475;03.43.05.191
12904;171010;34.76;476;03.43.05.191
12892;171012;34.76;477;03.43.05.191
12916;171008;34.76;478;03.43.05.191
12904;171015;34.76;479;03.43.05.191
12888;171017;34.76;480;03.43.05.191
12900;171005;34.76;481;03.43.05.191
12868;171006;34.76;482;03.43.05.202
12888;171011;34.76;483;03.43.05.202
12904;171011;34.76;484;03.43.05.202
12896;171009;34.76;485;03.43.05.202
12884;171002;34.76;486;03.43.05.202
12904;171015;34.76;487;03.43.05.202
12900;171012;34.76;488;03.43.05.202
12908;171013;34.76;489;03.43.05.202
12904;171008;34.76;490;03.43.05.202
12864;171010;34.76;491;03.43.05.202
12904;171010;34.76;492;03.43.05.224
12924;171019;34.76;493;03.43.05.224
12920;171018;34.76;494;03.43.05.224
12904;171021;34.76;495;03.43.05.224
12896;171027;34.76;496;03.43.05.224
12912;171020;34.76;497;03.43.05.224
12900;171025;34.76;498;03.43.05.224
12896;171021;34.76;499;03.43.05.235
12928;171027;34.76;500;03.43.05.322
12896;171020;34.76;501;03.43.05.322
12916;171024;34.76;502;03.43.05.322
12912;171022;34.76;503;03.43.05.333
12908;171013;34.76;504;03.43.05.333
12932;171023;34.76;505;03.43.05.333
12908;171018;34.76;506;03.43.05.333
12900;171027;34.76;507;03.43.05.333
12932;171003;34.76;508;03.43.05.333
12920;171011;34.76;509;03.43.05.333
12884;171009;34.76;510;03.43.05.333
12892;171004;34.76;511;03.43.05.333
12932;171012;34.76;512;03.43.05.333
12900;171007;34.76;513;03.43.05.333
12924;171011;34.76;514;03.43.05.333
12884;171013;34.76;515;03.43.05.333
12904;171011;34.76;516;03.43.05.344
12904;171011;34.76;517;03.43.05.344
12896;171014;34.76;518;03.43.05.344
12892;171010;34.76;519;03.43.05.344
12884;171001;34.76;520;03.43.05.344
12896;171010;34.76;521;03.43.05.344
12896;171005;34.76;522;03.43.05.344
12876;171003;34.76;523;03.43.05.344
12920;171005;34.76;524;03.43.05.344
12880;171005;34.76;525;03.43.05.454
12908;171000;34.76;526;03.43.05.454
12908;171006;34.76;527;03.43.05.454
12916;171003;34.76;528;03.43.05.454
12884;170992;34.76;529;03.43.05.454
12904;170999;34.76;530;03.43.05.454
12928;170999;34.76;531;03.43.05.454
12896;171000;34.76;532;03.43.05.454
12900;170991;34.76;533;03.43.05.454
12884;170999;34.76;534;03.43.05.454
12896;171006;34.76;535;03.43.05.454
12892;170998;34.76;536;03.43.05.465
12896;170991;34.76;537;03.43.05.465
12912;171002;34.76;538;03.43.05.465
12892;170999;34.76;539;03.43.05.465
12912;171000;34.76;540;03.43.05.465
12904;171000;34.76;541;03.43.05.465
12912;171006;34.76;542;03.43.05.465
12904;171010;34.76;543;03.43.05.465
12932;171006;34.76;544;03.43.05.465
12940;171017;34.76;545;03.43.05.465
12876;171014;34.76;546;03.43.05.465
12900;171012;34.76;547;03.43.05.465
12900;171012;34.76;548;03.43.05.465
12928;171018;34.76;549;03.43.05.476
12888;171017;34.80;550;03.43.05.585
12928;171020;34.80;551;03.43.05.585
12908;171021;34.80;552;03.43.05.585
12916;171021;34.80;553;03.43.05.585
12888;171026;34.80;554;03.43.05.585
12936;171029;34.80;555;03.43.05.585
12904;171030;34.80;556;03.43.05.585
12884;171040;34.80;557;03.43.05.586
12900;171039;34.80;558;03.43.05.597
12860;171041;34.80;559;03.43.05.597
12920;171042;34.80;560;03.43.05.597
12872;171045;34.80;561;03.43.05.597
12916;171048;34.80;562;03.43.05.597
12900;171050;34.80;563;03.43.05.597
12908;171049;34.80;564;03.43.05.597
12928;171045;34.80;565;03.43.05.597
12896;171057;34.80;566;03.43.05.608
12920;171045;34.80;567;03.43.05.608
12908;171046;34.80;568;03.43.05.608
12900;171054;34.80;569;03.43.05.608
12928;171051;34.80;570;03.43.05.608
12944;171058;34.80;571;03.43.05.608
12896;171048;34.80;572;03.43.05.608
12900;171056;34.80;573;03.43.05.608
12896;171055;34.80;574;03.43.05.608
12892;171061;34.80;575;03.43.05.685
12908;171061;34.80;576;03.43.05.685
12880;171069;34.80;577;03.43.05.685
12892;171058;34.80;578;03.43.05.685
12916;171065;34.80;579;03.43.05.685
12900;171059;34.80;580;03.43.05.696
12896;171068;34.80;581;03.43.05.696
12896;171063;34.80;582;03.43.05.696
12928;171068;34.80;583;03.43.05.696
12908;171072;34.80;584;03.43.05.696
12928;171080;34.80;585;03.43.05.696
12928;171070;34.80;586;03.43.05.696
12912;171074;34.80;587;03.43.05.696
12884;171067;34.80;588;03.43.05.696
12920;171069;34.80;589;03.43.05.696
12904;171076;34.80;590;03.43.05.696
12904;171066;34.80;591;03.43.05.696
12904;171072;34.80;592;03.43.05.718
12904;171062;34.80;593;03.43.05.718
12908;171066;34.80;594;03.43.05.718
12908;171075;34.80;595;03.43.05.718
12916;171064;34.80;596;03.43.05.718
12896;171065;34.80;597;03.43.05.729
12920;171068;34.80;598;03.43.05.729
12932;171074;34.80;599;03.43.05.729
12904;171061;34.80;600;03.43.05.817
12900;171064;34.80;601;03.43.05.828
12888;171062;34.80;602;03.43.05.828
12892;171043;34.80;603;03.43.05.828
12900;171055;34.80;604;03.43.05.828
12888;171049;34.80;605;03.43.05.828
12904;171042;34.80;606;03.43.05.828
12900;171045;34.80;607;03.43.05.828
12908;171040;34.80;608;03.43.05.828
12916;171035;34.80;609;03.43.05.828
12892;171031;34.80;610;03.43.05.828
12920;171035;34.80;611;03.43.05.828
12928;171034;34.80;612;03.43.05.828
12892;171027;34.80;613;03.43.05.828
12904;171021;34.80;614;03.43.05.839
12916;171018;34.80;615;03.43.05.839
12924;171014;34.80;616;03.43.05.839
12892;171015;34.80;617;03.43.05.839
12912;171014;34.80;618;03.43.05.839
12892;171014;34.80;619;03.43.05.839
12888;171003;34.80;620;03.43.05.839
12932;171007;34.80;621;03.43.05.839
12896;171003;34.80;622;03.43.05.839
12912;171008;34.80;623;03.43.05.839
12916;171006;34.80;624;03.43.05.839
12920;171002;34.80;625;03.43.05.958
12892;170997;34.80;626;03.43.05.958
12912;170996;34.80;627;03.43.05.958
12916;171007;34.80;628;03.43.05.958
12872;171005;34.80;629;03.43.05.958
12880;171007;34.80;630;03.43.05.958
12916;171002;34.80;631;03.43.05.958
12904;170998;34.80;632;03.43.05.958
12904;170997;34.80;633;03.43.05.958
12892;170999;34.80;634;03.43.05.958
12916;170985;34.80;635;03.43.05.969
12888;170996;34.80;636;03.43.05.969
12892;170995;34.80;637;03.43.05.969
12896;170988;34.80;638;03.43.05.969
12884;170989;34.80;639;03.43.05.969
12900;170998;34.80;640;03.43.05.969
12900;171005;34.80;641;03.43.05.969
12888;170997;34.80;642;03.43.05.969
12908;170994;34.80;643;03.43.05.969
12900;170988;34.80;644;03.43.05.969
12912;171002;34.80;645;03.43.05.969
12900;171008;34.80;646;03.43.05.969
12924;170999;34.80;647;03.43.05.980
12888;170993;34.80;648;03.43.05.980
12892;170994;34.80;649;03.43.05.980
12928;170992;34.80;650;03.43.06.090
12908;171002;34.80;651;03.43.06.090
12928;171003;34.80;652;03.43.06.090
12892;171010;34.80;653;03.43.06.090
12892;171004;34.80;654;03.43.06.090
12884;171005;34.80;655;03.43.06.101
12892;171000;34.80;656;03.43.06.101
12896;171005;34.80;657;03.43.06.101
12896;170999;34.80;658;03.43.06.101
12916;171010;34.80;659;03.43.06.101
12892;171011;34.80;660;03.43.06.101
12872;171006;34.80;661;03.43.06.101
12904;171002;34.80;662;03.43.06.101
12904;170997;34.80;663;03.43.06.101
12912;170999;34.80;664;03.43.06.101
12912;171000;34.80;665;03.43.06.101
12896;170998;34.80;666;03.43.06.101
12892;171015;34.80;667;03.43.06.101
12892;171001;34.80;668;03.43.06.112
12900;171000;34.80;669;03.43.06.112
12896;171001;34.80;670;03.43.06.112
12912;170997;34.80;671;03.43.06.112
12892;170992;34.80;672;03.43.06.112
12904;170991;34.80;673;03.43.06.112
12928;170997;34.80;674;03.43.06.112
12868;170987;34.80;675;03.43.06.189
12888;170993;34.80;676;03.43.06.189
12928;171007;34.80;677;03.43.06.189
12912;171003;34.80;678;03.43.06.200
12884;170993;34.80;679;03.43.06.200
12884;171006;34.80;680;03.43.06.200
12916;171005;34.80;681;03.43.06.200
12896;171015;34.80;682;03.43.06.200
12904;171006;34.80;683;03.43.06.200
12912;171016;34.80;684;03.43.06.200
12880;171031;34.80;685;03.43.06.200
12908;171027;34.80;686;03.43.06.200
12912;171031;34.80;687;03.43.06.200
12912;171028;34.80;688;03.43.06.212
12876;171033;34.80;689;03.43.06.212
12904;171044;34.80;690;03.43.06.212
12892;171043;34.80;691;03.43.06.212
12912;171039;34.80;692;03.43.06.223
12892;171049;34.80;693;03.43.06.223
12916;171058;34.80;694;03.43.06.223
12876;171057;34.80;695;03.43.06.223
12876;171070;34.80;696;03.43.06.234
12892;171062;34.80;697;03.43.06.234
12896;171060;34.80;698;03.43.06.234
12928;171067;34.80;699;03.43.06.234
12892;171067;34.80;700;03.43.06.321
12896;171071;34.80;701;03.43.06.321
12900;171066;34.80;702;03.43.06.321
12872;171068;34.80;703;03.43.06.321
12896;171064;34.80;704;03.43.06.321
12888;171067;34.80;705;03.43.06.321
12920;171071;34.80;706;03.43.06.321
12904;171065;34.80;707;03.43.06.321
12900;171074;34.80;708;03.43.06.321
12892;171065;34.80;709;03.43.06.321
12904;171063;34.80;710;03.43.06.321
12880;171068;34.80;711;03.43.06.321
12908;171071;34.80;712;03.43.06.332
12888;171081;34.80;713;03.43.06.332
12896;171065;34.80;714;03.43.06.332
12892;171078;34.80;715;03.43.06.332
12892;171072;34.80;716;03.43.06.332
12892;171071;34.80;717;03.43.06.332
12912;171074;34.80;718;03.43.06.332
12880;171070;34.80;719;03.43.06.332
12928;171074;34.80;720;03.43.06.332
12888;171074;34.80;721;03.43.06.332
12888;171077;34.80;722;03.43.06.332
12916;171082;34.80;723;03.43.06.332
12960;171080;34.80;724;03.43.06.332
12888;171074;34.80;725;03.43.06.453
12912;171072;34.80;726;03.43.06.453
12884;171075;34.80;727;03.43.06.453
12912;171073;34.80;728;03.43.06.453
12928;171080;34.80;729;03.43.06.453
12928;171069;34.80;730;03.43.06.453
12896;171074;34.80;731;03.43.06.453
12888;171078;34.80;732;03.43.06.453
12876;171079;34.80;733;03.43.06.453
12892;171077;34.80;734;03.43.06.465
12908;171067;34.80;735;03.43.06.465
12896;171068;34.80;736;03.43.06.465
12912;171071;34.80;737;03.43.06.465
12900;171081;34.80;738;03.43.06.465
12896;171071;34.80;739;03.43.06.465
12928;171086;34.80;740;03.43.06.465
12932;171074;34.80;741;03.43.06.465
12876;171078;34.80;742;03.43.06.465
12892;171076;34.80;743;03.43.06.465
12908;171072;34.80;744;03.43.06.465
12896;171082;34.80;745;03.43.06.465
12860;171079;34.80;746;03.43.06.465
12896;171091;34.80;747;03.43.06.465
12900;171085;34.80;748;03.43.06.465
12896;171083;34.80;749;03.43.06.478
12900;171083;34.80;750;03.43.06.588
12912;171087;34.80;751;03.43.06.588
12904;171095;34.80;752;03.43.06.588
12916;171084;34.80;753;03.43.06.588
12900;171077;34.80;754;03.43.06.588
12876;171066;34.80;755;03.43.06.588
12908;171067;34.80;756;03.43.06.588
12928;171059;34.80;757;03.43.06.588
12904;171066;34.80;758;03.43.06.588
12892;171054;34.80;759;03.43.06.588
12924;171055;34.80;760;03.43.06.599
12900;171045;34.80;761;03.43.06.599
12924;171045;34.80;762;03.43.06.599
12888;171036;34.80;763;03.43.06.599
12912;171036;34.80;764;03.43.06.599
12856;171027;34.80;765;03.43.06.599
12860;171031;34.80;766;03.43.06.599
12928;171036;34.80;767;03.43.06.631
12884;171019;34.80;768;03.43.06.631
12928;171017;34.80;769;03.43.06.631
12912;171019;34.80;770;03.43.06.631
12904;171015;34.80;771;03.43.06.631
12912;171004;34.80;772;03.43.06.631
12900;171005;34.80;773;03.43.06.631
12932;170994;34.80;774;03.43.06.631
12896;170999;34.80;775;03.43.06.686
12900;170998;34.80;776;03.43.06.686
12892;170994;34.80;777;03.43.06.686
12912;170999;34.80;778;03.43.06.686
12908;170994;34.80;779;03.43.06.686
12892;171002;34.80;780;03.43.06.686
12880;170988;34.80;781;03.43.06.697
12860;170990;34.80;782;03.43.06.697
12916;170993;34.80;783;03.43.06.697
12916;170993;34.80;784;03.43.06.697
12900;170991;34.80;785;03.43.06.697
12904;170994;34.80;786;03.43.06.697
12884;170996;34.80;787;03.43.06.697
12916;170994;34.80;788;03.43.06.697
12912;170994;34.80;789;03.43.06.697
12904;170994;34.80;790;03.43.06.708
12892;170996;34.80;791;03.43.06.708
12916;170991;34.80;792;03.43.06.719
12896;170991;34.80;793;03.43.06.719
12924;170993;34.80;794;03.43.06.719
12916;170997;34.80;795;03.43.06.719
12928;170992;34.80;796;03.43.06.719
12908;170985;34.80;797;03.43.06.719
12892;171004;34.80;798;03.43.06.730
12900;170988;34.80;799;03.43.06.730
12912;170997;34.76;800;03.43.06.807
12892;170988;34.76;801;03.43.06.818
12908;170991;34.76;802;03.43.06.818
12904;170992;34.76;803;03.43.06.818
12904;170987;34.76;804;03.43.06.818
12920;170983;34.76;805;03.43.06.818
12912;170981;34.76;806;03.43.06.818
12912;170981;34.76;807;03.43.06.818
12896;170985;34.76;808;03.43.06.818
12912;170982;34.76;809;03.43.06.818
12928;170979;34.76;810;03.43.06.818
12900;170985;34.76;811;03.43.06.818
12900;170983;34.76;812;03.43.06.818
12900;170976;34.76;813;03.43.06.818
12896;170985;34.76;814;03.43.06.829
12924;170980;34.76;815;03.43.06.829
12892;170972;34.76;816;03.43.06.829
12904;170971;34.76;817;03.43.06.829
12920;170975;34.76;818;03.43.06.829
12896;170975;34.76;819;03.43.06.829
12896;170979;34.76;820;03.43.06.829
12900;170974;34.76;821;03.43.06.829
12888;170966;34.76;822;03.43.06.829
12944;170964;34.76;823;03.43.06.829
12888;170964;34.76;824;03.43.06.829
12904;170970;34.76;825;03.43.06.949
12892;170968;34.76;826;03.43.06.949
12892;170963;34.76;827;03.43.06.949
12920;170962;34.76;828;03.43.06.949
12908;170953;34.76;829;03.43.06.949
12888;170966;34.76;830;03.43.06.949
12892;170954;34.76;831;03.43.06.949
12904;170969;34.76;832;03.43.06.949
12884;170965;34.76;833;03.43.06.949
12912;170964;34.76;834;03.43.06.949
12896;170961;34.76;835;03.43.06.960
12892;170956;34.76;836;03.43.06.960
12888;170957;34.76;837;03.43.06.960
12916;170961;34.76;838;03.43.06.960
12904;170958;34.76;839;03.43.06.960
12912;170958;34.76;840;03.43.06.960
12928;170964;34.76;841;03.43.06.960
12916;170964;34.76;842;03.43.06.960
12896;170954;34.76;843;03.43.06.960
12884;170964;34.76;844;03.43.06.960
12888;170960;34.76;845;03.43.06.960
12892;170964;34.76;846;03.43.06.960
12884;170958;34.76;847;03.43.06.960
12896;170968;34.76;848;03.43.06.970
12904;170959;34.76;849;03.43.06.970
12896;170959;34.80;850;03.43.07.080
12916;170964;34.80;851;03.43.07.080
12916;170970;34.80;852;03.43.07.080
12892;170964;34.80;853;03.43.07.080
12892;170971;34.80;854;03.43.07.080
12892;170966;34.80;855;03.43.07.080
12888;170960;34.80;856;03.43.07.091
12920;170968;34.80;857;03.43.07.091
12892;170966;34.80;858;03.43.07.091
12896;170965;34.80;859;03.43.07.091
12896;170970;34.80;860;03.43.07.091
12920;170970;34.80;861;03.43.07.091
12912;170967;34.80;862;03.43.07.091
12876;170974;34.80;863;03.43.07.091
12888;170960;34.80;864;03.43.07.102
12900;170965;34.80;865;03.43.07.102
12904;170968;34.80;866;03.43.07.102
12908;170972;34.80;867;03.43.07.102
12908;170965;34.80;868;03.43.07.102
12896;170965;34.80;869;03.43.07.102
12892;170976;34.80;870;03.43.07.102
12908;170972;34.80;871;03.43.07.102
12928;170974;34.80;872;03.43.07.102
12904;170978;34.80;873;03.43.07.102
12892;170977;34.80;874;03.43.07.102
12928;170978;34.80;875;03.43.07.190
12864;170980;34.80;876;03.43.07.190
12892;170984;34.80;877;03.43.07.201
12892;170976;34.80;878;03.43.07.201
12904;170978;34.80;879;03.43.07.201
12888;170975;34.80;880;03.43.07.201
12904;170982;34.80;881;03.43.07.201
12892;170989;34.80;882;03.43.07.201
12916;170983;34.80;883;03.43.07.212
12896;170995;34.80;884;03.43.07.212
12912;170990;34.80;885;03.43.07.212
12892;170990;34.80;886;03.43.07.212
12880;170992;34.80;887;03.43.07.223
12884;170987;34.80;888;03.43.07.223
12900;170992;34.80;889;03.43.07.223
12896;170993;34.80;890;03.43.07.223
12876;170994;34.80;891;03.43.07.223
12892;170999;34.80;892;03.43.07.223
12888;170995;34.80;893;03.43.07.223
12884;171000;34.80;894;03.43.07.223
12896;170998;34.80;895;03.43.07.223
12928;170990;34.80;896;03.43.07.223
12932;170989;34.80;897;03.43.07.223
12892;170976;34.80;898;03.43.07.223
12916;170980;34.80;899;03.43.07.223
12884;170969;34.80;900;03.43.07.322
12928;170971;34.80;901;03.43.07.322
12924;170970;34.80;902;03.43.07.322
12892;170962;34.80;903;03.43.07.322
12916;170958;34.80;904;03.43.07.322
12904;170950;34.80;905;03.43.07.322
12944;170942;34.80;906;03.43.07.322
12908;170948;34.80;907;03.43.07.322
12932;170931;34.80;908;03.43.07.322
12912;170937;34.80;909;03.43.07.322
12884;170931;34.80;910;03.43.07.322
12908;170925;34.80;911;03.43.07.322
12900;170928;34.80;912;03.43.07.333
12900;170921;34.80;913;03.43.07.333
12888;170921;34.80;914;03.43.07.333
12904;170912;34.80;915;03.43.07.333
12904;170909;34.80;916;03.43.07.333
12892;170901;34.80;917;03.43.07.333
12884;170909;34.80;918;03.43.07.333
12904;170908;34.80;919;03.43.07.333
12916;170904;34.80;920;03.43.07.333
12904;170903;34.80;921;03.43.07.333
12892;170906;34.80;922;03.43.07.333
12892;170905;34.80;923;03.43.07.333
12912;170899;34.80;924;03.43.07.333
12908;170898;34.80;925;03.43.07.442
12900;170895;34.80;926;03.43.07.442
12904;170894;34.80;927;03.43.07.442
12912;170900;34.80;928;03.43.07.442
12928;170900;34.80;929;03.43.07.442
12908;170893;34.80;930;03.43.07.442
12912;170897;34.80;931;03.43.07.442
12884;170895;34.80;932;03.43.07.442
12928;170901;34.80;933;03.43.07.442
12928;170900;34.80;934;03.43.07.453
12908;170900;34.80;935;03.43.07.453
12916;170892;34.80;936;03.43.07.453
12928;170906;34.80;937;03.43.07.453
12936;170901;34.80;938;03.43.07.453
12892;170905;34.80;939;03.43.07.453
12928;170909;34.80;940;03.43.07.453
12904;170914;34.80;941;03.43.07.453
12896;170918;34.80;942;03.43.07.453
12880;170908;34.80;943;03.43.07.453
12872;170922;34.80;944;03.43.07.453
12896;170913;34.80;945;03.43.07.453
12896;170906;34.80;946;03.43.07.464
12892;170912;34.80;947;03.43.07.464
12892;170912;34.80;948;03.43.07.464
12916;170906;34.80;949;03.43.07.464
12892;170911;34.80;950;03.43.07.574
12928;170917;34.80;951;03.43.07.574
12904;170917;34.80;952;03.43.07.574
12908;170910;34.80;953;03.43.07.574
12912;170915;34.80;954;03.43.07.585
12928;170911;34.80;955;03.43.07.585
12908;170914;34.80;956;03.43.07.585
12896;170911;34.80;957;03.43.07.585
12908;170905;34.80;958;03.43.07.585
12908;170897;34.80;959;03.43.07.585
12896;170911;34.80;960;03.43.07.585
12876;170918;34.80;961;03.43.07.585
12884;170907;34.80;962;03.43.07.585
12888;170914;34.80;963;03.43.07.585
12896;170911;34.80;964;03.43.07.585
12904;170911;34.80;965;03.43.07.585
12912;170914;34.80;966;03.43.07.585
12896;170914;34.80;967;03.43.07.596
12892;170918;34.80;968;03.43.07.596
12892;170924;34.80;969;03.43.07.596
12900;170923;34.80;970;03.43.07.596
12928;170905;34.80;971;03.43.07.596
12912;170917;34.80;972;03.43.07.596
12892;170920;34.80;973;03.43.07.596
12904;170920;34.80;974;03.43.07.596
12892;170920;34.80;975;03.43.07.695
12928;170919;34.80;976;03.43.07.695
12912;170920;34.80;977;03.43.07.695
12892;170930;34.80;978;03.43.07.695
12884;170926;34.80;979;03.43.07.695
12880;170927;34.80;980;03.43.07.695
12884;170923;34.80;981;03.43.07.695
12904;170929;34.80;982;03.43.07.695
12892;170936;34.80;983;03.43.07.706
12892;170927;34.80;984;03.43.07.706
12916;170940;34.80;985;03.43.07.706
12928;170947;34.80;986;03.43.07.706
12928;170943;34.80;987;03.43.07.706
12928;170937;34.80;988;03.43.07.706
12912;170934;34.80;989;03.43.07.706
12928;170944;34.80;990;03.43.07.706
12904;170945;34.80;991;03.43.07.706
12884;170941;34.80;992;03.43.07.706
12936;170939;34.80;993;03.43.07.706
12912;170948;34.80;994;03.43.07.706
12928;170945;34.80;995;03.43.07.706
12908;170949;34.80;996;03.43.07.716
12920;170946;34.80;997;03.43.07.716
12896;170956;34.80;998;03.43.07.716
12932;170949;34.80;999;03.43.07.716
12904;170947;34.80;000;03.43.07.815
12884;170957;34.80;001;03.43.07.815
12912;170961;34.80;002;03.43.07.815
12892;170959;34.80;003;03.43.07.815
12904;170966;34.80;004;03.43.07.815
12908;170959;34.80;005;03.43.07.815
12908;170970;34.80;006;03.43.07.815
12908;170963;34.80;007;03.43.07.815
12916;170967;34.80;008;03.43.07.815
12900;170967;34.80;009;03.43.07.815
12884;170968;34.80;010;03.43.07.826
12928;170967;34.80;011;03.43.07.826
12928;170972;34.80;012;03.43.07.826
12908;170970;34.80;013;03.43.07.826
12892;170976;34.80;014;03.43.07.826
12912;170978;34.80;015;03.43.07.826
12912;170986;34.80;016;03.43.07.826
12888;170981;34.80;017;03.43.07.848
12876;170985;34.80;018;03.43.07.848
12928;170990;34.80;019;03.43.07.848
12908;170992;34.80;020;03.43.07.848
12904;170993;34.80;021;03.43.07.848
12912;170993;34.80;022;03.43.07.848
12904;170992;34.80;023;03.43.07.848
12924;170986;34.80;024;03.43.07.848
12884;170978;34.80;025;03.43.07.936
12912;170992;34.80;026;03.43.07.936
12912;170987;34.80;027;03.43.07.936
12896;170982;34.80;028;03.43.07.936
12924;170991;34.80;029;03.43.07.936
12912;170978;34.80;030;03.43.07.936
12884;170976;34.80;031;03.43.07.936
12912;170980;34.80;032;03.43.07.947
12928;170970;34.80;033;03.43.07.947
12876;170971;34.80;034;03.43.07.947
12920;170959;34.80;035;03.43.07.947
12920;170953;34.80;036;03.43.07.947
12904;170947;34.80;037;03.43.07.947
12900;170950;34.80;038;03.43.07.947
12908;170944;34.80;039;03.43.07.947
12884;170935;34.80;040;03.43.07.947
12928;170941;34.80;041;03.43.07.947
12860;170935;34.80;042;03.43.07.947
12900;170931;34.80;043;03.43.07.947
12904;170929;34.80;044;03.43.07.947
12928;170925;34.80;045;03.43.07.958
12912;170922;34.80;046;03.43.07.958
12912;170923;34.80;047;03.43.07.958
12896;170918;34.80;048;03.43.07.958
12916;170916;34.80;049;03.43.07.958
12876;170912;34.80;050;03.43.08.067
12916;170911;34.80;051;03.43.08.067
12888;170904;34.80;052;03.43.08.067
12928;170911;34.80;053;03.43.08.078
12884;170916;34.80;054;03.43.08.078
12912;170917;34.80;055;03.43.08.078
12884;170911;34.80;056;03.43.08.078
12928;170909;34.80;057;03.43.08.078
12908;170909;34.80;058;03.43.08.078
12900;170913;34.80;059;03.43.08.078
12932;170914;34.80;060;03.43.08.078
12900;170916;34.80;061;03.43.08.078
12908;170915;34.80;062;03.43.08.078
12908;170919;34.80;063;03.43.08.078
12908;170915;34.80;064;03.43.08.078
12904;170912;34.80;065;03.43.08.078
12916;170911;34.80;066;03.43.08.089
12904;170919;34.80;067;03.43.08.089
12904;170915;34.80;068;03.43.08.089
12928;170910;34.80;069;03.43.08.089
12932;170922;34.80;070;03.43.08.089
12916;170920;34.80;071;03.43.08.089
12876;170928;34.80;072;03.43.08.089
12912;170929;34.80;073;03.43.08.089
12912;170931;34.80;074;03.43.08.089
12904;170925;34.80;075;03.43.08.210
12884;170924;34.80;076;03.43.08.210
12908;170918;34.80;077;03.43.08.210
12928;170918;34.80;078;03.43.08.210
12932;170927;34.80;079;03.43.08.210
12904;170927;34.80;080;03.43.08.210
12896;170935;34.80;081;03.43.08.210
12888;170924;34.80;082;03.43.08.210
12884;170928;34.80;083;03.43.08.210
12916;170926;34.80;084;03.43.08.210
12892;170932;34.80;085;03.43.08.210
12908;170932;34.80;086;03.43.08.221
12916;170936;34.80;087;03.43.08.221
12908;170926;34.80;088;03.43.08.221
12904;170936;34.80;089;03.43.08.221
12904;170932;34.80;090;03.43.08.221
12892;170930;34.80;091;03.43.08.221
12908;170931;34.80;092;03.43.08.221
12900;170922;34.80;093;03.43.08.221
12912;170922;34.80;094;03.43.08.221
12912;170918;34.80;095;03.43.08.221
12876;170924;34.80;096;03.43.08.221
12912;170916;34.80;097;03.43.08.221
12900;170920;34.80;098;03.43.08.221
12884;170922;34.80;099;03.43.08.232
12888;170922;34.76;100;03.43.08.320
12908;170918;34.76;101;03.43.08.320
12904;170925;34.76;102;03.43.08.320
12884;170926;34.76;103;03.43.08.320
12892;170926;34.76;104;03.43.08.320
12884;170926;34.76;105;03.43.08.320
12908;170916;34.76;106;03.43.08.320
12912;170929;34.76;107;03.43.08.320
12932;170925;34.76;108;03.43.08.342
12908;170929;34.76;109;03.43.08.342
12904;170920;34.76;110;03.43.08.342
12928;170923;34.76;111;03.43.08.342
12908;170925;34.76;112;03.43.08.342
12892;170925;34.76;113;03.43.08.342
12892;170932;34.76;114;03.43.08.342
12920;170929;34.76;115;03.43.08.353
12912;170933;34.76;116;03.43.08.353
12912;170935;34.76;117;03.43.08.353
12896;170936;34.76;118;03.43.08.353
12892;170932;34.76;119;03.43.08.353
12928;170939;34.76;120;03.43.08.353
12888;170940;34.76;121;03.43.08.353
12908;170939;34.76;122;03.43.08.353
12880;170936;34.76;123;03.43.08.353
12908;170942;34.76;124;03.43.08.353
12908;170937;34.76;125;03.43.08.440
12884;170941;34.76;126;03.43.08.440
12892;170937;34.76;127;03.43.08.440
12904;170944;34.76;128;03.43.08.440
12912;170943;34.76;129;03.43.08.440
12920;170946;34.76;130;03.43.08.451
12908;170956;34.76;131;03.43.08.451
12900;170953;34.76;132;03.43.08.451
12920;170952;34.76;133;03.43.08.451
12932;170945;34.76;134;03.43.08.451
12920;170949;34.76;135;03.43.08.451
12896;170956;34.76;136;03.43.08.451
12892;170950;34.76;137;03.43.08.451
12912;170960;34.76;138;03.43.08.451
12912;170956;34.76;139;03.43.08.451
12908;170955;34.76;140;03.43.08.451
12896;170959;34.76;141;03.43.08.451
12928;170959;34.76;142;03.43.08.462
12888;170961;34.76;143;03.43.08.462
12900;170958;34.76;144;03.43.08.462
12892;170958;34.76;145;03.43.08.462
12892;170962;34.76;146;03.43.08.462
12912;170964;34.76;147;03.43.08.462
12896;170975;34.76;148;03.43.08.462
12900;170964;34.76;149;03.43.08.462
12896;170967;34.80;150;03.43.08.561
12896;170969;34.80;151;03.43.08.562
12912;170981;34.80;152;03.43.08.562
12904;170975;34.80;153;03.43.08.563
12892;170979;34.80;154;03.43.08.575
12892;170983;34.80;155;03.43.08.575
12928;170979;34.80;156;03.43.08.575
12944;170982;34.80;157;03.43.08.575
12908;170985;34.80;158;03.43.08.575
12916;170989;34.80;159;03.43.08.575
12900;170983;34.80;160;03.43.08.575
12896;170986;34.80;161;03.43.08.575
12912;170994;34.80;162;03.43.08.575
12928;170989;34.80;163;03.43.08.575
12928;170989;34.80;164;03.43.08.575
12880;170985;34.80;165;03.43.08.575
12892;170993;34.80;166;03.43.08.575
12908;170995;34.80;167;03.43.08.586
12888;170990;34.80;168;03.43.08.586
12928;170994;34.80;169;03.43.08.586
12900;170992;34.80;170;03.43.08.586
12892;170997;34.80;171;03.43.08.586
12920;170990;34.80;172;03.43.08.586
12908;170981;34.80;173;03.43.08.586
12916;170980;34.80;174;03.43.08.586
12888;170977;34.80;175;03.43.08.707
12884;170975;34.80;176;03.43.08.707
12888;170963;34.80;177;03.43.08.707
12908;170966;34.80;178;03.43.08.707
12908;170963;34.80;179;03.43.08.707
12900;170954;34.80;180;03.43.08.707
12936;170949;34.80;181;03.43.08.707
12892;170946;34.80;182;03.43.08.707
12904;170933;34.80;183;03.43.08.707
12892;170944;34.80;184;03.43.08.707
12892;170938;34.80;185;03.43.08.707
12904;170937;34.80;186;03.43.08.707
12916;170933;34.80;187;03.43.08.707
12896;170921;34.80;188;03.43.08.718
12896;170931;34.80;189;03.43.08.718
12896;170925;34.80;190;03.43.08.718
12900;170928;34.80;191;03.43.08.718
12924;170927;34.80;192;03.43.08.718
12912;170921;34.80;193;03.43.08.718
12916;170907;34.80;194;03.43.08.718
12892;170914;34.80;195;03.43.08.718
12880;170922;34.80;196;03.43.08.718
12892;170910;34.80;197;03.43.08.718
12932;170911;34.80;198;03.43.08.718
12924;170913;34.80;199;03.43.08.718
12908;170915;34.80;200;03.43.08.816
12892;170912;34.80;201;03.43.08.816
12932;170919;34.80;202;03.43.08.816
12904;170917;34.80;203;03.43.08.816
12908;170915;34.80;204;03.43.08.816
12916;170911;34.80;205;03.43.08.816
12904;170921;34.80;206;03.43.08.816
12872;170919;34.80;207;03.43.08.816
12916;170915;34.80;208;03.43.08.827
12912;170913;34.80;209;03.43.08.827
12884;170911;34.80;210;03.43.08.827
12936;170912;34.80;211;03.43.08.827
12896;170920;34.80;212;03.43.08.827
12924;170927;34.80;213;03.43.08.827
12908;170925;34.80;214;03.43.08.827
12860;170924;34.80;215;03.43.08.827
12928;170927;34.80;216;03.43.08.827
12928;170928;34.80;217;03.43.08.838
12920;170919;34.80;218;03.43.08.838
12884;170923;34.80;219;03.43.08.838
12924;170932;34.80;220;03.43.08.838
12928;170932;34.80;221;03.43.08.838
12896;170927;34.80;222;03.43.08.838
12896;170930;34.80;223;03.43.08.838
12908;170927;34.80;224;03.43.08.838
12908;170939;34.80;225;03.43.08.937
12932;170935;34.80;226;03.43.08.937
12892;170938;34.80;227;03.43.08.937
12920;170941;34.80;228;03.43.08.937
12904;170936;34.80;229;03.43.08.937
12920;170936;34.80;230;03.43.08.937
12932;170938;34.80;231;03.43.08.937
12920;170937;34.80;232;03.43.08.948
12912;170935;34.80;233;03.43.08.948
12904;170937;34.80;234;03.43.08.948
12912;170926;34.80;235;03.43.08.948
12912;170929;34.80;236;03.43.08.948
12892;170939;34.80;237;03.43.08.948
12912;170950;34.80;238;03.43.08.948
12904;170933;34.80;239;03.43.08.948
12900;170928;34.80;240;03.43.08.948
12900;170933;34.80;241;03.43.08.948
12912;170927;34.80;242;03.43.08.948
12928;170935;34.80;243;03.43.08.948
12912;170926;34.80;244;03.43.08.948
12928;170925;34.80;245;03.43.08.959
12896;170928;34.80;246;03.43.08.959
12860;170928;34.80;247;03.43.08.959
12920;170927;34.80;248;03.43.08.959
12896;170928;34.80;249;03.43.08.959
12916;170933;34.80;250;03.43.09.069
12928;170921;34.80;251;03.43.09.069
12912;170927;34.80;252;03.43.09.080
12900;170931;34.80;253;03.43.09.080
12928;170931;34.80;254;03.43.09.080
12912;170918;34.80;255;03.43.09.080
12900;170931;34.80;256;03.43.09.080
12920;170929;34.80;257;03.43.09.080
12884;170929;34.80;258;03.43.09.080
12908;170930;34.80;259;03.43.09.080
12912;170936;34.80;260;03.43.09.080
12888;170932;34.80;261;03.43.09.080
12900;170944;34.80;262;03.43.09.080
12904;170936;34.80;263;03.43.09.080
12868;170934;34.80;264;03.43.09.080
12920;170937;34.80;265;03.43.09.091
12888;170941;34.80;266;03.43.09.091
12912;170934;34.80;267;03.43.09.091
12944;170942;34.80;268;03.43.09.091
12912;170944;34.80;269;03.43.09.091
12936;170944;34.80;270;03.43.09.091
12884;170953;34.80;271;03.43.09.091
12904;170952;34.80;272;03.43.09.091
12888;170949;34.80;273;03.43.09.091
12904;170952;34.80;274;03.43.09.091
12900;170960;34.80;275;03.43.09.211
12892;170961;34.80;276;03.43.09.211
12904;170959;34.80;277;03.43.09.211
12884;170958;34.80;278;03.43.09.211
12892;170964;34.80;279;03.43.09.211
12896;170961;34.80;280;03.43.09.211
12928;170962;34.80;281;03.43.09.211
12892;170966;34.80;282;03.43.09.211
12876;170960;34.80;283;03.43.09.211
12932;170973;34.80;284;03.43.09.211
12876;170965;34.80;285;03.43.09.211
12900;170963;34.80;286;03.43.09.211
12908;170961;34.80;287;03.43.09.222
12912;170967;34.80;288;03.43.09.222
12912;170971;34.80;289;03.43.09.222
12908;170969;34.80;290;03.43.09.222
12888;170973;34.80;291;03.43.09.222
12928;170970;34.80;292;03.43.09.222
12892;170964;34.80;293;03.43.09.222
12904;170968;34.80;294;03.43.09.222
12900;170970;34.80;295;03.43.09.222
12884;170975;34.80;296;03.43.09.222
12916;170972;34.80;297;03.43.09.222
12892;170972;34.80;298;03.43.09.222
12928;170976;34.80;299;03.43.09.233
12912;170982;34.80;300;03.43.09.321
12912;170978;34.80;301;03.43.09.321
12912;170978;34.80;302;03.43.09.321
12900;170980;34.80;303;03.43.09.321
12928;170976;34.80;304;03.43.09.321
12904;170973;34.80;305;03.43.09.321
12928;170977;34.80;306;03.43.09.321
12924;170975;34.80;307;03.43.09.321
12900;170977;34.80;308;03.43.09.343
12916;170979;34.80;309;03.43.09.343
12896;170977;34.80;310;03.43.09.343
12932;170975;34.80;311;03.43.09.343
12900;170981;34.80;312;03.43.09.343
12904;170977;34.80;313;03.43.09.343
12892;170981;34.80;314;03.43.09.343
12920;170978;34.80;315;03.43.09.343
12888;170977;34.80;316;03.43.09.354
12904;170972;34.80;317;03.43.09.354
12896;170974;34.80;318;03.43.09.354
12908;170963;34.80;319;03.43.09.354
12896;170974;34.80;320;03.43.09.354
12888;170960;34.80;321;03.43.09.354
12916;170966;34.80;322;03.43.09.354
12892;170961;34.80;323;03.43.09.354
12892;170960;34.80;324;03.43.09.354
12900;170948;34.80;325;03.43.09.441
12900;170951;34.80;326;03.43.09.441
12916;170943;34.80;327;03.43.09.441
12928;170946;34.80;328;03.43.09.441
12908;170940;34.80;329;03.43.09.452
12880;170933;34.80;330;03.43.09.452
12932;170939;34.80;331;03.43.09.452
12888;170927;34.80;332;03.43.09.452
12900;170918;34.80;333;03.43.09.452
12892;170919;34.80;334;03.43.09.452
12892;170920;34.80;335;03.43.09.452
12928;170925;34.80;336;03.43.09.452
12852;170909;34.80;337;03.43.09.452
12908;170908;34.80;338;03.43.09.463
12892;170903;34.80;339;03.43.09.463
12892;170897;34.80;340;03.43.09.463
12912;170902;34.80;341;03.43.09.463
12892;170893;34.80;342;03.43.09.485
12928;170887;34.80;343;03.43.09.485
12904;170896;34.80;344;03.43.09.485
12916;170898;34.80;345;03.43.09.496
12884;170896;34.80;346;03.43.09.496
12876;170900;34.80;347;03.43.09.496
12892;170904;34.80;348;03.43.09.496
12940;170896;34.80;349;03.43.09.496
12916;170899;34.76;350;03.43.09.572
12900;170893;34.76;351;03.43.09.572
12900;170905;34.76;352;03.43.09.572
12904;170903;34.76;353;03.43.09.572
12920;170914;34.76;354;03.43.09.572
12912;170900;34.76;355;03.43.09.572
12900;170906;34.76;356;03.43.09.572
12912;170903;34.76;357;03.43.09.572
12916;170907;34.76;358;03.43.09.572
12912;170911;34.76;359;03.43.09.572
12892;170912;34.76;360;03.43.09.572
12892;170915;34.76;361;03.43.09.572
12932;170908;34.76;362;03.43.09.583
12916;170911;34.76;363;03.43.09.583
12920;170915;34.76;364;03.43.09.583
12908;170912;34.76;365;03.43.09.583
12904;170922;34.76;366;03.43.09.583
12916;170921;34.76;367;03.43.09.583
12928;170920;34.76;368;03.43.09.583
12892;170920;34.76;369;03.43.09.583
12904;170915;34.76;370;03.43.09.583
12912;170909;34.76;371;03.43.09.583
12928;170919;34.76;372;03.43.09.583
12900;170918;34.76;373;03.43.09.583
12908;170918;34.76;374;03.43.09.594
12904;170922;34.76;375;03.43.09.704
12920;170909;34.76;376;03.43.09.704
12912;170920;34.76;377;03.43.09.704
12884;170916;34.76;378;03.43.09.704
12904;170913;34.76;379;03.43.09.704
12904;170907;34.76;380;03.43.09.704
12916;170910;34.76;381;03.43.09.704
12892;170906;34.76;382;03.43.09.704
12928;170908;34.76;383;03.43.09.704
12908;170911;34.76;384;03.43.09.715
12928;170903;34.76;385;03.43.09.715
12900;170904;34.76;386;03.43.09.715
12936;170913;34.76;387;03.43.09.715
12932;170908;34.76;388;03.43.09.715
12892;170912;34.76;389;03.43.09.715
12888;170914;34.76;390;03.43.09.715
12896;170912;34.76;391;03.43.09.715
12904;170915;34.76;392;03.43.09.715
12896;170913;34.76;393;03.43.09.715
12916;170916;34.76;394;03.43.09.715
12924;170921;34.76;395;03.43.09.715
12896;170907;34.76;396;03.43.09.726
12928;170916;34.76;397;03.43.09.726
12884;170917;34.76;398;03.43.09.726
12924;170913;34.76;399;03.43.09.726
12892;170918;34.80;400;03.43.09.836
12900;170922;34.80;401;03.43.09.836
12916;170918;34.80;402;03.43.09.836
12928;170917;34.80;403;03.43.09.836
12916;170921;34.80;404;03.43.09.836
12904;170921;34.80;405;03.43.09.847
12876;170924;34.80;406;03.43.09.847
12908;170926;34.80;407;03.43.09.847
12900;170929;34.80;408;03.43.09.847
12936;170932;34.80;409;03.43.09.847
12892;170928;34.80;410;03.43.09.847
12908;170929;34.80;411;03.43.09.847
12904;170925;34.80;412;03.43.09.847
12896;170925;34.80;413;03.43.09.847
12896;170929;34.80;414;03.43.09.847
12928;170935;34.80;415;03.43.09.847
12872;170935;34.80;416;03.43.09.847
12912;170941;34.80;417;03.43.09.847
12872;170936;34.80;418;03.43.09.857
12904;170929;34.80;419;03.43.09.857
12884;170931;34.80;420;03.43.09.857
12896;170932;34.80;421;03.43.09.857
12924;170931;34.80;422;03.43.09.857
12900;170932;34.80;423;03.43.09.857
12952;170939;34.80;424;03.43.09.857
12888;170943;34.80;425;03.43.09.945
12892;170946;34.80;426;03.43.09.945
12928;170946;34.80;427;03.43.09.956
12932;170945;34.80;428;03.43.09.956
12920;170952;34.80;429;03.43.09.956
12880;170949;34.80;430;03.43.09.956
12896;170946;34.80;431;03.43.09.956
12896;170954;34.80;432;03.43.09.956
12916;170956;34.80;433;03.43.09.967
12876;170955;34.80;434;03.43.09.967
12896;170955;34.80;435;03.43.09.978
12892;170955;34.80;436;03.43.09.978
12888;170966;34.80;437;03.43.09.978
12908;170958;34.80;438;03.43.09.978
12908;170960;34.80;439;03.43.09.978
12928;170963;34.80;440;03.43.09.978
12904;170964;34.80;441;03.43.09.978
12912;170966;34.80;442;03.43.09.978
12896;170967;34.80;443;03.43.09.978
12892;170970;34.80;444;03.43.09.978
12944;170968;34.80;445;03.43.09.978
12892;170975;34.80;446;03.43.09.978
12904;170971;34.80;447;03.43.09.989
12904;170967;34.80;448;03.43.09.989
12908;170970;34.80;449;03.43.09.989
12880;170971;34.76;450;03.43.10.066
12912;170970;34.76;451;03.43.10.066
12892;170971;34.76;452;03.43.10.066
12884;170970;34.76;453;03.43.10.066
12876;170966;34.76;454;03.43.10.066
12936;170961;34.76;455;03.43.10.066
12896;170959;34.76;456;03.43.10.066
12920;170959;34.76;457;03.43.10.066
12880;170953;34.76;458;03.43.10.066
12912;170949;34.76;459;03.43.10.066
12908;170948;34.76;460;03.43.10.066
12904;170933;34.76;461;03.43.10.077
12932;170935;34.76;462;03.43.10.077
12908;170938;34.76;463;03.43.10.077
12940;170932;34.76;464;03.43.10.077
12928;170924;34.76;465;03.43.10.077
12908;170925;34.76;466;03.43.10.077
12908;170926;34.76;467;03.43.10.110
12880;170926;34.76;468;03.43.10.110
12892;170922;34.76;469;03.43.10.110
12928;170922;34.76;470;03.43.10.110
12928;170926;34.76;471;03.43.10.110
12904;170915;34.76;472;03.43.10.110
12920;170913;34.76;473;03.43.10.110
12908;170913;34.76;474;03.43.10.110
12876;170916;34.76;475;03.43.10.209
12904;170912;34.76;476;03.43.10.209
12892;170910;34.76;477;03.43.10.209
12892;170911;34.76;478;03.43.10.209
12936;170906;34.76;479;03.43.10.209
12908;170916;34.76;480;03.43.10.209
12916;170917;34.76;481;03.43.10.209
12940;170914;34.76;482;03.43.10.221
12928;170910;34.76;483;03.43.10.221
12912;170917;34.76;484;03.43.10.221
12912;170914;34.76;485;03.43.10.221
12928;170914;34.76;486;03.43.10.221
12912;170909;34.76;487;03.43.10.221
12876;170911;34.76;488;03.43.10.221
12904;170913;34.76;489;03.43.10.221
12904;170913;34.76;490;03.43.10.221
12912;170917;34.76;491;03.43.10.221
12912;170920;34.76;492;03.43.10.221
12912;170920;34.76;493;03.43.10.221
12916;170919;34.76;494;03.43.10.221
12920;170912;34.76;495;03.43.10.221
12928;170920;34.76;496;03.43.10.222
12908;170919;34.76;497;03.43.10.232
12900;170922;34.76;498;03.43.10.232
12920;170924;34.76;499;03.43.10.232
12880;170925;34.76;500;03.43.10.342
12916;170921;34.76;501;03.43.10.342
12916;170916;34.76;502;03.43.10.342
12928;170924;34.76;503;03.43.10.342
12892;170927;34.76;504;03.43.10.342
12904;170920;34.76;505;03.43.10.353
12908;170925;34.76;506;03.43.10.353
12876;170923;34.76;507;03.43.10.353
12888;170913;34.76;508;03.43.10.353
12928;170921;34.76;509;03.43.10.353
12912;170920;34.76;510;03.43.10.353
12932;170919;34.76;511;03.43.10.353
12900;170922;34.76;512;03.43.10.353
12896;170910;34.76;513;03.43.10.353
12932;170914;34.76;514;03.43.10.353
12944;170928;34.76;515;03.43.10.353
12908;170912;34.76;516;03.43.10.353
12904;170913;34.76;517;03.43.10.353
12904;170917;34.76;518;03.43.10.366
12912;170908;34.76;519;03.43.10.366
12916;170917;34.76;520;03.43.10.366
12908;170911;34.76;521;03.43.10.366
12904;170913;34.76;522;03.43.10.366
12860;170912;34.76;523;03.43.10.366
12928;170913;34.76;524;03.43.10.366
12900;170914;34.76;525;03.43.10.443
12888;170903;34.76;526;03.43.10.443
12888;170908;34.76;527;03.43.10.443
12888;170914;34.76;528;03.43.10.443
12908;170920;34.76;529;03.43.10.443
12900;170905;34.76;530;03.43.10.443
12892;170906;34.76;531;03.43.10.455
12892;170912;34.76;532;03.43.10.455
12880;170913;34.76;533;03.43.10.455
12916;170910;34.76;534;03.43.10.455
12912;170915;34.76;535;03.43.10.455
12892;170921;34.76;536;03.43.10.455
12896;170916;34.76;537;03.43.10.455
12896;170912;34.76;538;03.43.10.466
12916;170913;34.76;539;03.43.10.466
12928;170924;34.76;540;03.43.10.466
12892;170912;34.76;541;03.43.10.466
12920;170918;34.76;542;03.43.10.466
12904;170913;34.76;543;03.43.10.466
12912;170921;34.76;544;03.43.10.466
12920;170926;34.76;545;03.43.10.466
12904;170923;34.76;546;03.43.10.466
12900;170924;34.76;547;03.43.10.466
12880;170922;34.76;548;03.43.10.477
12936;170923;34.76;549;03.43.10.477
12888;170936;34.80;550;03.43.10.576
12916;170927;34.80;551;03.43.10.576
12896;170932;34.80;552;03.43.10.587
12880;170939;34.80;553;03.43.10.587
12876;170938;34.80;554;03.43.10.587
12928;170936;34.80;555;03.43.10.587
12904;170939;34.80;556;03.43.10.587
12892;170945;34.80;557;03.43.10.587
12900;170946;34.80;558;03.43.10.598
12900;170944;34.80;559;03.43.10.598
12908;170958;34.80;560;03.43.10.608
12912;170957;34.80;561;03.43.10.608
12880;170958;34.80;562;03.43.10.608
12892;170960;34.80;563;03.43.10.608
12892;170965;34.80;564;03.43.10.608
12880;170958;34.80;565;03.43.10.608
12896;170961;34.80;566;03.43.10.608
12916;170969;34.80;567;03.43.10.608
12916;170962;34.80;568;03.43.10.608
12904;170974;34.80;569;03.43.10.608
12904;170967;34.80;570;03.43.10.608
12904;170957;34.80;571;03.43.10.608
12896;170965;34.80;572;03.43.10.608
12916;170973;34.80;573;03.43.10.619
12908;170972;34.80;574;03.43.10.619
12892;170973;34.80;575;03.43.10.696
12892;170969;34.80;576;03.43.10.696
12880;170978;34.80;577;03.43.10.696
12916;170979;34.80;578;03.43.10.696
12928;170983;34.80;579;03.43.10.696
12892;170979;34.80;580;03.43.10.696
12900;170989;34.80;581;03.43.10.696
12908;170988;34.80;582;03.43.10.696
12916;170986;34.80;583;03.43.10.696
12924;170990;34.80;584;03.43.10.696
12896;170997;34.80;585;03.43.10.696
12904;171000;34.80;586;03.43.10.707
12876;170994;34.80;587;03.43.10.707
12888;170983;34.80;588;03.43.10.707
12872;170988;34.80;589;03.43.10.707
12892;170988;34.80;590;03.43.10.707
12880;170992;34.80;591;03.43.10.707
12896;170981;34.80;592;03.43.10.707
12888;170970;34.80;593;03.43.10.707
12932;170968;34.80;594;03.43.10.707
12876;170962;34.80;595;03.43.10.707
12912;170954;34.80;596;03.43.10.707
12928;170951;34.80;597;03.43.10.707
12928;170955;34.80;598;03.43.10.707
12932;170947;34.80;599;03.43.10.718
12872;170949;34.76;600;03.43.10.828
12884;170937;34.76;601;03.43.10.828
12908;170944;34.76;602;03.43.10.828
12908;170932;34.76;603;03.43.10.828
12892;170924;34.76;604;03.43.10.828
12924;170916;34.76;605;03.43.10.828
12876;170914;34.76;606;03.43.10.828
12896;170911;34.76;607;03.43.10.839
12876;170911;34.76;608;03.43.10.839
12900;170904;34.76;609;03.43.10.839
12928;170915;34.76;610;03.43.10.839
12904;170907;34.76;611;03.43.10.839
12892;170908;34.76;612;03.43.10.839
12912;170900;34.76;613;03.43.10.839
12912;170887;34.76;614;03.43.10.839
12896;170900;34.76;615;03.43.10.839
12860;170892;34.76;616;03.43.10.839
12908;170890;34.76;617;03.43.10.839
12884;170885;34.76;618;03.43.10.839
12920;170889;34.76;619;03.43.10.839
12888;170897;34.76;620;03.43.10.850
12900;170892;34.76;621;03.43.10.850
12908;170892;34.76;622;03.43.10.850
12916;170890;34.76;623;03.43.10.850
12908;170893;34.76;624;03.43.10.850
12920;170890;34.76;625;03.43.10.959
12928;170890;34.76;626;03.43.10.959
12908;170889;34.76;627;03.43.10.959
12912;170883;34.76;628;03.43.10.979
12908;170887;34.76;629;03.43.10.979
12868;170886;34.76;630;03.43.10.979
12932;170896;34.76;631;03.43.10.979
12904;170887;34.76;632;03.43.10.979
12928;170898;34.76;633;03.43.10.979
12900;170890;34.76;634;03.43.10.979
12904;170897;34.76;635;03.43.10.979
12904;170899;34.76;636;03.43.10.979
12920;170904;34.76;637;03.43.10.979
12872;170893;34.76;638;03.43.10.979
12912;170900;34.76;639;03.43.10.979
12912;170902;34.76;640;03.43.10.979
12908;170898;34.76;641;03.43.10.979
12928;170903;34.76;642;03.43.10.979
12928;170901;34.76;643;03.43.10.979
12916;170893;34.76;644;03.43.10.979
12912;170892;34.76;645;03.43.10.979
12900;170895;34.76;646;03.43.10.979
12928;170897;34.76;647;03.43.10.979
12904;170896;34.76;648;03.43.10.979
12920;170895;34.76;649;03.43.10.979
12900;170901;34.80;650;03.43.11.067
12896;170905;34.80;651;03.43.11.067
12920;170902;34.80;652;03.43.11.067
12932;170900;34.80;653;03.43.11.067
12928;170897;34.80;654;03.43.11.067
12916;170899;34.80;655;03.43.11.067
12916;170887;34.80;656;03.43.11.067
12900;170903;34.80;657;03.43.11.067
12888;170892;34.80;658;03.43.11.067
12916;170891;34.80;659;03.43.11.067
12936;170897;34.80;660;03.43.11.067
12908;170897;34.80;661;03.43.11.067
12916;170905;34.80;662;03.43.11.078
12936;170897;34.80;663;03.43.11.078
12892;170889;34.80;664;03.43.11.078
12908;170898;34.80;665;03.43.11.078
12896;170903;34.80;666;03.43.11.078
12904;170895;34.80;667;03.43.11.078
12912;170898;34.80;668;03.43.11.078
12880;170904;34.80;669;03.43.11.078
12920;170910;34.80;670;03.43.11.078
12900;170905;34.80;671;03.43.11.078
12912;170909;34.80;672;03.43.11.078
12892;170913;34.80;673;03.43.11.078
12908;170912;34.80;674;03.43.11.089
12924;170918;34.80;675;03.43.11.188
12884;170922;34.80;676;03.43.11.188
12876;170910;34.80;677;03.43.11.188
12900;170928;34.80;678;03.43.11.188
12908;170920;34.80;679;03.43.11.188
12928;170923;34.80;680;03.43.11.188
12912;170920;34.80;681;03.43.11.188
12904;170931;34.80;682;03.43.11.199
12884;170935;34.80;683;03.43.11.199
12924;170930;34.80;684;03.43.11.199
12904;170939;34.80;685;03.43.11.199
12904;170938;34.80;686;03.43.11.199
12928;170941;34.80;687;03.43.11.199
12916;170940;34.80;688;03.43.11.199
12888;170936;34.80;689;03.43.11.199
12908;170951;34.80;690;03.43.11.199
12932;170947;34.80;691;03.43.11.199
12904;170943;34.80;692;03.43.11.199
12900;170951;34.80;693;03.43.11.199
12912;170951;34.80;694;03.43.11.199
12920;170943;34.80;695;03.43.11.210
12920;170950;34.80;696;03.43.11.210
12920;170956;34.80;697;03.43.11.210
12884;170955;34.80;698;03.43.11.210
12932;170959;34.80;699;03.43.11.210
12920;170967;34.80;700;03.43.11.319
12876;170960;34.80;701;03.43.11.319
12888;170967;34.80;702;03.43.11.330
12912;170967;34.80;703;03.43.11.330
12912;170962;34.80;704;03.43.11.330
12908;170969;34.80;705;03.43.11.330
12912;170967;34.80;706;03.43.11.330
12928;170971;34.80;707;03.43.11.330
12924;170976;34.80;708;03.43.11.330
12924;170975;34.80;709;03.43.11.330
12912;170979;34.80;710;03.43.11.330
12904;170973;34.80;711;03.43.11.330
12896;170981;34.80;712;03.43.11.330
12884;170986;34.80;713;03.43.11.330
12860;170981;34.80;714;03.43.11.330
12888;170989;34.80;715;03.43.11.330
12928;170987;34.80;716;03.43.11.341
12928;170985;34.80;717;03.43.11.341
12900;170991;34.80;718;03.43.11.341
12896;170995;34.80;719;03.43.11.341
12912;170992;34.80;720;03.43.11.341
12884;171001;34.80;721;03.43.11.341
12892;170991;34.80;722;03.43.11.341
12892;171002;34.80;723;03.43.11.341
12936;170995;34.80;724;03.43.11.341
12908;170993;34.80;725;03.43.11.462
12884;170999;34.80;726;03.43.11.462
12944;171008;34.80;727;03.43.11.462
12928;170999;34.80;728;03.43.11.462
12904;170995;34.80;729;03.43.11.462
12920;170997;34.80;730;03.43.11.462
12936;170993;34.80;731;03.43.11.462
12928;170995;34.80;732;03.43.11.462
12904;170987;34.80;733;03.43.11.462
12892;170982;34.80;734;03.43.11.462
12912;170973;34.80;735;03.43.11.462
12892;170970;34.80;736;03.43.11.462
12876;170969;34.80;737;03.43.11.473
12928;170963;34.80;738;03.43.11.473
12920;170958;34.80;739;03.43.11.473
12912;170957;34.80;740;03.43.11.473
12928;170947;34.80;741;03.43.11.473
12920;170949;34.80;742;03.43.11.473
12912;170945;34.80;743;03.43.11.473
12884;170938;34.80;744;03.43.11.473
12912;170934;34.80;745;03.43.11.473
12936;170938;34.80;746;03.43.11.473
12920;170942;34.80;747;03.43.11.473
12900;170922;34.80;748;03.43.11.473
12900;170924;34.80;749;03.43.11.473
12900;170924;34.76;750;03.43.11.572
12904;170928;34.76;751;03.43.11.572
12904;170917;34.76;752;03.43.11.572
12900;170918;34.76;753;03.43.11.572
12920;170914;34.76;754;03.43.11.572
12916;170912;34.76;755;03.43.11.572
12908;170918;34.76;756;03.43.11.572
12928;170924;34.76;757;03.43.11.572
12912;170911;34.76;758;03.43.11.594
12928;170914;34.76;759;03.43.11.594
12900;170912;34.76;760;03.43.11.594
12904;170908;34.76;761;03.43.11.594
12920;170901;34.76;762;03.43.11.594
12900;170910;34.76;763;03.43.11.594
12920;170901;34.76;764;03.43.11.594
12912;170905;34.76;765;03.43.11.594
12944;170898;34.76;766;03.43.11.594
12904;170899;34.76;767;03.43.11.605
12912;170900;34.76;768;03.43.11.605
12872;170900;34.76;769;03.43.11.605
12928;170898;34.76;770;03.43.11.605
12928;170896;34.76;771;03.43.11.605
12920;170899;34.76;772;03.43.11.605
12884;170906;34.76;773;03.43.11.605
12940;170903;34.76;774;03.43.11.605
12880;170903;34.76;775;03.43.11.692
12908;170913;34.76;776;03.43.11.692
12900;170911;34.76;777;03.43.11.692
12928;170915;34.76;778;03.43.11.692
12900;170913;34.76;779;03.43.11.692
12892;170913;34.76;780;03.43.11.703
12920;170918;34.76;781;03.43.11.703
12928;170919;34.76;782;03.43.11.703
12892;170920;34.76;783;03.43.11.703
12888;170927;34.76;784;03.43.11.703
12900;170925;34.76;785;03.43.11.703
12928;170926;34.76;786;03.43.11.703
12888;170924;34.76;787;03.43.11.703
12892;170928;34.76;788;03.43.11.703
12916;170926;34.76;789;03.43.11.703
12900;170921;34.76;790;03.43.11.703
12884;170924;34.76;791;03.43.11.703
12888;170912;34.76;792;03.43.11.703
12908;170924;34.76;793;03.43.11.714
12928;170923;34.76;794;03.43.11.714
12916;170922;34.76;795;03.43.11.714
12924;170925;34.76;796;03.43.11.714
12880;170926;34.76;797;03.43.11.714
12912;170927;34.76;798;03.43.11.714
12932;170928;34.76;799;03.43.11.714
12928;170925;34.80;800;03.43.11.813
12908;170928;34.80;801;03.43.11.824
12884;170930;34.80;802;03.43.11.824
12892;170935;34.80;803;03.43.11.824
12896;170927;34.80;804;03.43.11.824
12888;170927;34.80;805;03.43.11.824
12908;170933;34.80;806;03.43.11.824
12924;170929;34.80;807;03.43.11.824
12888;170933;34.80;808;03.43.11.824
12876;170935;34.80;809;03.43.11.824
12924;170938;34.80;810;03.43.11.824
12884;170937;34.80;811;03.43.11.824
12900;170936;34.80;812;03.43.11.824
12908;170939;34.80;813;03.43.11.824
12896;170937;34.80;814;03.43.11.835
12888;170938;34.80;815;03.43.11.835
12884;170938;34.80;816;03.43.11.835
12920;170938;34.80;817;03.43.11.835
12892;170943;34.80;818;03.43.11.835
12892;170932;34.80;819;03.43.11.835
12860;170936;34.80;820;03.43.11.835
12900;170936;34.80;821;03.43.11.835
12928;170946;34.80;822;03.43.11.835
12892;170949;34.80;823;03.43.11.835
12936;170943;34.80;824;03.43.11.835
12920;170944;34.80;825;03.43.11.955
12888;170942;34.80;826;03.43.11.955
12912;170949;34.80;827;03.43.11.955
12912;170949;34.80;828;03.43.11.955
12904;170953;34.80;829;03.43.11.955
12904;170945;34.80;830;03.43.11.955
12892;170954;34.80;831;03.43.11.955
12892;170951;34.80;832;03.43.11.955
12916;170950;34.80;833;03.43.11.955
12892;170952;34.80;834;03.43.11.955
12900;170955;34.80;835;03.43.11.966
12904;170963;34.80;836;03.43.11.966
12892;170954;34.80;837;03.43.11.966
12896;170962;34.80;838;03.43.11.966
12936;170965;34.80;839;03.43.11.966
12924;170964;34.80;840;03.43.11.966
12892;170966;34.80;841;03.43.11.966
12888;170971;34.80;842;03.43.11.977
12892;170959;34.80;843;03.43.11.977
12880;170972;34.80;844;03.43.11.977
12892;170971;34.80;845;03.43.11.977
12928;170977;34.80;846;03.43.11.977
12916;170974;34.80;847;03.43.11.977
12916;170969;34.80;848;03.43.11.977
12900;170979;34.80;849;03.43.11.977
12876;170981;34.80;850;03.43.12.065
12920;170977;34.80;851;03.43.12.065
12892;170978;34.80;852;03.43.12.065
12892;170975;34.80;853;03.43.12.065
12892;170985;34.80;854;03.43.12.065
12908;170985;34.80;855;03.43.12.065
12904;170977;34.80;856;03.43.12.065
12924;170990;34.80;857;03.43.12.076
12892;170987;34.80;858;03.43.12.098
12888;170993;34.80;859;03.43.12.098
12932;170984;34.80;860;03.43.12.098
12912;170999;34.80;861;03.43.12.098
12884;170989;34.80;862;03.43.12.098
12908;170989;34.80;863;03.43.12.098
12928;170994;34.80;864;03.43.12.098
12920;171001;34.80;865;03.43.12.109
12916;170996;34.80;866;03.43.12.109
12880;170993;34.80;867;03.43.12.109
12896;170988;34.80;868;03.43.12.109
12892;170993;34.80;869;03.43.12.109
12900;170995;34.80;870;03.43.12.109
12916;170984;34.80;871;03.43.12.109
12908;170985;34.80;872;03.43.12.109
12908;170977;34.80;873;03.43.12.109
12928;170978;34.80;874;03.43.12.109
12908;170971;34.80;875;03.43.12.185
12916;170962;34.80;876;03.43.12.185
12904;170960;34.80;877;03.43.12.185
12860;170962;34.80;878;03.43.12.196
12888;170954;34.80;879;03.43.12.196
12892;170947;34.80;880;03.43.12.196
12916;170947;34.80;881;03.43.12.196
12904;170948;34.80;882;03.43.12.196
12892;170940;34.80;883;03.43.12.196
12892;170939;34.80;884;03.43.12.196
12896;170935;34.80;885;03.43.12.196
12900;170931;34.80;886;03.43.12.196
12884;170927;34.80;887;03.43.12.196
12896;170926;34.80;888;03.43.12.196
12916;170925;34.80;889;03.43.12.196
12904;170913;34.80;890;03.43.12.207
12884;170917;34.80;891;03.43.12.207
12904;170918;34.80;892;03.43.12.207
12888;170915;34.80;893;03.43.12.207
12888;170912;34.80;894;03.43.12.207
12892;170913;34.80;895;03.43.12.207
12876;170910;34.80;896;03.43.12.207
12924;170906;34.80;897;03.43.12.207
12928;170912;34.80;898;03.43.12.207
12924;170906;34.80;899;03.43.12.207
12912;170912;34.80;900;03.43.12.339
12928;170909;34.80;901;03.43.12.339
12900;170915;34.80;902;03.43.12.339
12936;170906;34.80;903;03.43.12.339
12928;170907;34.80;904;03.43.12.339
12916;170914;34.80;905;03.43.12.339
12904;170912;34.80;906;03.43.12.339
12892;170907;34.80;907;03.43.12.339
12888;170913;34.80;908;03.43.12.350
12932;170919;34.80;909;03.43.12.350
12904;170918;34.80;910;03.43.12.350
12920;170923;34.80;911;03.43.12.350
12908;170922;34.80;912;03.43.12.350
12908;170925;34.80;913;03.43.12.350
12904;170929;34.80;914;03.43.12.350
12928;170930;34.80;915;03.43.12.350
12908;170930;34.80;916;03.43.12.350
12900;170930;34.80;917;03.43.12.372
12892;170927;34.80;918;03.43.12.372
12888;170932;34.80;919;03.43.12.372
12900;170932;34.80;920;03.43.12.372
12900;170937;34.80;921;03.43.12.372
12904;170937;34.80;922;03.43.12.372
12908;170933;34.80;923;03.43.12.372
12908;170932;34.80;924;03.43.12.372
12892;170936;34.80;925;03.43.12.449
12900;170936;34.80;926;03.43.12.449
12924;170936;34.80;927;03.43.12.449
12916;170936;34.80;928;03.43.12.449
12908;170931;34.80;929;03.43.12.449
12908;170934;34.80;930;03.43.12.449
12904;170938;34.80;931;03.43.12.449
12928;170943;34.80;932;03.43.12.449
12904;170941;34.80;933;03.43.12.460
12892;170940;34.80;934;03.43.12.460
12908;170942;34.80;935;03.43.12.460
12892;170933;34.80;936;03.43.12.460
12896;170941;34.80;937;03.43.12.460
12892;170932;34.80;938;03.43.12.460
12920;170932;34.80;939;03.43.12.460
12916;170931;34.80;940;03.43.12.460
12892;170938;34.80;941;03.43.12.460
12920;170926;34.80;942;03.43.12.471
12900;170922;34.80;943;03.43.12.471
12904;170938;34.80;944;03.43.12.471
12924;170933;34.80;945;03.43.12.471
12892;170942;34.80;946;03.43.12.471
12912;170935;34.80;947;03.43.12.471
12908;170933;34.80;948;03.43.12.471
12912;170927;34.80;949;03.43.12.471
12884;170935;34.76;950;03.43.12.591
12944;170931;34.76;951;03.43.12.591
12928;170934;34.76;952;03.43.12.591
12888;170934;34.76;953;03.43.12.591
12916;170933;34.76;954;03.43.12.591
12916;170946;34.76;955;03.43.12.591
12920;170943;34.76;956;03.43.12.602
12888;170949;34.76;957;03.43.12.602
12916;170941;34.76;958;03.43.12.602
12912;170950;34.76;959;03.43.12.602
12904;170948;34.76;960;03.43.12.602
12908;170948;34.76;961;03.43.12.602
12892;170947;34.76;962;03.43.12.602
12940;170953;34.76;963;03.43.12.602
12924;170960;34.76;964;03.43.12.602
12892;170960;34.76;965;03.43.12.602
12924;170964;34.76;966;03.43.12.602
12940;170959;34.76;967;03.43.12.602
12924;170958;34.76;968;03.43.12.602
12904;170958;34.76;969;03.43.12.613
12916;170963;34.76;970;03.43.12.613
12908;170964;34.76;971;03.43.12.613
12880;170965;34.76;972;03.43.12.613
12920;170968;34.76;973;03.43.12.613
12920;170968;34.76;974;03.43.12.613
12928;170972;34.76;975;03.43.12.690
12928;170967;34.76;976;03.43.12.701
12888;170978;34.76;977;03.43.12.701
12908;170970;34.76;978;03.43.12.701
12912;170986;34.76;979;03.43.12.701
12944;170983;34.76;980;03.43.12.701
12896;170980;34.76;981;03.43.12.701
12908;170989;34.76;982;03.43.12.701
12888;170986;34.76;983;03.43.12.701
12928;170986;34.76;984;03.43.12.712
12916;170982;34.76;985;03.43.12.712
12908;170975;34.76;986;03.43.12.712
12928;170986;34.76;987;03.43.12.712
12928;170984;34.76;988;03.43.12.712
12884;170984;34.76;989;03.43.12.712
12944;170981;34.76;990;03.43.12.712
12900;170983;34.76;991;03.43.12.712
12912;170992;34.76;992;03.43.12.723
12912;170982;34.76;993;03.43.12.734
12928;170987;34.76;994;03.43.12.734
12912;170985;34.76;995;03.43.12.734
12912;170998;34.76;996;03.43.12.734
12892;170998;34.76;997;03.43.12.734
12904;170999;34.76;998;03.43.12.734
12924;170990;34.76;999;03.43.12.734
12940;171003;34.76;000;03.43.12.822
12944;171002;34.76;001;03.43.12.822
12936;170999;34.76;002;03.43.12.822
12904;171007;34.76;003;03.43.12.822
12892;171013;34.76;004;03.43.12.822
12900;171004;34.76;005;03.43.12.822
12896;171005;34.76;006;03.43.12.822
12900;171011;34.76;007;03.43.12.822
12900;171015;34.76;008;03.43.12.822
12888;171011;34.76;009;03.43.12.822
12900;171020;34.76;010;03.43.12.833
12920;171016;34.76;011;03.43.12.833
12872;171019;34.76;012;03.43.12.833
12932;171004;34.76;013;03.43.12.833
12892;171006;34.76;014;03.43.12.833
12908;171005;34.76;015;03.43.12.833
12916;170997;34.76;016;03.43.12.833
12888;171001;34.76;017;03.43.12.833
12892;170991;34.76;018;03.43.12.833
12928;170990;34.76;019;03.43.12.833
12880;170988;34.76;020;03.43.12.833
12912;170982;34.76;021;03.43.12.833
12900;170966;34.76;022;03.43.12.833
12900;170972;34.76;023;03.43.12.844
12920;170969;34.76;024;03.43.12.844
12928;170965;34.76;025;03.43.12.953
12904;170960;34.76;026;03.43.12.953
12908;170961;34.76;027;03.43.12.953
12880;170957;34.76;028;03.43.12.953
12928;170951;34.76;029;03.43.12.953
12896;170950;34.76;030;03.43.12.953
12892;170943;34.76;031;03.43.12.953
12896;170953;34.76;032;03.43.12.964
12904;170951;34.76;033;03.43.12.964
12892;170943;34.76;034;03.43.12.964
12928;170937;34.76;035;03.43.12.964
12920;170942;34.76;036;03.43.12.964
12896;170936;34.76;037;03.43.12.964
12912;170929;34.76;038;03.43.12.964
12888;170945;34.76;039;03.43.12.964
12880;170937;34.76;040;03.43.12.964
12920;170933;34.76;041;03.43.12.964
12876;170937;34.76;042;03.43.12.997
12912;170942;34.76;043;03.43.12.997
12912;170935;34.76;044;03.43.12.997
12888;170934;34.76;045;03.43.12.997
12908;170934;34.76;046;03.43.12.997
12900;170940;34.76;047;03.43.12.997
12888;170950;34.76;048;03.43.12.997
12904;170944;34.76;049;03.43.13.008
12896;170937;34.80;050;03.43.13.063
12912;170937;34.80;051;03.43.13.063
12892;170940;34.80;052;03.43.13.063
12908;170946;34.80;053;03.43.13.063
12904;170941;34.80;054;03.43.13.074
12900;170941;34.80;055;03.43.13.074
12916;170939;34.80;056;03.43.13.074
12892;170936;34.80;057;03.43.13.074
12900;170944;34.80;058;03.43.13.085
12908;170947;34.80;059;03.43.13.085
12920;170950;34.80;060;03.43.13.085
12912;170947;34.80;061;03.43.13.085
12892;170944;34.80;062;03.43.13.096
12928;170949;34.80;063;03.43.13.096
12920;170958;34.80;064;03.43.13.096
12908;170945;34.80;065;03.43.13.096
12912;170954;34.80;066;03.43.13.096
12920;170949;34.80;067;03.43.13.096
12892;170957;34.80;068;03.43.13.096
12932;170941;34.80;069;03.43.13.096
12904;170944;34.80;070;03.43.13.096
12912;170953;34.80;071;03.43.13.096
12932;170941;34.80;072;03.43.13.096
12892;170934;34.80;073;03.43.13.096
12900;170938;34.80;074;03.43.13.107
12896;170948;34.80;075;03.43.13.195
12884;170948;34.80;076;03.43.13.195
12912;170952;34.80;077;03.43.13.195
12912;170940;34.80;078;03.43.13.195
12908;170949;34.80;079;03.43.13.195
12944;170947;34.80;080;03.43.13.195
12892;170945;34.80;081;03.43.13.195
12928;170937;34.80;082;03.43.13.195
12904;170945;34.80;083;03.43.13.195
12892;170937;34.80;084;03.43.13.206
12932;170937;34.80;085;03.43.13.206
12896;170939;34.80;086;03.43.13.206
12904;170946;34.80;087;03.43.13.206
12900;170943;34.80;088;03.43.13.206
12928;170943;34.80;089;03.43.13.206
12892;170937;34.80;090;03.43.13.206
12892;170942;34.80;091;03.43.13.206
12908;170957;34.80;092;03.43.13.228
12908;170945;34.80;093;03.43.13.228
12884;170950;34.80;094;03.43.13.228
12896;170956;34.80;095;03.43.13.228
12908;170961;34.80;096;03.43.13.228
12932;170962;34.80;097;03.43.13.228
12896;170964;34.80;098;03.43.13.228
12896;170958;34.80;099;03.43.13.228
12928;170962;34.80;100;03.43.13.315
12904;170968;34.80;101;03.43.13.315
12892;170964;34.80;102;03.43.13.315
12892;170963;34.80;103;03.43.13.315
12892;170963;34.80;104;03.43.13.315
12888;170970;34.80;105;03.43.13.315
12916;170962;34.80;106;03.43.13.315
12908;170964;34.80;107;03.43.13.315
12912;170971;34.80;108;03.43.13.315
12912;170971;34.80;109;03.43.13.326
12916;170968;34.80;110;03.43.13.326
12900;170975;34.80;111;03.43.13.326
12924;170981;34.80;112;03.43.13.326
12928;170970;34.80;113;03.43.13.326
12908;170977;34.80;114;03.43.13.326
12916;170965;34.80;115;03.43.13.326
12916;170977;34.80;116;03.43.13.326
12892;170979;34.80;117;03.43.13.326
12928;170983;34.80;118;03.43.13.326
12944;170982;34.80;119;03.43.13.326
12892;170979;34.80;120;03.43.13.326
12860;170978;34.80;121;03.43.13.326
12892;170984;34.80;122;03.43.13.337
12928;170990;34.80;123;03.43.13.337
12940;170982;34.80;124;03.43.13.337
12888;170995;34.80;125;03.43.13.458
12892;170995;34.80;126;03.43.13.458
12904;170998;34.80;127;03.43.13.458
12892;170989;34.80;128;03.43.13.458
12928;170993;34.80;129;03.43.13.458
12916;171000;34.80;130;03.43.13.469
12920;171006;34.80;131;03.43.13.469
12932;171002;34.80;132;03.43.13.469
12900;171004;34.80;133;03.43.13.469
12908;171010;34.80;134;03.43.13.469
12916;171011;34.80;135;03.43.13.469
12900;171002;34.80;136;03.43.13.469
12884;170995;34.80;137;03.43.13.469
12912;171007;34.80;138;03.43.13.480
12916;171004;34.80;139;03.43.13.480
12860;171009;34.80;140;03.43.13.480
12884;171015;34.80;141;03.43.13.480
12936;171011;34.80;142;03.43.13.491
12892;171016;34.80;143;03.43.13.491
12892;171018;34.80;144;03.43.13.491
12904;171021;34.80;145;03.43.13.491
12892;171018;34.80;146;03.43.13.491
12884;171021;34.80;147;03.43.13.502
12892;171024;34.80;148;03.43.13.502
12908;171020;34.80;149;03.43.13.502
12888;171025;34.80;150;03.43.13.579
12880;171023;34.80;151;03.43.13.590
12892;171025;34.80;152;03.43.13.590
12904;171024;34.80;153;03.43.13.590
12884;171025;34.80;154;03.43.13.590
12892;171018;34.80;155;03.43.13.590
12896;171019;34.80;156;03.43.13.590
12932;171017;34.80;157;03.43.13.590
12896;171017;34.80;158;03.43.13.590
12912;171015;34.80;159;03.43.13.590
12900;171013;34.80;160;03.43.13.590
12928;171003;34.80;161;03.43.13.590
12896;170997;34.80;162;03.43.13.590
12928;170994;34.80;163;03.43.13.590
12908;170996;34.80;164;03.43.13.601
12932;170989;34.80;165;03.43.13.601
12884;170980;34.80;166;03.43.13.601
12888;170980;34.80;167;03.43.13.601
12888;170968;34.80;168;03.43.13.601
12892;170969;34.80;169;03.43.13.601
12872;170964;34.80;170;03.43.13.601
12900;170958;34.80;171;03.43.13.601
12892;170957;34.80;172;03.43.13.601
12920;170958;34.80;173;03.43.13.601
12912;170946;34.80;174;03.43.13.601
12912;170953;34.80;175;03.43.13.700
12872;170947;34.80;176;03.43.13.700
12920;170943;34.80;177;03.43.13.700
12892;170935;34.80;178;03.43.13.700
12892;170935;34.80;179;03.43.13.700
12908;170944;34.80;180;03.43.13.700
12892;170940;34.80;181;03.43.13.700
12928;170932;34.80;182;03.43.13.700
12904;170925;34.80;183;03.43.13.722
12912;170921;34.80;184;03.43.13.722
12912;170937;34.80;185;03.43.13.722
12904;170929;34.80;186;03.43.13.722
12896;170934;34.80;187;03.43.13.722
12924;170925;34.80;188;03.43.13.722
12888;170923;34.80;189;03.43.13.722
12876;170927;34.80;190;03.43.13.722
12908;170926;34.80;191;03.43.13.722
12920;170921;34.80;192;03.43.13.722
12892;170926;34.80;193;03.43.13.722
12928;170930;34.80;194;03.43.13.722
12928;170932;34.80;195;03.43.13.733
12928;170929;34.80;196;03.43.13.733
12892;170923;34.80;197;03.43.13.733
12892;170926;34.80;198;03.43.13.733
12928;170936;34.80;199;03.43.13.733
12896;170929;34.76;200;03.43.13.821
12884;170931;34.76;201;03.43.13.821
12936;170932;34.76;202;03.43.13.821
12912;170923;34.76;203;03.43.13.821
12892;170920;34.76;204;03.43.13.821
12888;170924;34.76;205;03.43.13.821
12892;170931;34.76;206;03.43.13.821
12900;170929;34.76;207;03.43.13.831
12892;170925;34.76;208;03.43.13.831
12920;170932;34.76;209;03.43.13.831
12928;170924;34.76;210;03.43.13.831
12888;170926;34.76;211;03.43.13.831
12900;170925;34.76;212;03.43.13.831
12900;170927;34.76;213;03.43.13.831
12892;170930;34.76;214;03.43.13.831
12908;170926;34.76;215;03.43.13.831
12896;170930;34.76;216;03.43.13.831
12928;170925;34.76;217;03.43.13.831
12924;170929;34.76;218;03.43.13.831
12916;170921;34.76;219;03.43.13.831
12916;170936;34.76;220;03.43.13.842
12916;170924;34.76;221;03.43.13.842
12892;170926;34.76;222;03.43.13.842
12928;170922;34.76;223;03.43.13.842
12916;170920;34.76;224;03.43.13.842
12876;170920;34.76;225;03.43.13.940
12892;170922;34.76;226;03.43.13.940
12920;170912;34.76;227;03.43.13.940
12928;170929;34.76;228;03.43.13.951
12896;170927;34.76;229;03.43.13.951
12860;170925;34.76;230;03.43.13.951
12912;170922;34.76;231;03.43.13.951
12892;170925;34.76;232;03.43.13.951
12892;170924;34.76;233;03.43.13.951
12932;170922;34.76;234;03.43.13.951
12896;170937;34.76;235;03.43.13.951
12892;170924;34.76;236;03.43.13.951
12916;170937;34.76;237;03.43.13.951
12912;170929;34.76;238;03.43.13.951
12892;170929;34.76;239;03.43.13.951
12892;170933;34.76;240;03.43.13.951
12892;170934;34.76;241;03.43.13.962
12912;170933;34.76;242;03.43.13.962
12908;170930;34.76;243;03.43.13.962
12888;170944;34.76;244;03.43.13.962
12932;170932;34.76;245;03.43.13.962
12884;170930;34.76;246;03.43.13.962
12904;170932;34.76;247;03.43.13.962
12912;170940;34.76;248;03.43.13.962
12912;170937;34.76;249;03.43.13.962
12884;170936;34.76;250;03.43.14.083
12920;170932;34.76;251;03.43.14.083
12896;170934;34.76;252;03.43.14.083
12928;170929;34.76;253;03.43.14.083
12916;170931;34.76;254;03.43.14.083
12916;170937;34.76;255;03.43.14.083
12928;170937;34.76;256;03.43.14.083
12900;170945;34.76;257;03.43.14.083
12892;170933;34.76;258;03.43.14.083
12888;170954;34.76;259;03.43.14.083
12916;170949;34.76;260;03.43.14.083
12900;170956;34.76;261;03.43.14.083
12900;170954;34.76;262;03.43.14.094
12928;170961;34.76;263;03.43.14.094
12904;170964;34.76;264;03.43.14.094
12908;170968;34.76;265;03.43.14.094
12876;170963;34.76;266;03.43.14.094
12924;170970;34.76;267;03.43.14.094
12892;170964;34.76;268;03.43.14.094
12884;170974;34.76;269;03.43.14.094
12892;170968;34.76;270;03.43.14.094
12908;170971;34.76;271;03.43.14.094
12924;170970;34.76;272;03.43.14.094
12912;170980;34.76;273;03.43.14.094
12904;170978;34.76;274;03.43.14.094
12892;170974;34.76;275;03.43.14.193
12912;170977;34.76;276;03.43.14.193
12876;170981;34.76;277;03.43.14.193
12912;170979;34.76;278;03.43.14.193
12892;170982;34.76;279;03.43.14.193
12920;170978;34.76;280;03.43.14.193
12944;170986;34.76;281;03.43.14.193
12912;170980;34.76;282;03.43.14.193
12928;170987;34.76;283;03.43.14.204
12892;170993;34.76;284;03.43.14.204
12920;170984;34.76;285;03.43.14.204
12924;170994;34.76;286;03.43.14.204
12928;170982;34.76;287;03.43.14.204
12908;170993;34.76;288;03.43.14.204
12900;170984;34.76;289;03.43.14.204
12916;170986;34.76;290;03.43.14.204
12904;170991;34.76;291;03.43.14.215
12904;170993;34.76;292;03.43.14.215
12900;170993;34.76;293;03.43.14.215
12888;170986;34.76;294;03.43.14.215
12908;170993;34.76;295;03.43.14.215
12916;170989;34.76;296;03.43.14.215
12928;170995;34.76;297;03.43.14.215
12892;170993;34.76;298;03.43.14.215
12944;170996;34.76;299;03.43.14.215
12904;170991;34.80;300;03.43.14.324
12912;170997;34.80;301;03.43.14.324
12884;170989;34.80;302;03.43.14.324
12920;170996;34.80;303;03.43.14.324
12908;170986;34.80;304;03.43.14.324
12912;170980;34.80;305;03.43.14.335
12928;170980;34.80;306;03.43.14.335
12908;170976;34.80;307;03.43.14.335
12904;170966;34.80;308;03.43.14.346
12912;170964;34.80;309;03.43.14.346
12908;170958;34.80;310;03.43.14.346
12892;170955;34.80;311;03.43.14.346
12904;170955;34.80;312;03.43.14.357
12908;170948;34.80;313;03.43.14.357
12912;170950;34.80;314;03.43.14.357
12904;170944;34.80;315;03.43.14.357
12892;170944;34.80;316;03.43.14.357
12916;170939;34.80;317;03.43.14.357
12884;170935;34.80;318;03.43.14.357
12928;170926;34.80;319;03.43.14.357
12912;170935;34.80;320;03.43.14.357
12896;170929;34.80;321;03.43.14.357
12912;170925;34.80;322;03.43.14.357
12908;170919;34.80;323;03.43.14.357
12900;170915;34.80;324;03.43.14.357
12920;170915;34.80;325;03.43.14.434
12936;170912;34.80;326;03.43.14.445
12892;170920;34.80;327;03.43.14.445
12924;170919;34.80;328;03.43.14.445
12884;170914;34.80;329;03.43.14.445
12920;170914;34.80;330;03.43.14.445
12928;170910;34.80;331;03.43.14.445
12928;170909;34.80;332;03.43.14.445
12900;170913;34.80;333;03.43.14.445
12928;170913;34.80;334;03.43.14.445
12908;170911;34.80;335;03.43.14.445
12916;170910;34.80;336;03.43.14.445
12936;170914;34.80;337;03.43.14.445
12932;170911;34.80;338;03.43.14.445
12908;170906;34.80;339;03.43.14.456
12928;170910;34.80;340;03.43.14.456
12912;170914;34.80;341;03.43.14.456
12912;170911;34.80;342;03.43.14.456
12904;170920;34.80;343;03.43.14.456
12892;170921;34.80;344;03.43.14.456
12916;170919;34.80;345;03.43.14.456
12900;170922;34.80;346;03.43.14.456
12900;170914;34.80;347;03.43.14.456
12932;170917;34.80;348;03.43.14.456
12904;170923;34.80;349;03.43.14.456
12896;170915;34.80;350;03.43.14.577
12928;170923;34.80;351;03.43.14.577
12916;170927;34.80;352;03.43.14.577
12900;170920;34.80;353;03.43.14.577
12892;170919;34.80;354;03.43.14.577
12928;170924;34.80;355;03.43.14.577
12892;170923;34.80;356;03.43.14.577
12900;170917;34.80;357;03.43.14.577
12900;170926;34.80;358;03.43.14.577
12920;170922;34.80;359;03.43.14.577
12892;170917;34.80;360;03.43.14.577
12888;170919;34.80;361;03.43.14.588
12932;170920;34.80;362;03.43.14.588
12912;170922;34.80;363;03.43.14.588
12892;170915;34.80;364;03.43.14.588
12900;170917;34.80;365;03.43.14.588
12916;170918;34.80;366;03.43.14.588
12912;170918;34.80;367;03.43.14.588
12908;170920;34.80;368;03.43.14.588
12936;170915;34.80;369;03.43.14.588
12904;170920;34.80;370;03.43.14.588
12908;170920;34.80;371;03.43.14.588
12928;170914;34.80;372;03.43.14.588
12920;170909;34.80;373;03.43.14.588
12928;170908;34.80;374;03.43.14.599
12904;170902;34.80;375;03.43.14.708
12908;170912;34.80;376;03.43.14.708
12900;170915;34.80;377;03.43.14.708
12912;170903;34.80;378;03.43.14.708
12908;170906;34.80;379;03.43.14.708
12904;170902;34.80;380;03.43.14.708
12932;170905;34.80;381;03.43.14.719
12908;170916;34.80;382;03.43.14.719
12916;170922;34.80;383;03.43.14.719
12860;170923;34.80;384;03.43.14.719
12908;170912;34.80;385;03.43.14.719
12920;170915;34.80;386;03.43.14.719
12884;170918;34.80;387;03.43.14.719
12928;170923;34.80;388;03.43.14.719
12928;170925;34.80;389;03.43.14.719
12884;170921;34.80;390;03.43.14.719
12912;170924;34.80;391;03.43.14.719
12912;170918;34.80;392;03.43.14.719
12916;170930;34.80;393;03.43.14.719
12884;170931;34.80;394;03.43.14.719
12904;170927;34.80;395;03.43.14.730
12916;170925;34.80;396;03.43.14.730
12928;170936;34.80;397;03.43.14.730
12908;170936;34.80;398;03.43.14.730
12928;170929;34.80;399;03.43.14.730
12924;170922;34.76;400;03.43.14.818
12888;170927;34.76;401;03.43.14.818
12888;170920;34.76;402;03.43.14.818
12928;170920;34.76;403;03.43.14.829
12892;170929;34.76;404;03.43.14.829
12936;170926;34.76;405;03.43.14.829
12904;170936;34.76;406;03.43.14.829
12916;170924;34.76;407;03.43.14.829
12904;170934;34.76;408;03.43.14.829
12876;170932;34.76;409;03.43.14.829
12904;170925;34.76;410;03.43.14.840
12904;170928;34.76;411;03.43.14.840
12924;170936;34.76;412;03.43.14.840
12904;170933;34.76;413;03.43.14.840
12896;170933;34.76;414;03.43.14.840
12932;170937;34.76;415;03.43.14.840
12896;170931;34.76;416;03.43.14.840
12912;170943;34.76;417;03.43.14.840
12908;170945;34.76;418;03.43.14.840
12908;170946;34.76;419;03.43.14.840
12928;170949;34.76;420;03.43.14.851
12912;170952;34.76;421;03.43.14.851
12912;170949;34.76;422;03.43.14.851
12876;170958;34.76;423;03.43.14.851
12892;170958;34.76;424;03.43.14.851
12892;170959;34.76;425;03.43.14.950
12892;170960;34.76;426;03.43.14.950
12928;170969;34.76;427;03.43.14.950
12920;170969;34.76;428;03.43.14.950
12912;170970;34.76;429;03.43.14.950
12904;170980;34.76;430;03.43.14.950
12924;170976;34.76;431;03.43.14.950
12908;170985;34.76;432;03.43.14.950
12904;170974;34.76;433;03.43.14.950
12928;170976;34.76;434;03.43.14.950
12940;170978;34.76;435;03.43.14.950
12932;170989;34.76;436;03.43.14.950
12916;171000;34.76;437;03.43.14.950
12904;170996;34.76;438;03.43.14.961
12936;170997;34.76;439;03.43.14.961
12892;170994;34.76;440;03.43.14.961
12888;170984;34.76;441;03.43.14.961
12928;170984;34.76;442;03.43.14.961
12900;170978;34.76;443;03.43.14.961
12908;170978;34.76;444;03.43.14.961
12896;170985;34.76;445;03.43.14.961
12920;170970;34.76;446;03.43.14.961
12952;170964;34.76;447;03.43.14.961
12900;170965;34.76;448;03.43.14.961
12916;170959;34.76;449;03.43.14.961
12916;170954;34.76;450;03.43.15.070
12904;170960;34.76;451;03.43.15.070
12892;170949;34.76;452;03.43.15.070
12920;170950;34.76;453;03.43.15.070
12908;170944;34.76;454;03.43.15.070
12888;170933;34.76;455;03.43.15.070
12932;170931;34.76;456;03.43.15.070
12896;170923;34.76;457;03.43.15.070
12908;170921;34.76;458;03.43.15.081
12884;170917;34.76;459;03.43.15.081
12908;170919;34.76;460;03.43.15.081
12928;170918;34.76;461;03.43.15.081
12920;170917;34.76;462;03.43.15.081
12892;170919;34.76;463;03.43.15.081
12920;170914;34.76;464;03.43.15.081
12896;170903;34.76;465;03.43.15.081
12900;170902;34.76;466;03.43.15.081
12912;170910;34.76;467;03.43.15.081
12912;170900;34.76;468;03.43.15.081
12904;170900;34.76;469;03.43.15.081
12936;170899;34.76;470;03.43.15.081
12912;170892;34.76;471;03.43.15.092
12916;170899;34.76;472;03.43.15.092
12928;170905;34.76;473;03.43.15.092
12936;170905;34.76;474;03.43.15.092
12892;170902;34.76;475;03.43.15.211
12892;170899;34.76;476;03.43.15.211
12928;170912;34.76;477;03.43.15.211
12908;170901;34.76;478;03.43.15.222
12928;170908;34.76;479;03.43.15.222
12912;170914;34.76;480;03.43.15.222
12924;170913;34.76;481;03.43.15.222
12900;170907;34.76;482;03.43.15.222
12944;170910;34.76;483;03.43.15.222
12916;170919;34.76;484;03.43.15.222
12920;170918;34.76;485;03.43.15.222
12928;170916;34.76;486;03.43.15.233
12904;170916;34.76;487;03.43.15.233
12928;170922;34.76;488;03.43.15.233
12920;170929;34.76;489;03.43.15.233
12892;170925;34.76;490;03.43.15.233
12900;170929;34.76;491;03.43.15.233
12916;170931;34.76;492;03.43.15.255
12904;170923;34.76;493;03.43.15.255
12912;170933;34.76;494;03.43.15.266
12900;170940;34.76;495;03.43.15.266
12876;170933;34.76;496;03.43.15.266
12904;170930;34.76;497;03.43.15.266
12908;170937;34.76;498;03.43.15.266
12940;170941;34.76;499;03.43.15.266
12888;170934;34.76;500;03.43.15.321
12900;170926;34.76;501;03.43.15.321
12908;170926;34.76;502;03.43.15.321
12912;170930;34.76;503;03.43.15.321
12904;170927;34.76;504;03.43.15.321
12888;170927;34.76;505;03.43.15.321
12908;170926;34.76;506;03.43.15.321
12884;170933;34.76;507;03.43.15.321
12920;170926;34.76;508;03.43.15.354
12876;170924;34.76;509;03.43.15.354
12884;170928;34.76;510;03.43.15.354
12928;170928;34.76;511;03.43.15.354
12940;170925;34.76;512;03.43.15.354
12880;170925;34.76;513;03.43.15.354
12876;170920;34.76;514;03.43.15.354
12928;170919;34.76;515;03.43.15.354
12896;170923;34.76;516;03.43.15.354
12868;170933;34.76;517;03.43.15.354
12928;170924;34.76;518;03.43.15.354
12888;170928;34.76;519;03.43.15.354
12908;170923;34.76;520;03.43.15.354
12928;170927;34.76;521;03.43.15.364
12928;170926;34.76;522;03.43.15.364
12932;170920;34.76;523;03.43.15.364
12868;170929;34.76;524;03.43.15.364
12896;170925;34.76;525;03.43.15.451
12904;170935;34.76;526;03.43.15.451
12876;170929;34.76;527;03.43.15.451
12908;170939;34.76;528;03.43.15.451
12884;170935;34.76;529;03.43.15.451
12928;170939;34.76;530;03.43.15.451
12928;170936;34.76;531;03.43.15.451
12896;170935;34.76;532;03.43.15.462
12892;170940;34.76;533;03.43.15.462
12916;170941;34.76;534;03.43.15.462
12872;170944;34.76;535;03.43.15.462
12912;170946;34.76;536;03.43.15.462
12860;170943;34.76;537;03.43.15.462
12920;170938;34.76;538;03.43.15.462
12908;170948;34.76;539;03.43.15.463
12936;170946;34.76;540;03.43.15.474
12892;170944;34.76;541;03.43.15.474
12888;170950;34.76;542;03.43.15.474
12908;170949;34.76;543;03.43.15.474
12900;170951;34.76;544;03.43.15.474
12916;170956;34.76;545;03.43.15.474
12900;170959;34.76;546;03.43.15.474
12908;170956;34.76;547;03.43.15.474
12904;170954;34.76;548;03.43.15.474
12924;170965;34.76;549;03.43.15.474
12876;170964;34.76;550;03.43.15.573
12900;170969;34.76;551;03.43.15.573
12908;170966;34.76;552;03.43.15.573
12884;170963;34.76;553;03.43.15.573
12896;170963;34.76;554;03.43.15.584
12924;170964;34.76;555;03.43.15.584
12920;170956;34.76;556;03.43.15.584
12928;170964;34.76;557;03.43.15.584
12904;170965;34.76;558;03.43.15.584
12920;170963;34.76;559;03.43.15.584
12884;170962;34.76;560;03.43.15.584
12904;170972;34.76;561;03.43.15.584
12924;170965;34.76;562;03.43.15.594
12908;170968;34.76;563;03.43.15.594
12904;170961;34.76;564;03.43.15.594
12920;170965;34.76;565;03.43.15.594
12924;170972;34.76;566;03.43.15.594
12912;170971;34.76;567;03.43.15.594
12908;170969;34.76;568;03.43.15.594
12884;170974;34.76;569;03.43.15.594
12900;170970;34.76;570;03.43.15.594
12928;170970;34.76;571;03.43.15.594
12888;170962;34.76;572;03.43.15.594
12892;170975;34.76;573;03.43.15.594
12928;170966;34.76;574;03.43.15.594
12908;170966;34.76;575;03.43.15.715
12896;170969;34.76;576;03.43.15.715
12884;170968;34.76;577;03.43.15.715
12908;170970;34.76;578;03.43.15.715
12936;170963;34.76;579;03.43.15.715
12904;170963;34.76;580;03.43.15.715
12896;170956;34.76;581;03.43.15.715
12892;170952;34.76;582;03.43.15.715
12928;170950;34.76;583;03.43.15.715
12916;170942;34.76;584;03.43.15.715
12888;170939;34.76;585;03.43.15.715
12932;170927;34.76;586;03.43.15.715
12888;170935;34.76;587;03.43.15.726
12900;170925;34.76;588;03.43.15.726
12924;170917;34.76;589;03.43.15.726
12920;170903;34.76;590;03.43.15.726
12908;170904;34.76;591;03.43.15.726
12904;170901;34.76;592;03.43.15.726
12884;170906;34.76;593;03.43.15.726
12920;170895;34.76;594;03.43.15.726
12892;170894;34.76;595;03.43.15.726
12928;170884;34.76;596;03.43.15.726
12920;170879;34.76;597;03.43.15.726
12928;170886;34.76;598;03.43.15.726
12928;170874;34.76;599;03.43.15.726
12888;170879;34.76;600;03.43.15.857
12928;170874;34.76;601;03.43.15.857
12900;170876;34.76;602;03.43.15.857
12908;170873;34.76;603;03.43.15.857
12908;170875;34.76;604;03.43.15.857
12892;170879;34.76;605;03.43.15.857
12920;170887;34.76;606;03.43.15.857
12928;170878;34.76;607;03.43.15.857
12924;170880;34.76;608;03.43.15.868
12888;170875;34.76;609;03.43.15.868
12880;170885;34.76;610;03.43.15.868
12920;170882;34.76;611;03.43.15.868
12908;170885;34.76;612;03.43.15.868
12916;170880;34.76;613;03.43.15.868
12904;170876;34.76;614;03.43.15.868
12904;170884;34.76;615;03.43.15.868
12904;170883;34.76;616;03.43.15.868
12896;170880;34.76;617;03.43.15.890
12900;170890;34.76;618;03.43.15.890
12888;170892;34.76;619;03.43.15.890
12920;170900;34.76;620;03.43.15.890
12904;170901;34.76;621;03.43.15.890
12908;170898;34.76;622;03.43.15.890
12912;170905;34.76;623;03.43.15.890
12908;170908;34.76;624;03.43.15.890
12880;170902;34.76;625;03.43.15.956
12928;170907;34.76;626;03.43.15.956
12924;170907;34.76;627;03.43.15.956
12908;170907;34.76;628;03.43.15.956
12900;170913;34.76;629;03.43.15.956
12928;170913;34.76;630;03.43.15.956
12932;170910;34.76;631;03.43.15.967
12892;170902;34.76;632;03.43.15.967
12892;170902;34.76;633;03.43.15.989
12916;170915;34.76;634;03.43.15.989
12884;170901;34.76;635;03.43.15.989
12892;170912;34.76;636;03.43.15.989
12932;170905;34.76;637;03.43.15.989
12904;170906;34.76;638;03.43.16.000
12888;170904;34.76;639;03.43.16.000
12908;170905;34.76;640;03.43.16.000
12884;170910;34.76;641;03.43.16.000
12920;170907;34.76;642;03.43.16.000
12924;170907;34.76;643;03.43.16.000
12892;170904;34.76;644;03.43.16.000
12944;170905;34.76;645;03.43.16.000
12936;170903;34.76;646;03.43.16.000
12916;170909;34.76;647;03.43.16.011
12916;170902;34.76;648;03.43.16.011
12916;170910;34.76;649;03.43.16.011
12892;170898;34.80;650;03.43.16.066
12924;170906;34.80;651;03.43.16.066
12904;170908;34.80;652;03.43.16.066
12916;170904;34.80;653;03.43.16.078
12892;170911;34.80;654;03.43.16.078
12908;170902;34.80;655;03.43.16.078
12912;170910;34.80;656;03.43.16.078
12908;170908;34.80;657;03.43.16.078
12900;170905;34.80;658;03.43.16.078
12908;170913;34.80;659;03.43.16.078
12908;170917;34.80;660;03.43.16.078
12936;170913;34.80;661;03.43.16.078
12904;170917;34.80;662;03.43.16.078
12900;170923;34.80;663;03.43.16.078
12892;170916;34.80;664;03.43.16.078
12916;170920;34.80;665;03.43.16.089
12916;170927;34.80;666;03.43.16.089
12904;170920;34.80;667;03.43.16.089
12916;170922;34.80;668;03.43.16.089
12876;170924;34.80;669;03.43.16.089
12944;170933;34.80;670;03.43.16.089
12916;170933;34.80;671;03.43.16.089
12928;170942;34.80;672;03.43.16.089
12928;170936;34.80;673;03.43.16.089
12928;170928;34.80;674;03.43.16.089
12888;170941;34.80;675;03.43.16.209
12928;170938;34.80;676;03.43.16.209
12920;170936;34.80;677;03.43.16.209
12892;170935;34.80;678;03.43.16.209
12900;170947;34.80;679;03.43.16.209
12872;170943;34.80;680;03.43.16.209
12908;170953;34.80;681;03.43.16.209
12892;170943;34.80;682;03.43.16.209
12928;170948;34.80;683;03.43.16.209
12920;170947;34.80;684;03.43.16.209
12888;170949;34.80;685;03.43.16.209
12912;170950;34.80;686;03.43.16.220
12904;170956;34.80;687;03.43.16.220
12924;170956;34.80;688;03.43.16.220
12920;170959;34.80;689;03.43.16.220
12904;170949;34.80;690;03.43.16.220
12936;170961;34.80;691;03.43.16.220
12928;170953;34.80;692;03.43.16.220
12904;170952;34.80;693;03.43.16.220
12932;170964;34.80;694;03.43.16.220
12904;170956;34.80;695;03.43.16.220
12936;170962;34.80;696;03.43.16.220
12928;170953;34.80;697;03.43.16.220
12868;170962;34.80;698;03.43.16.220
12920;170963;34.80;699;03.43.16.220
12908;170964;34.76;700;03.43.16.319
12912;170964;34.76;701;03.43.16.319
12928;170954;34.76;702;03.43.16.319
12916;170961;34.76;703;03.43.16.319
12924;170967;34.76;704;03.43.16.319
12920;170969;34.76;705;03.43.16.319
12896;170968;34.76;706;03.43.16.319
12916;170960;34.76;707;03.43.16.319
12904;170965;34.76;708;03.43.16.341
12908;170977;34.76;709;03.43.16.341
12904;170976;34.76;710;03.43.16.341
12912;170965;34.76;711;03.43.16.341
12928;170976;34.76;712;03.43.16.341
12884;170968;34.76;713;03.43.16.341
12928;170959;34.76;714;03.43.16.341
12904;170958;34.76;715;03.43.16.341
12904;170954;34.76;716;03.43.16.341
12904;170947;34.76;717;03.43.16.352
12876;170939;34.76;718;03.43.16.352
12920;170948;34.76;719;03.43.16.352
12900;170943;34.76;720;03.43.16.352
12944;170936;34.76;721;03.43.16.352
12892;170928;34.76;722;03.43.16.352
12908;170920;34.76;723;03.43.16.352
12960;170927;34.76;724;03.43.16.352
12920;170919;34.76;725;03.43.16.451
12936;170919;34.76;726;03.43.16.451
12896;170911;34.76;727;03.43.16.451
12892;170908;34.76;728;03.43.16.451
12920;170910;34.76;729;03.43.16.451
12956;170903;34.76;730;03.43.16.462
12884;170904;34.76;731;03.43.16.462
12900;170895;34.76;732;03.43.16.462
12908;170892;34.76;733;03.43.16.473
12916;170891;34.76;734;03.43.16.473
12912;170893;34.76;735;03.43.16.473
12896;170883;34.76;736;03.43.16.473
12912;170888;34.76;737;03.43.16.473
12904;170885;34.76;738;03.43.16.484
12900;170882;34.76;739;03.43.16.484
12880;170885;34.76;740;03.43.16.484
12892;170883;34.76;741;03.43.16.484
12912;170885;34.76;742;03.43.16.484
12900;170887;34.76;743;03.43.16.484
12892;170887;34.76;744;03.43.16.484
12904;170890;34.76;745;03.43.16.484
12888;170893;34.76;746;03.43.16.484
12892;170887;34.76;747;03.43.16.484
12904;170887;34.76;748;03.43.16.484
12908;170881;34.76;749;03.43.16.484
12900;170884;34.76;750;03.43.16.560
12916;170889;34.76;751;03.43.16.571
12892;170882;34.76;752;03.43.16.571
12928;170891;34.76;753;03.43.16.571
12900;170898;34.76;754;03.43.16.571
12920;170895;34.76;755;03.43.16.571
12916;170885;34.76;756;03.43.16.571
12920;170899;34.76;757;03.43.16.571
12928;170894;34.76;758;03.43.16.571
12900;170891;34.76;759;03.43.16.571
12916;170903;34.76;760;03.43.16.571
12904;170897;34.76;761;03.43.16.571
12904;170890;34.76;762;03.43.16.571
12912;170900;34.76;763;03.43.16.571
12908;170906;34.76;764;03.43.16.582
12904;170899;34.76;765;03.43.16.582
12900;170894;34.76;766;03.43.16.582
12916;170896;34.76;767;03.43.16.582
12896;170889;34.76;768;03.43.16.582
12916;170899;34.76;769;03.43.16.582
12904;170893;34.76;770;03.43.16.582
12888;170888;34.76;771;03.43.16.582
12912;170888;34.76;772;03.43.16.582
12904;170890;34.76;773;03.43.16.582
12920;170881;34.76;774;03.43.16.582
12916;170886;34.76;775;03.43.16.703
12900;170890;34.76;776;03.43.16.703
12908;170886;34.76;777;03.43.16.703
12940;170899;34.76;778;03.43.16.703
12892;170883;34.76;779;03.43.16.703
12928;170897;34.76;780;03.43.16.703
12900;170896;34.76;781;03.43.16.703
12896;170894;34.76;782;03.43.16.703
12920;170892;34.76;783;03.43.16.703
12908;170891;34.76;784;03.43.16.703
12924;170890;34.76;785;03.43.16.714
12908;170891;34.76;786;03.43.16.714
12904;170900;34.76;787;03.43.16.714
12908;170900;34.76;788;03.43.16.714
12872;170896;34.76;789;03.43.16.714
12908;170903;34.76;790;03.43.16.714
12904;170902;34.76;791;03.43.16.714
12928;170897;34.76;792;03.43.16.714
12904;170890;34.76;793;03.43.16.714
12860;170905;34.76;794;03.43.16.714
12908;170904;34.76;795;03.43.16.714
12932;170905;34.76;796;03.43.16.714
12928;170905;34.76;797;03.43.16.714
12904;170898;34.76;798;03.43.16.725
12908;170901;34.76;799;03.43.16.725
12904;170906;34.80;800;03.43.16.834
12928;170907;34.80;801;03.43.16.834
12920;170908;34.80;802;03.43.16.834
12920;170908;34.80;803;03.43.16.834
12928;170911;34.80;804;03.43.16.834
12928;170904;34.80;805;03.43.16.834
12912;170918;34.80;806;03.43.16.845
12944;170909;34.80;807;03.43.16.845
12880;170919;34.80;808;03.43.16.845
12908;170918;34.80;809;03.43.16.845
12900;170928;34.80;810;03.43.16.845
12888;170915;34.80;811;03.43.16.845
12912;170924;34.80;812;03.43.16.845
12892;170918;34.80;813;03.43.16.845
12916;170916;34.80;814;03.43.16.856
12920;170921;34.80;815;03.43.16.856
12928;170920;34.80;816;03.43.16.856
12892;170924;34.80;817;03.43.16.856
12916;170928;34.80;818;03.43.16.856
12904;170924;34.80;819;03.43.16.856
12928;170931;34.80;820;03.43.16.856
12928;170928;34.80;821;03.43.16.856
12908;170928;34.80;822;03.43.16.856
12928;170933;34.80;823;03.43.16.867
12916;170938;34.80;824;03.43.16.867
12900;170939;34.80;825;03.43.16.944
12892;170928;34.80;826;03.43.16.944
12944;170941;34.80;827;03.43.16.954
12908;170941;34.80;828;03.43.16.954
12916;170949;34.80;829;03.43.16.954
12900;170948;34.80;830;03.43.16.954
12908;170945;34.80;831;03.43.16.954
12904;170951;34.80;832;03.43.16.954
12912;170948;34.80;833;03.43.16.954
12928;170957;34.80;834;03.43.16.954
12920;170943;34.80;835;03.43.16.966
12928;170957;34.80;836;03.43.16.966
12908;170964;34.80;837;03.43.16.966
12900;170951;34.80;838;03.43.16.966
12936;170956;34.80;839;03.43.16.966
12916;170963;34.80;840;03.43.16.966
12908;170957;34.80;841;03.43.16.966
12908;170958;34.80;842;03.43.16.966
12924;170952;34.80;843;03.43.16.966
12908;170948;34.80;844;03.43.16.966
12892;170972;34.80;845;03.43.16.966
12928;170971;34.80;846;03.43.16.977
12912;170959;34.80;847;03.43.16.977
12916;170963;34.80;848;03.43.16.977
12936;170949;34.80;849;03.43.16.977
12896;170946;34.76;850;03.43.17.076
12912;170950;34.76;851;03.43.17.076
12892;170938;34.76;852;03.43.17.076
12900;170941;34.76;853;03.43.17.076
12924;170930;34.76;854;03.43.17.076
12896;170929;34.76;855;03.43.17.076
12888;170932;34.76;856;03.43.17.076
12896;170925;34.76;857;03.43.17.076
12908;170921;34.76;858;03.43.17.076
12904;170912;34.76;859;03.43.17.076
12916;170912;34.76;860;03.43.17.076
12912;170915;34.76;861;03.43.17.076
12928;170902;34.76;862;03.43.17.076
12896;170902;34.76;863;03.43.17.087
12912;170911;34.76;864;03.43.17.087
12940;170897;34.76;865;03.43.17.087
12900;170891;34.76;866;03.43.17.087
12888;170884;34.76;867;03.43.17.109
12904;170885;34.76;868;03.43.17.109
12888;170888;34.76;869;03.43.17.109
12912;170887;34.76;870;03.43.17.109
12920;170889;34.76;871;03.43.17.109
12888;170886;34.76;872;03.43.17.109
12904;170876;34.76;873;03.43.17.109
12908;170881;34.76;874;03.43.17.109
12908;170881;34.76;875;03.43.17.207
12916;170883;34.76;876;03.43.17.207
12928;170885;34.76;877;03.43.17.207
12892;170888;34.76;878;03.43.17.207
12944;170891;34.76;879;03.43.17.207
12916;170888;34.76;880;03.43.17.207
12908;170889;34.76;881;03.43.17.207
12908;170895;34.76;882;03.43.17.207
12916;170898;34.76;883;03.43.17.218
12900;170895;34.76;884;03.43.17.218
12908;170893;34.76;885;03.43.17.218
12916;170890;34.76;886;03.43.17.218
12908;170898;34.76;887;03.43.17.218
12908;170886;34.76;888;03.43.17.218
12892;170891;34.76;889;03.43.17.218
12916;170891;34.76;890;03.43.17.218
12900;170894;34.76;891;03.43.17.218
12928;170901;34.76;892;03.43.17.218
12944;170898;34.76;893;03.43.17.218
12904;170901;34.76;894;03.43.17.218
12928;170894;34.76;895;03.43.17.218
12952;170891;34.76;896;03.43.17.229
12928;170902;34.76;897;03.43.17.229
12908;170901;34.76;898;03.43.17.229
12920;170905;34.76;899;03.43.17.229
12884;170902;34.76;900;03.43.17.327
12912;170908;34.76;901;03.43.17.327
12900;170899;34.76;902;03.43.17.327
12904;170901;34.76;903;03.43.17.338
12936;170911;34.76;904;03.43.17.338
12924;170912;34.76;905;03.43.17.338
12920;170913;34.76;906;03.43.17.338
12936;170905;34.76;907;03.43.17.338
12928;170908;34.76;908;03.43.17.338
12912;170913;34.76;909;03.43.17.338
12876;170913;34.76;910;03.43.17.338
12884;170903;34.76;911;03.43.17.338
12916;170915;34.76;912;03.43.17.338
12892;170898;34.76;913;03.43.17.338
12912;170906;34.76;914;03.43.17.338
12928;170909;34.76;915;03.43.17.338
12928;170911;34.76;916;03.43.17.349
12904;170913;34.76;917;03.43.17.349
12912;170905;34.76;918;03.43.17.349
12924;170900;34.76;919;03.43.17.349
12928;170907;34.76;920;03.43.17.349
12928;170898;34.76;921;03.43.17.349
12920;170898;34.76;922;03.43.17.349
12920;170909;34.76;923;03.43.17.349
12900;170903;34.76;924;03.43.17.349
12888;170901;34.76;925;03.43.17.447
12892;170898;34.76;926;03.43.17.447
12944;170895;34.76;927;03.43.17.447
12912;170887;34.76;928;03.43.17.447
12912;170900;34.76;929;03.43.17.447
12904;170903;34.76;930;03.43.17.447
12916;170906;34.76;931;03.43.17.447
12928;170894;34.76;932;03.43.17.447
12908;170895;34.76;933;03.43.17.458
12908;170895;34.76;934;03.43.17.458
12884;170900;34.76;935;03.43.17.458
12912;170893;34.76;936;03.43.17.458
12912;170897;34.76;937;03.43.17.458
12924;170893;34.76;938;03.43.17.458
12888;170900;34.76;939;03.43.17.458
12920;170896;34.76;940;03.43.17.458
12944;170894;34.76;941;03.43.17.458
12928;170895;34.76;942;03.43.17.458
12920;170909;34.76;943;03.43.17.458
12916;170908;34.76;944;03.43.17.458
12900;170897;34.76;945;03.43.17.458
12908;170893;34.76;946;03.43.17.459
12904;170904;34.76;947;03.43.17.460
12912;170906;34.76;948;03.43.17.471
12876;170907;34.76;949;03.43.17.471
12904;170899;34.80;950;03.43.17.570
12916;170907;34.80;951;03.43.17.570
12928;170909;34.80;952;03.43.17.570
12888;170910;34.80;953;03.43.17.570
12888;170903;34.80;954;03.43.17.570
12904;170916;34.80;955;03.43.17.570
12916;170915;34.80;956;03.43.17.570
12892;170916;34.80;957;03.43.17.570
12876;170908;34.80;958;03.43.17.570
12916;170922;34.80;959;03.43.17.570
12904;170917;34.80;960;03.43.17.570
12912;170912;34.80;961;03.43.17.581
12888;170929;34.80;962;03.43.17.581
12916;170921;34.80;963;03.43.17.581
12896;170916;34.80;964;03.43.17.581
12888;170923;34.80;965;03.43.17.581
12920;170923;34.80;966;03.43.17.581
12876;170929;34.80;967;03.43.17.581
12896;170938;34.80;968;03.43.17.581
12896;170929;34.80;969;03.43.17.581
12908;170927;34.80;970;03.43.17.581
12884;170925;34.80;971;03.43.17.581
12908;170925;34.80;972;03.43.17.581
12892;170931;34.80;973;03.43.17.581
12944;170934;34.80;974;03.43.17.592
12888;170931;34.80;975;03.43.17.691
12896;170933;34.80;976;03.43.17.691
12892;170930;34.80;977;03.43.17.691
12928;170929;34.80;978;03.43.17.691
12904;170921;34.80;979;03.43.17.691
12892;170912;34.80;980;03.43.17.691
12896;170911;34.80;981;03.43.17.691
12888;170913;34.80;982;03.43.17.691
12896;170901;34.80;983;03.43.17.702
12896;170891;34.80;984;03.43.17.702
12896;170891;34.80;985;03.43.17.702
12884;170892;34.80;986;03.43.17.702
12904;170889;34.80;987;03.43.17.702
12928;170880;34.80;988;03.43.17.702
12896;170876;34.80;989;03.43.17.702
12900;170868;34.80;990;03.43.17.702
12892;170867;34.80;991;03.43.17.702
12908;170859;34.80;992;03.43.17.713
12892;170852;34.80;993;03.43.17.713
12928;170852;34.80;994;03.43.17.713
12916;170856;34.80;995;03.43.17.713
12912;170852;34.80;996;03.43.17.713
12876;170849;34.80;997;03.43.17.713
12904;170843;34.80;998;03.43.17.713
12900;170845;34.80;999;03.43.17.713
12928;170830;34.76;000;03.43.17.822
12904;170840;34.76;001;03.43.17.822
12904;170832;34.76;002;03.43.17.822
12916;170832;34.76;003;03.43.17.833
12896;170828;34.76;004;03.43.17.833
12892;170831;34.76;005;03.43.17.833
12900;170828;34.76;006;03.43.17.833
12904;170823;34.76;007;03.43.17.833
12904;170826;34.76;008;03.43.17.833
12928;170824;34.76;009;03.43.17.833
12912;170823;34.76;010;03.43.17.833
12924;170824;34.76;011;03.43.17.833
12888;170816;34.76;012;03.43.17.833
12900;170817;34.76;013;03.43.17.833
12904;170820;34.76;014;03.43.17.833
12940;170820;34.76;015;03.43.17.833
12904;170819;34.76;016;03.43.17.844
12924;170814;34.76;017;03.43.17.844
12896;170818;34.76;018;03.43.17.844
12912;170811;34.76;019;03.43.17.844
12916;170820;34.76;020;03.43.17.844
12900;170824;34.76;021;03.43.17.844
12896;170819;34.76;022;03.43.17.844
12904;170815;34.76;023;03.43.17.844
12908;170823;34.76;024;03.43.17.844
12908;170823;34.76;025;03.43.17.965
12924;170826;34.76;026;03.43.17.965
12916;170829;34.76;027;03.43.17.965
12928;170830;34.76;028;03.43.17.965
12884;170836;34.76;029;03.43.17.965
12888;170825;34.76;030;03.43.17.965
12892;170835;34.76;031;03.43.17.965
12896;170844;34.76;032;03.43.17.965
12920;170835;34.76;033;03.43.17.965
12908;170842;34.76;034;03.43.17.965
12908;170851;34.76;035;03.43.17.965
12892;170856;34.76;036;03.43.17.965
12904;170857;34.76;037;03.43.17.976
12908;170856;34.76;038;03.43.17.976
12908;170851;34.76;039;03.43.17.976
12928;170844;34.76;040;03.43.17.976
12904;170851;34.76;041;03.43.17.976
12924;170850;34.76;042;03.43.17.976
12904;170847;34.76;043;03.43.17.976
12928;170850;34.76;044;03.43.17.976
12912;170847;34.76;045;03.43.17.976
12908;170849;34.76;046;03.43.17.976
12932;170846;34.76;047;03.43.17.976
12888;170857;34.76;048;03.43.17.976
12912;170851;34.76;049;03.43.17.976
12892;170846;34.76;050;03.43.18.075
12928;170847;34.76;051;03.43.18.075
12924;170845;34.76;052;03.43.18.075
12932;170847;34.76;053;03.43.18.075
12896;170848;34.76;054;03.43.18.075
12928;170849;34.76;055;03.43.18.075
12908;170855;34.76;056;03.43.18.075
12916;170849;34.76;057;03.43.18.075
12904;170854;34.76;058;03.43.18.086
12912;170861;34.76;059;03.43.18.086
12916;170856;34.76;060;03.43.18.086
12900;170853;34.76;061;03.43.18.086
12928;170856;34.76;062;03.43.18.086
12908;170855;34.76;063;03.43.18.086
12920;170853;34.76;064;03.43.18.086
12924;170866;34.76;065;03.43.18.086
12892;170857;34.76;066;03.43.18.086
12892;170861;34.76;067;03.43.18.097
12920;170864;34.76;068;03.43.18.097
12928;170856;34.76;069;03.43.18.097
12892;170857;34.76;070;03.43.18.097
12932;170861;34.76;071;03.43.18.097
12888;170861;34.76;072;03.43.18.097
12896;170862;34.76;073;03.43.18.097
12932;170861;34.76;074;03.43.18.097
12908;170862;34.76;075;03.43.18.195
12924;170870;34.76;076;03.43.18.195
12892;170866;34.76;077;03.43.18.195
12904;170874;34.76;078;03.43.18.195
12928;170869;34.76;079;03.43.18.195
12916;170881;34.76;080;03.43.18.195
12916;170873;34.76;081;03.43.18.206
12892;170875;34.76;082;03.43.18.206
12912;170877;34.76;083;03.43.18.206
12900;170873;34.76;084;03.43.18.206
12892;170873;34.76;085;03.43.18.206
12892;170875;34.76;086;03.43.18.206
12928;170877;34.76;087;03.43.18.206
12916;170885;34.76;088;03.43.18.206
12908;170881;34.76;089;03.43.18.206
12900;170873;34.76;090;03.43.18.206
12904;170882;34.76;091;03.43.18.206
12928;170878;34.76;092;03.43.18.206
12900;170875;34.76;093;03.43.18.206
12948;170887;34.76;094;03.43.18.217
12912;170890;34.76;095;03.43.18.217
12884;170888;34.76;096;03.43.18.217
12912;170884;34.76;097;03.43.18.217
12928;170886;34.76;098;03.43.18.217
12920;170888;34.76;099;03.43.18.217
12892;170882;34.80;100;03.43.18.316
12880;170899;34.80;101;03.43.18.316
12912;170889;34.80;102;03.43.18.327
12884;170891;34.80;103;03.43.18.327
12896;170896;34.80;104;03.43.18.327
12912;170890;34.80;105;03.43.18.327
12916;170892;34.80;106;03.43.18.327
12908;170890;34.80;107;03.43.18.327
12928;170887;34.80;108;03.43.18.327
12904;170884;34.80;109;03.43.18.327
12920;170884;34.80;110;03.43.18.327
12924;170878;34.80;111;03.43.18.327
12908;170866;34.80;112;03.43.18.327
12912;170866;34.80;113;03.43.18.327
12900;170865;34.80;114;03.43.18.327
12920;170856;34.80;115;03.43.18.327
12928;170854;34.80;116;03.43.18.338
12928;170853;34.80;117;03.43.18.338
12904;170852;34.80;118;03.43.18.338
12924;170841;34.80;119;03.43.18.338
12924;170838;34.80;120;03.43.18.338
12928;170836;34.80;121;03.43.18.338
12896;170829;34.80;122;03.43.18.338
12904;170826;34.80;123;03.43.18.338
12916;170829;34.80;124;03.43.18.338
12900;170833;34.80;125;03.43.18.460
12916;170827;34.80;126;03.43.18.460
12900;170828;34.80;127;03.43.18.460
12904;170816;34.80;128;03.43.18.460
12892;170816;34.80;129;03.43.18.460
12932;170816;34.80;130;03.43.18.460
12908;170815;34.80;131;03.43.18.460
12888;170815;34.80;132;03.43.18.460
12928;170808;34.80;133;03.43.18.460
12900;170815;34.80;134;03.43.18.460
12960;170814;34.80;135;03.43.18.460
12936;170821;34.80;136;03.43.18.460
12928;170819;34.80;137;03.43.18.471
12916;170810;34.80;138;03.43.18.471
12916;170821;34.80;139;03.43.18.471
12880;170814;34.80;140;03.43.18.471
12916;170812;34.80;141;03.43.18.471
12904;170816;34.80;142;03.43.18.471
12908;170807;34.80;143;03.43.18.471
12912;170825;34.80;144;03.43.18.471
12896;170812;34.80;145;03.43.18.471
12920;170817;34.80;146;03.43.18.471
12908;170825;34.80;147;03.43.18.471
12904;170819;34.80;148;03.43.18.471
12928;170819;34.80;149;03.43.18.471
12912;170823;34.76;150;03.43.18.613
12884;170827;34.76;151;03.43.18.613
12916;170829;34.76;152;03.43.18.613
12920;170816;34.76;153;03.43.18.613
12912;170823;34.76;154;03.43.18.613
12912;170826;34.76;155;03.43.18.613
12884;170823;34.76;156;03.43.18.613
12888;170830;34.76;157;03.43.18.613
12928;170822;34.76;158;03.43.18.613
12928;170828;34.76;159;03.43.18.624
12884;170827;34.76;160;03.43.18.624
12888;170820;34.76;161;03.43.18.624
12924;170827;34.76;162;03.43.18.624
12892;170832;34.76;163;03.43.18.624
12900;170829;34.76;164;03.43.18.624
12932;170822;34.76;165;03.43.18.624
12912;170832;34.76;166;03.43.18.624
12916;170831;34.76;167;03.43.18.624
12892;170825;34.76;168;03.43.18.624
12896;170825;34.76;169;03.43.18.624
12928;170829;34.76;170;03.43.18.624
12920;170833;34.76;171;03.43.18.624
12896;170828;34.76;172;03.43.18.635
12892;170825;34.76;173;03.43.18.635
12928;170828;34.76;174;03.43.18.635
12928;170831;34.76;175;03.43.18.701
12900;170834;34.76;176;03.43.18.701
12888;170828;34.76;177;03.43.18.701
12892;170838;34.76;178;03.43.18.701
12908;170835;34.76;179;03.43.18.712
12892;170834;34.76;180;03.43.18.712
12920;170841;34.76;181;03.43.18.712
12884;170840;34.76;182;03.43.18.712
12904;170838;34.76;183;03.43.18.734
12860;170841;34.76;184;03.43.18.734
12904;170837;34.76;185;03.43.18.734
12892;170842;34.76;186;03.43.18.734
12928;170835;34.76;187;03.43.18.734
12904;170839;34.76;188;03.43.18.753
12872;170834;34.76;189;03.43.18.753
12892;170845;34.76;190;03.43.18.753
12912;170841;34.76;191;03.43.18.753
12928;170844;34.76;192;03.43.18.753
12944;170841;34.76;193;03.43.18.753
12916;170847;34.76;194;03.43.18.753
12892;170842;34.76;195;03.43.18.753
12924;170846;34.76;196;03.43.18.753
12912;170850;34.76;197;03.43.18.753
12908;170844;34.76;198;03.43.18.753
12924;170847;34.76;199;03.43.18.753
12928;170848;34.76;200;03.43.18.840
12888;170842;34.76;201;03.43.18.840
12892;170844;34.76;202;03.43.18.840
12908;170854;34.76;203;03.43.18.840
12884;170842;34.76;204;03.43.18.840
12904;170859;34.76;205;03.43.18.840
12916;170851;34.76;206;03.43.18.840
12920;170851;34.76;207;03.43.18.840
12908;170861;34.76;208;03.43.18.840
12916;170865;34.76;209;03.43.18.840
12912;170856;34.76;210;03.43.18.840
12892;170861;34.76;211;03.43.18.851
12904;170860;34.76;212;03.43.18.851
12896;170859;34.76;213;03.43.18.851
12932;170870;34.76;214;03.43.18.851
12916;170865;34.76;215;03.43.18.851
12896;170869;34.76;216;03.43.18.851
12900;170876;34.76;217;03.43.18.851
12884;170871;34.76;218;03.43.18.851
12928;170874;34.76;219;03.43.18.851
12884;170870;34.76;220;03.43.18.851
12916;170869;34.76;221;03.43.18.851
12920;170874;34.76;222;03.43.18.851
12908;170883;34.76;223;03.43.18.851
12920;170877;34.76;224;03.43.18.851
12908;170877;34.76;225;03.43.18.961
12928;170886;34.76;226;03.43.18.961
12936;170882;34.76;227;03.43.18.961
12908;170885;34.76;228;03.43.18.961
12892;170883;34.76;229;03.43.18.961
12892;170884;34.76;230;03.43.18.961
12912;170884;34.76;231;03.43.18.961
12912;170885;34.76;232;03.43.18.961
12892;170882;34.76;233;03.43.18.972
12916;170883;34.76;234;03.43.18.972
12928;170874;34.76;235;03.43.18.972
12892;170872;34.76;236;03.43.18.972
12892;170869;34.76;237;03.43.18.972
12892;170863;34.76;238;03.43.18.972
12936;170850;34.76;239;03.43.18.972
12944;170845;34.76;240;03.43.18.983
12920;170846;34.76;241;03.43.18.983
12936;170843;34.76;242;03.43.18.983
12892;170831;34.76;243;03.43.18.983
12908;170829;34.76;244;03.43.18.983
12908;170830;34.76;245;03.43.18.983
12896;170819;34.76;246;03.43.18.983
12860;170828;34.76;247;03.43.18.983
12892;170813;34.76;248;03.43.18.983
12924;170818;34.76;249;03.43.18.983
12908;170817;34.80;250;03.43.19.070
12932;170817;34.80;251;03.43.19.070
12904;170809;34.80;252;03.43.19.070
12904;170802;34.80;253;03.43.19.081
12936;170794;34.80;254;03.43.19.081
12892;170795;34.80;255;03.43.19.081
12916;170799;34.80;256;03.43.19.081
12912;170792;34.80;257;03.43.19.081
12892;170797;34.80;258;03.43.19.092
12904;170793;34.80;259;03.43.19.092
12892;170789;34.80;260;03.43.19.103
12912;170790;34.80;261;03.43.19.103
12892;170787;34.80;262;03.43.19.103
12892;170797;34.80;263;03.43.19.103
12908;170789;34.80;264;03.43.19.103
12880;170797;34.80;265;03.43.19.103
12900;170797;34.80;266;03.43.19.103
12916;170793;34.80;267;03.43.19.103
12912;170797;34.80;268;03.43.19.103
12896;170803;34.80;269;03.43.19.114
12900;170788;34.80;270;03.43.19.114
12920;170804;34.80;271;03.43.19.114
12912;170796;34.80;272;03.43.19.114
12916;170798;34.80;273;03.43.19.114
12900;170793;34.80;274;03.43.19.114
12884;170801;34.80;275;03.43.19.201
12892;170800;34.80;276;03.43.19.201
12928;170792;34.80;277;03.43.19.201
12872;170802;34.80;278;03.43.19.201
12892;170804;34.80;279;03.43.19.201
12888;170807;34.80;280;03.43.19.201
12888;170804;34.80;281;03.43.19.201
12904;170803;34.80;282;03.43.19.201
12904;170798;34.80;283;03.43.19.212
12904;170800;34.80;284;03.43.19.212
12928;170795;34.80;285;03.43.19.212
12900;170799;34.80;286;03.43.19.212
12908;170801;34.80;287;03.43.19.212
12920;170804;34.80;288;03.43.19.212
12884;170802;34.80;289;03.43.19.212
12892;170819;34.80;290;03.43.19.212
12908;170811;34.80;291;03.43.19.212
12884;170801;34.80;292;03.43.19.234
12896;170809;34.80;293;03.43.19.234
12908;170810;34.80;294;03.43.19.234
12892;170800;34.80;295;03.43.19.234
12908;170807;34.80;296;03.43.19.234
12920;170805;34.80;297;03.43.19.234
12924;170801;34.80;298;03.43.19.234
12908;170812;34.80;299;03.43.19.234
12900;170806;34.80;300;03.43.19.322
12900;170803;34.80;301;03.43.19.322
12892;170798;34.80;302;03.43.19.322
12920;170801;34.80;303;03.43.19.322
12920;170797;34.80;304;03.43.19.322
12932;170804;34.80;305;03.43.19.322
12936;170797;34.80;306;03.43.19.322
12892;170796;34.80;307;03.43.19.322
12912;170806;34.80;308;03.43.19.333
12896;170793;34.80;309;03.43.19.333
12900;170802;34.80;310;03.43.19.333
12896;170800;34.80;311;03.43.19.333
12896;170798;34.80;312;03.43.19.333
12888;170793;34.80;313;03.43.19.333
12916;170809;34.80;314;03.43.19.333
12888;170804;34.80;315;03.43.19.333
12888;170793;34.80;316;03.43.19.333
12912;170808;34.80;317;03.43.19.333
12936;170800;34.80;318;03.43.19.333
12908;170811;34.80;319;03.43.19.333
12892;170802;34.80;320;03.43.19.344
12924;170816;34.80;321;03.43.19.344
12912;170819;34.80;322;03.43.19.344
12920;170809;34.80;323;03.43.19.344
12904;170816;34.80;324;03.43.19.344
12900;170813;34.80;325;03.43.19.454
12916;170803;34.80;326;03.43.19.454
12916;170809;34.80;327;03.43.19.454
12908;170821;34.80;328;03.43.19.454
12900;170823;34.80;329;03.43.19.465
12928;170821;34.80;330;03.43.19.465
12908;170818;34.80;331;03.43.19.465
12892;170827;34.80;332;03.43.19.465
12916;170821;34.80;333;03.43.19.465
12912;170840;34.80;334;03.43.19.465
12912;170841;34.80;335;03.43.19.465
12916;170843;34.80;336;03.43.19.465
12908;170846;34.80;337;03.43.19.465
12904;170842;34.80;338;03.43.19.465
12936;170846;34.80;339;03.43.19.465
12908;170846;34.80;340;03.43.19.465
12876;170851;34.80;341;03.43.19.465
12944;170860;34.80;342;03.43.19.476
12924;170860;34.80;343;03.43.19.476
12908;170871;34.80;344;03.43.19.476
12876;170865;34.80;345;03.43.19.476
12908;170871;34.80;346;03.43.19.476
12912;170869;34.80;347;03.43.19.476
12928;170867;34.80;348;03.43.19.476
12944;170865;34.80;349;03.43.19.476
12940;170872;34.76;350;03.43.19.585
12928;170878;34.76;351;03.43.19.596
12884;170873;34.76;352;03.43.19.596
12900;170877;34.76;353;03.43.19.596
12892;170880;34.76;354;03.43.19.596
12904;170873;34.76;355;03.43.19.596
12880;170872;34.76;356;03.43.19.596
12892;170873;34.76;357;03.43.19.596
12888;170869;34.76;358;03.43.19.596
12908;170871;34.76;359;03.43.19.596
12900;170870;34.76;360;03.43.19.596
12928;170864;34.76;361;03.43.19.596
12928;170854;34.76;362;03.43.19.596
12896;170854;34.76;363;03.43.19.607
12912;170853;34.76;364;03.43.19.607
12912;170837;34.76;365;03.43.19.607
12924;170837;34.76;366;03.43.19.607
12940;170831;34.76;367;03.43.19.607
12924;170829;34.76;368;03.43.19.607
12904;170819;34.76;369;03.43.19.607
12912;170816;34.76;370;03.43.19.607
12896;170806;34.76;371;03.43.19.607
12944;170820;34.76;372;03.43.19.607
12908;170812;34.76;373;03.43.19.607
12904;170803;34.76;374;03.43.19.607
12896;170809;34.76;375;03.43.19.695
12900;170807;34.76;376;03.43.19.695
12912;170803;34.76;377;03.43.19.695
12932;170811;34.76;378;03.43.19.695
12928;170804;34.76;379;03.43.19.695
12916;170796;34.76;380;03.43.19.695
12900;170799;34.76;381;03.43.19.695
12936;170801;34.76;382;03.43.19.695
12860;170794;34.76;383;03.43.19.717
12936;170794;34.76;384;03.43.19.717
12928;170793;34.76;385;03.43.19.717
12912;170789;34.76;386;03.43.19.717
12932;170791;34.76;387;03.43.19.717
12916;170795;34.76;388;03.43.19.717
12912;170791;34.76;389;03.43.19.717
12892;170788;34.76;390;03.43.19.717
12900;170789;34.76;391;03.43.19.717
12884;170795;34.76;392;03.43.19.728
12900;170790;34.76;393;03.43.19.728
12928;170788;34.76;394;03.43.19.728
12928;170796;34.76;395;03.43.19.728
12884;170792;34.76;396;03.43.19.728
12884;170792;34.76;397;03.43.19.728
12892;170794;34.76;398;03.43.19.728
12944;170806;34.76;399;03.43.19.728
12912;170797;34.76;400;03.43.19.816
12900;170802;34.76;401;03.43.19.816
12928;170809;34.76;402;03.43.19.816
12932;170802;34.76;403;03.43.19.816
12904;170811;34.76;404;03.43.19.816
12920;170810;34.76;405;03.43.19.827
12884;170816;34.76;406;03.43.19.827
