gsr; bvp; skt; skt2; Cont; time
12920;175130;34.36;200;03.19.00.362
12928;175129;34.36;201;03.19.00.362
12944;175141;34.36;202;03.19.00.362
12908;175140;34.36;203;03.19.00.362
12944;175144;34.36;204;03.19.00.362
12920;175142;34.36;205;03.19.00.362
12960;175144;34.36;206;03.19.00.362
12944;175146;34.36;207;03.19.00.373
12932;175145;34.36;208;03.19.00.384
12924;175150;34.36;209;03.19.00.384
12924;175137;34.36;210;03.19.00.384
12920;175143;34.36;211;03.19.00.384
12928;175146;34.36;212;03.19.00.384
12936;175132;34.36;213;03.19.00.384
12944;175141;34.36;214;03.19.00.384
12924;175138;34.36;215;03.19.00.397
12920;175134;34.36;216;03.19.00.397
12908;175138;34.36;217;03.19.00.397
12916;175129;34.36;218;03.19.00.397
12908;175124;34.36;219;03.19.00.397
12952;175115;34.36;220;03.19.00.397
12928;175111;34.36;221;03.19.00.397
12904;175117;34.36;222;03.19.00.397
12944;175104;34.36;223;03.19.00.397
12920;175100;34.36;224;03.19.00.397
12952;175102;34.36;225;03.19.00.474
12892;175101;34.36;226;03.19.00.474
12912;175099;34.36;227;03.19.00.474
12908;175093;34.36;228;03.19.00.474
12928;175091;34.36;229;03.19.00.474
12944;175088;34.36;230;03.19.00.485
12924;175079;34.36;231;03.19.00.485
12924;175085;34.36;232;03.19.00.485
12936;175093;34.36;233;03.19.00.485
12924;175078;34.36;234;03.19.00.485
12924;175083;34.36;235;03.19.00.485
12956;175077;34.36;236;03.19.00.485
12940;175080;34.36;237;03.19.00.485
12940;175070;34.36;238;03.19.00.485
12944;175075;34.36;239;03.19.00.485
12920;175062;34.36;240;03.19.00.485
12956;175071;34.36;241;03.19.00.485
12936;175065;34.36;242;03.19.00.496
12932;175065;34.36;243;03.19.00.496
12908;175074;34.36;244;03.19.00.496
12920;175076;34.36;245;03.19.00.507
12960;175066;34.36;246;03.19.00.507
12936;175073;34.36;247;03.19.00.507
12920;175069;34.36;248;03.19.00.507
12940;175071;34.36;249;03.19.00.507
12944;175064;34.36;250;03.19.00.606
12916;175064;34.36;251;03.19.00.616
12904;175061;34.36;252;03.19.00.616
12932;175066;34.36;253;03.19.00.616
12932;175057;34.36;254;03.19.00.616
12948;175065;34.36;255;03.19.00.616
12948;175060;34.36;256;03.19.00.616
12920;175062;34.36;257;03.19.00.616
12944;175060;34.36;258;03.19.00.616
12924;175062;34.36;259;03.19.00.616
12924;175061;34.36;260;03.19.00.616
12916;175060;34.36;261;03.19.00.616
12932;175069;34.36;262;03.19.00.616
12908;175062;34.36;263;03.19.00.616
12924;175067;34.36;264;03.19.00.627
12924;175064;34.36;265;03.19.00.627
12928;175057;34.36;266;03.19.00.627
12892;175055;34.36;267;03.19.00.627
12916;175051;34.36;268;03.19.00.627
12940;175067;34.36;269;03.19.00.627
12936;175057;34.36;270;03.19.00.627
12928;175055;34.36;271;03.19.00.627
12900;175058;34.36;272;03.19.00.627
12936;175054;34.36;273;03.19.00.627
12940;175050;34.36;274;03.19.00.627
12908;175062;34.36;275;03.19.00.748
12896;175063;34.36;276;03.19.00.748
12920;175060;34.36;277;03.19.00.748
12908;175058;34.36;278;03.19.00.748
12928;175064;34.36;279;03.19.00.748
12904;175062;34.36;280;03.19.00.748
12932;175051;34.36;281;03.19.00.748
12924;175056;34.36;282;03.19.00.748
12920;175052;34.36;283;03.19.00.748
12928;175048;34.36;284;03.19.00.748
12924;175061;34.36;285;03.19.00.759
12928;175045;34.36;286;03.19.00.759
12960;175056;34.36;287;03.19.00.759
12960;175056;34.36;288;03.19.00.759
12924;175053;34.36;289;03.19.00.759
12960;175048;34.36;290;03.19.00.759
12920;175051;34.36;291;03.19.00.759
12908;175047;34.36;292;03.19.00.759
12936;175061;34.36;293;03.19.00.759
12892;175052;34.36;294;03.19.00.759
12944;175056;34.36;295;03.19.00.759
12928;175061;34.36;296;03.19.00.759
12928;175055;34.36;297;03.19.00.759
12932;175046;34.36;298;03.19.00.770
12952;175056;34.36;299;03.19.00.770
12928;175060;34.36;300;03.19.00.857
12940;175056;34.36;301;03.19.00.857
12944;175067;34.36;302;03.19.00.857
12924;175065;34.36;303;03.19.00.857
12944;175071;34.36;304;03.19.00.857
12936;175072;34.36;305;03.19.00.857
12932;175074;34.36;306;03.19.00.857
12932;175072;34.36;307;03.19.00.868
12944;175067;34.36;308;03.19.00.868
12928;175068;34.36;309;03.19.00.868
12940;175066;34.36;310;03.19.00.868
12940;175074;34.36;311;03.19.00.868
12920;175068;34.36;312;03.19.00.868
12940;175077;34.36;313;03.19.00.868
12892;175084;34.36;314;03.19.00.879
12924;175071;34.36;315;03.19.00.879
12932;175065;34.36;316;03.19.00.879
12928;175084;34.36;317;03.19.00.879
12936;175079;34.36;318;03.19.00.879
12920;175085;34.36;319;03.19.00.879
12924;175077;34.36;320;03.19.00.879
12928;175084;34.36;321;03.19.00.879
12932;175077;34.36;322;03.19.00.890
12924;175078;34.36;323;03.19.00.890
12944;175075;34.36;324;03.19.00.890
12920;175078;34.36;325;03.19.00.978
12920;175089;34.36;326;03.19.00.978
12940;175085;34.36;327;03.19.00.978
12924;175092;34.36;328;03.19.00.989
12940;175095;34.36;329;03.19.00.989
12960;175083;34.36;330;03.19.00.989
12928;175092;34.36;331;03.19.00.989
12960;175096;34.36;332;03.19.00.989
12920;175096;34.36;333;03.19.00.989
12948;175094;34.36;334;03.19.00.989
12940;175102;34.36;335;03.19.00.989
12944;175090;34.36;336;03.19.00.989
12924;175096;34.36;337;03.19.01.000
12928;175094;34.36;338;03.19.01.000
12932;175092;34.36;339;03.19.01.000
12932;175100;34.36;340;03.19.01.000
12952;175103;34.36;341;03.19.01.000
12932;175096;34.36;342;03.19.01.000
12920;175105;34.36;343;03.19.01.000
12928;175109;34.36;344;03.19.01.000
12960;175111;34.36;345;03.19.01.000
12936;175113;34.36;346;03.19.01.011
12928;175101;34.36;347;03.19.01.011
12944;175105;34.36;348;03.19.01.011
12944;175109;34.36;349;03.19.01.011
12932;175107;34.36;350;03.19.01.132
12908;175099;34.36;351;03.19.01.132
12912;175111;34.36;352;03.19.01.132
12920;175106;34.36;353;03.19.01.132
12948;175112;34.36;354;03.19.01.132
12904;175112;34.36;355;03.19.01.132
12932;175117;34.36;356;03.19.01.132
12928;175120;34.36;357;03.19.01.132
12932;175113;34.36;358;03.19.01.165
12924;175119;34.36;359;03.19.01.165
12920;175117;34.36;360;03.19.01.165
12904;175120;34.36;361;03.19.01.165
12908;175117;34.36;362;03.19.01.165
12936;175121;34.36;363;03.19.01.165
12924;175129;34.36;364;03.19.01.165
12896;175125;34.36;365;03.19.01.165
12920;175128;34.36;366;03.19.01.165
12928;175136;34.36;367;03.19.01.165
12916;175131;34.36;368;03.19.01.165
12924;175127;34.36;369;03.19.01.176
12960;175141;34.36;370;03.19.01.176
12936;175126;34.36;371;03.19.01.176
12920;175138;34.36;372;03.19.01.176
12920;175136;34.36;373;03.19.01.176
12940;175132;34.36;374;03.19.01.176
12912;175139;34.36;375;03.19.01.252
12892;175141;34.36;376;03.19.01.252
12920;175143;34.36;377;03.19.01.252
12928;175141;34.36;378;03.19.01.252
12928;175150;34.36;379;03.19.01.252
12912;175142;34.36;380;03.19.01.252
12936;175149;34.36;381;03.19.01.252
12896;175143;34.36;382;03.19.01.252
12928;175148;34.36;383;03.19.01.263
12960;175138;34.36;384;03.19.01.263
12940;175137;34.36;385;03.19.01.263
12920;175150;34.36;386;03.19.01.263
12928;175132;34.36;387;03.19.01.263
12904;175136;34.36;388;03.19.01.263
12920;175134;34.36;389;03.19.01.263
12928;175123;34.36;390;03.19.01.263
12944;175117;34.36;391;03.19.01.263
12944;175124;34.36;392;03.19.01.274
12936;175121;34.36;393;03.19.01.274
12944;175107;34.36;394;03.19.01.274
12928;175113;34.36;395;03.19.01.274
12928;175108;34.36;396;03.19.01.274
12960;175101;34.36;397;03.19.01.274
12936;175100;34.36;398;03.19.01.274
12956;175094;34.36;399;03.19.01.274
12920;175094;34.36;400;03.19.01.351
12920;175104;34.36;401;03.19.01.351
12936;175097;34.36;402;03.19.01.351
12920;175091;34.36;403;03.19.01.351
12932;175082;34.36;404;03.19.01.351
12924;175088;34.36;405;03.19.01.362
12932;175085;34.36;406;03.19.01.362
12912;175082;34.36;407;03.19.01.362
12936;175083;34.36;408;03.19.01.362
12936;175079;34.36;409;03.19.01.362
12932;175081;34.36;410;03.19.01.362
12936;175069;34.36;411;03.19.01.362
12944;175081;34.36;412;03.19.01.362
12960;175068;34.36;413;03.19.01.362
12908;175072;34.36;414;03.19.01.362
12932;175076;34.36;415;03.19.01.362
12952;175072;34.36;416;03.19.01.362
12916;175074;34.36;417;03.19.01.362
12924;175081;34.36;418;03.19.01.373
12892;175070;34.36;419;03.19.01.373
12924;175078;34.36;420;03.19.01.373
12928;175072;34.36;421;03.19.01.373
12936;175068;34.36;422;03.19.01.373
12892;175075;34.36;423;03.19.01.373
12928;175069;34.36;424;03.19.01.373
12928;175063;34.36;425;03.19.01.472
12908;175079;34.36;426;03.19.01.483
12960;175066;34.36;427;03.19.01.483
12916;175069;34.36;428;03.19.01.483
12976;175076;34.36;429;03.19.01.483
12928;175069;34.36;430;03.19.01.483
12936;175078;34.36;431;03.19.01.483
12928;175068;34.36;432;03.19.01.483
12968;175077;34.36;433;03.19.01.483
12948;175078;34.36;434;03.19.01.483
12944;175074;34.36;435;03.19.01.483
12948;175068;34.36;436;03.19.01.483
12924;175074;34.36;437;03.19.01.483
12952;175073;34.36;438;03.19.01.483
12908;175081;34.36;439;03.19.01.494
12928;175075;34.36;440;03.19.01.494
12932;175077;34.36;441;03.19.01.494
12928;175077;34.36;442;03.19.01.494
12928;175075;34.36;443;03.19.01.494
12936;175073;34.36;444;03.19.01.494
12944;175076;34.36;445;03.19.01.494
12940;175069;34.36;446;03.19.01.494
12924;175068;34.36;447;03.19.01.494
12944;175078;34.36;448;03.19.01.494
12948;175075;34.36;449;03.19.01.494
12924;175066;34.32;450;03.19.01.614
12944;175065;34.32;451;03.19.01.614
12908;175065;34.32;452;03.19.01.614
12924;175059;34.32;453;03.19.01.614
12912;175071;34.32;454;03.19.01.614
12928;175060;34.32;455;03.19.01.614
12908;175057;34.32;456;03.19.01.614
12912;175057;34.32;457;03.19.01.614
12928;175065;34.32;458;03.19.01.614
12932;175058;34.32;459;03.19.01.614
12940;175067;34.32;460;03.19.01.625
12940;175061;34.32;461;03.19.01.625
12940;175062;34.32;462;03.19.01.625
12908;175061;34.32;463;03.19.01.625
12936;175060;34.32;464;03.19.01.625
12920;175063;34.32;465;03.19.01.625
12936;175064;34.32;466;03.19.01.625
12936;175063;34.32;467;03.19.01.625
12928;175062;34.32;468;03.19.01.625
12948;175067;34.32;469;03.19.01.625
12916;175065;34.32;470;03.19.01.625
12952;175067;34.32;471;03.19.01.625
12928;175068;34.32;472;03.19.01.625
12924;175075;34.32;473;03.19.01.636
12924;175065;34.32;474;03.19.01.636
12912;175070;34.32;475;03.19.01.735
12940;175072;34.32;476;03.19.01.735
12912;175077;34.32;477;03.19.01.735
12944;175069;34.32;478;03.19.01.735
12916;175074;34.32;479;03.19.01.735
12928;175075;34.32;480;03.19.01.735
12900;175078;34.32;481;03.19.01.746
12952;175079;34.32;482;03.19.01.746
12944;175086;34.32;483;03.19.01.746
12940;175085;34.32;484;03.19.01.746
12912;175076;34.32;485;03.19.01.746
12924;175078;34.32;486;03.19.01.746
12928;175084;34.32;487;03.19.01.746
12928;175089;34.32;488;03.19.01.746
12924;175081;34.32;489;03.19.01.746
12924;175084;34.32;490;03.19.01.746
12916;175092;34.32;491;03.19.01.746
12928;175088;34.32;492;03.19.01.746
12944;175089;34.32;493;03.19.01.757
12924;175091;34.32;494;03.19.01.757
12936;175093;34.32;495;03.19.01.757
12928;175097;34.32;496;03.19.01.757
12920;175093;34.32;497;03.19.01.757
12932;175097;34.32;498;03.19.01.757
12924;175102;34.32;499;03.19.01.757
12928;175106;34.36;500;03.19.01.888
12936;175104;34.36;501;03.19.01.899
12924;175111;34.36;502;03.19.01.899
12940;175104;34.36;503;03.19.01.899
12960;175107;34.36;504;03.19.01.899
12948;175115;34.36;505;03.19.01.899
12936;175108;34.36;506;03.19.01.899
12928;175114;34.36;507;03.19.01.899
12908;175113;34.36;508;03.19.01.899
12928;175107;34.36;509;03.19.01.899
12908;175114;34.36;510;03.19.01.899
12916;175113;34.36;511;03.19.01.899
12920;175123;34.36;512;03.19.01.899
12948;175120;34.36;513;03.19.01.910
12928;175119;34.36;514;03.19.01.910
12960;175121;34.36;515;03.19.01.910
12924;175131;34.36;516;03.19.01.910
12932;175119;34.36;517;03.19.01.921
12924;175126;34.36;518;03.19.01.932
12924;175127;34.36;519;03.19.01.932
12940;175132;34.36;520;03.19.01.932
12940;175127;34.36;521;03.19.01.932
12928;175133;34.36;522;03.19.01.932
12944;175130;34.36;523;03.19.01.932
12948;175138;34.36;524;03.19.01.932
12936;175136;34.36;525;03.19.01.986
12932;175135;34.36;526;03.19.01.986
12932;175135;34.36;527;03.19.01.986
12928;175140;34.36;528;03.19.01.986
12952;175146;34.36;529;03.19.01.986
12932;175143;34.36;530;03.19.01.986
12916;175139;34.36;531;03.19.01.986
12952;175139;34.36;532;03.19.01.986
12928;175151;34.36;533;03.19.01.997
12924;175147;34.36;534;03.19.01.997
12940;175132;34.36;535;03.19.01.997
12920;175141;34.36;536;03.19.01.997
12936;175147;34.36;537;03.19.01.997
12932;175148;34.36;538;03.19.01.997
12916;175155;34.36;539;03.19.01.997
12944;175145;34.36;540;03.19.01.997
12928;175155;34.36;541;03.19.01.997
12936;175157;34.36;542;03.19.02.019
12948;175155;34.36;543;03.19.02.019
12932;175157;34.36;544;03.19.02.019
12924;175156;34.36;545;03.19.02.019
12936;175166;34.36;546;03.19.02.019
12908;175158;34.36;547;03.19.02.019
12940;175159;34.36;548;03.19.02.019
12920;175160;34.36;549;03.19.02.019
12932;175154;34.32;550;03.19.02.107
12944;175168;34.32;551;03.19.02.107
12928;175156;34.32;552;03.19.02.107
12924;175167;34.32;553;03.19.02.107
12944;175163;34.32;554;03.19.02.107
12928;175170;34.32;555;03.19.02.107
12928;175171;34.32;556;03.19.02.107
12892;175173;34.32;557;03.19.02.107
12944;175166;34.32;558;03.19.02.118
12932;175166;34.32;559;03.19.02.118
12932;175172;34.32;560;03.19.02.118
12924;175167;34.32;561;03.19.02.118
12944;175173;34.32;562;03.19.02.118
12944;175163;34.32;563;03.19.02.118
12936;175163;34.32;564;03.19.02.118
12920;175163;34.32;565;03.19.02.118
12900;175155;34.32;566;03.19.02.118
12936;175158;34.32;567;03.19.02.118
12952;175153;34.32;568;03.19.02.118
12936;175147;34.32;569;03.19.02.118
12936;175150;34.32;570;03.19.02.118
12928;175138;34.32;571;03.19.02.129
12924;175139;34.32;572;03.19.02.129
12944;175139;34.32;573;03.19.02.129
12916;175129;34.32;574;03.19.02.129
12920;175135;34.32;575;03.19.02.239
12928;175123;34.32;576;03.19.02.239
12940;175130;34.32;577;03.19.02.239
12936;175118;34.32;578;03.19.02.250
12932;175107;34.32;579;03.19.02.250
12904;175117;34.32;580;03.19.02.250
12932;175118;34.32;581;03.19.02.250
12944;175118;34.32;582;03.19.02.250
12928;175116;34.32;583;03.19.02.250
12912;175118;34.32;584;03.19.02.250
12928;175112;34.32;585;03.19.02.250
12924;175112;34.32;586;03.19.02.250
12944;175113;34.32;587;03.19.02.250
12916;175112;34.32;588;03.19.02.250
12920;175109;34.32;589;03.19.02.250
12924;175109;34.32;590;03.19.02.250
12952;175111;34.32;591;03.19.02.250
12964;175113;34.32;592;03.19.02.260
12936;175112;34.32;593;03.19.02.260
12960;175112;34.32;594;03.19.02.260
12960;175118;34.32;595;03.19.02.260
12932;175116;34.32;596;03.19.02.260
12916;175117;34.32;597;03.19.02.260
12924;175112;34.32;598;03.19.02.260
12964;175109;34.32;599;03.19.02.260
12944;175105;34.32;600;03.19.02.359
12908;175107;34.32;601;03.19.02.359
12944;175113;34.32;602;03.19.02.359
12944;175114;34.32;603;03.19.02.359
12928;175114;34.32;604;03.19.02.359
12904;175113;34.32;605;03.19.02.359
12924;175111;34.32;606;03.19.02.359
12924;175106;34.32;607;03.19.02.359
12940;175108;34.32;608;03.19.02.380
12928;175109;34.32;609;03.19.02.380
12928;175117;34.32;610;03.19.02.380
12924;175113;34.32;611;03.19.02.380
12952;175104;34.32;612;03.19.02.380
12892;175113;34.32;613;03.19.02.380
12920;175119;34.32;614;03.19.02.380
12920;175104;34.32;615;03.19.02.380
12884;175110;34.32;616;03.19.02.380
12956;175116;34.32;617;03.19.02.380
12900;175108;34.32;618;03.19.02.380
12908;175110;34.32;619;03.19.02.380
12920;175107;34.32;620;03.19.02.391
12912;175113;34.32;621;03.19.02.391
12936;175111;34.32;622;03.19.02.391
12932;175110;34.32;623;03.19.02.391
12940;175105;34.32;624;03.19.02.391
12940;175113;34.32;625;03.19.02.479
12916;175107;34.32;626;03.19.02.479
12928;175108;34.32;627;03.19.02.479
12936;175106;34.32;628;03.19.02.479
12960;175108;34.32;629;03.19.02.479
12920;175098;34.32;630;03.19.02.479
12920;175110;34.32;631;03.19.02.479
12908;175105;34.32;632;03.19.02.479
12944;175110;34.32;633;03.19.02.490
12932;175104;34.32;634;03.19.02.490
12932;175104;34.32;635;03.19.02.490
12944;175099;34.32;636;03.19.02.490
12936;175111;34.32;637;03.19.02.490
12944;175104;34.32;638;03.19.02.490
12960;175105;34.32;639;03.19.02.490
12936;175108;34.32;640;03.19.02.490
12892;175101;34.32;641;03.19.02.490
12932;175101;34.32;642;03.19.02.512
12928;175107;34.32;643;03.19.02.512
12924;175114;34.32;644;03.19.02.512
12904;175108;34.32;645;03.19.02.512
12912;175102;34.32;646;03.19.02.512
12936;175110;34.32;647;03.19.02.512
12920;175110;34.32;648;03.19.02.512
12952;175113;34.32;649;03.19.02.512
12916;175113;34.36;650;03.19.02.600
12932;175114;34.36;651;03.19.02.600
12932;175108;34.36;652;03.19.02.600
12908;175118;34.36;653;03.19.02.600
12900;175115;34.36;654;03.19.02.611
12944;175118;34.36;655;03.19.02.611
12928;175120;34.36;656;03.19.02.611
12924;175117;34.36;657;03.19.02.611
12928;175117;34.36;658;03.19.02.611
12948;175114;34.36;659;03.19.02.611
12936;175109;34.36;660;03.19.02.611
12908;175122;34.36;661;03.19.02.611
12940;175122;34.36;662;03.19.02.611
12904;175124;34.36;663;03.19.02.611
12908;175115;34.36;664;03.19.02.611
12936;175114;34.36;665;03.19.02.611
12916;175109;34.36;666;03.19.02.611
12944;175116;34.36;667;03.19.02.622
12960;175112;34.36;668;03.19.02.622
12936;175118;34.36;669;03.19.02.622
12940;175121;34.36;670;03.19.02.622
12912;175123;34.36;671;03.19.02.622
12948;175118;34.36;672;03.19.02.622
12960;175117;34.36;673;03.19.02.622
12936;175129;34.36;674;03.19.02.622
12928;175124;34.36;675;03.19.02.731
12924;175133;34.36;676;03.19.02.742
12952;175127;34.36;677;03.19.02.742
12960;175134;34.36;678;03.19.02.742
12924;175123;34.36;679;03.19.02.742
12944;175131;34.36;680;03.19.02.742
12952;175131;34.36;681;03.19.02.742
12920;175131;34.36;682;03.19.02.742
12936;175124;34.36;683;03.19.02.742
12944;175130;34.36;684;03.19.02.742
12940;175135;34.36;685;03.19.02.742
12940;175136;34.36;686;03.19.02.742
12928;175137;34.36;687;03.19.02.742
12908;175125;34.36;688;03.19.02.742
12932;175126;34.36;689;03.19.02.753
12960;175123;34.36;690;03.19.02.753
12928;175126;34.36;691;03.19.02.753
12924;175126;34.36;692;03.19.02.753
12924;175127;34.36;693;03.19.02.753
12908;175130;34.36;694;03.19.02.753
12936;175132;34.36;695;03.19.02.753
12968;175137;34.36;696;03.19.02.753
12908;175137;34.36;697;03.19.02.753
12916;175133;34.36;698;03.19.02.753
12928;175135;34.36;699;03.19.02.753
12928;175137;34.40;700;03.19.02.874
12964;175140;34.40;701;03.19.02.874
12916;175139;34.40;702;03.19.02.874
12944;175138;34.40;703;03.19.02.874
12896;175138;34.40;704;03.19.02.874
12948;175140;34.40;705;03.19.02.874
12932;175138;34.40;706;03.19.02.874
12916;175144;34.40;707;03.19.02.874
12928;175146;34.40;708;03.19.02.885
12920;175155;34.40;709;03.19.02.885
12936;175149;34.40;710;03.19.02.885
12924;175155;34.40;711;03.19.02.885
12892;175155;34.40;712;03.19.02.885
12940;175165;34.40;713;03.19.02.885
12952;175163;34.40;714;03.19.02.885
12940;175160;34.40;715;03.19.02.885
12944;175167;34.40;716;03.19.02.885
12916;175172;34.40;717;03.19.02.896
12928;175169;34.40;718;03.19.02.896
12932;175170;34.40;719;03.19.02.896
12932;175178;34.40;720;03.19.02.896
12924;175172;34.40;721;03.19.02.896
12924;175181;34.40;722;03.19.02.896
12940;175174;34.40;723;03.19.02.896
12948;175182;34.40;724;03.19.02.896
12892;175177;34.40;725;03.19.03.017
12916;175180;34.40;726;03.19.03.017
12952;175181;34.40;727;03.19.03.017
12960;175186;34.40;728;03.19.03.017
12936;175188;34.40;729;03.19.03.017
12936;175184;34.40;730;03.19.03.017
12932;175190;34.40;731;03.19.03.028
12936;175188;34.40;732;03.19.03.028
12928;175190;34.40;733;03.19.03.028
12928;175183;34.40;734;03.19.03.028
12928;175182;34.40;735;03.19.03.028
12904;175190;34.40;736;03.19.03.028
12952;175192;34.40;737;03.19.03.028
12940;175193;34.40;738;03.19.03.028
12896;175180;34.40;739;03.19.03.039
12904;175181;34.40;740;03.19.03.039
12956;175176;34.40;741;03.19.03.039
12924;175168;34.40;742;03.19.03.039
12908;175160;34.40;743;03.19.03.039
12912;175161;34.40;744;03.19.03.039
12924;175159;34.40;745;03.19.03.039
12944;175161;34.40;746;03.19.03.049
12920;175155;34.40;747;03.19.03.049
12936;175154;34.40;748;03.19.03.049
12940;175145;34.40;749;03.19.03.049
12892;175139;34.36;750;03.19.03.104
12928;175138;34.36;751;03.19.03.104
12932;175134;34.36;752;03.19.03.104
12940;175137;34.36;753;03.19.03.115
12960;175121;34.36;754;03.19.03.115
12932;175118;34.36;755;03.19.03.115
12944;175122;34.36;756;03.19.03.115
12928;175116;34.36;757;03.19.03.115
12928;175114;34.36;758;03.19.03.115
12920;175120;34.36;759;03.19.03.115
12928;175115;34.36;760;03.19.03.115
12916;175110;34.36;761;03.19.03.115
12908;175113;34.36;762;03.19.03.115
12924;175116;34.36;763;03.19.03.115
12920;175110;34.36;764;03.19.03.115
12928;175109;34.36;765;03.19.03.115
12944;175105;34.36;766;03.19.03.126
12916;175100;34.36;767;03.19.03.126
12928;175097;34.36;768;03.19.03.126
12936;175103;34.36;769;03.19.03.126
12948;175101;34.36;770;03.19.03.126
12944;175101;34.36;771;03.19.03.126
12932;175099;34.36;772;03.19.03.126
12904;175096;34.36;773;03.19.03.126
12952;175103;34.36;774;03.19.03.126
12924;175097;34.36;775;03.19.03.236
12928;175093;34.36;776;03.19.03.236
12924;175096;34.36;777;03.19.03.236
12960;175096;34.36;778;03.19.03.236
12908;175100;34.36;779;03.19.03.236
12928;175101;34.36;780;03.19.03.236
12904;175097;34.36;781;03.19.03.236
12928;175097;34.36;782;03.19.03.236
12928;175092;34.36;783;03.19.03.236
12928;175102;34.36;784;03.19.03.236
12928;175093;34.36;785;03.19.03.236
12936;175096;34.36;786;03.19.03.236
12940;175097;34.36;787;03.19.03.247
12924;175099;34.36;788;03.19.03.247
12920;175097;34.36;789;03.19.03.247
12944;175100;34.36;790;03.19.03.247
12924;175095;34.36;791;03.19.03.247
12908;175093;34.36;792;03.19.03.247
12912;175097;34.36;793;03.19.03.247
12932;175104;34.36;794;03.19.03.247
12944;175101;34.36;795;03.19.03.247
12912;175106;34.36;796;03.19.03.247
12928;175109;34.36;797;03.19.03.247
12940;175103;34.36;798;03.19.03.247
12924;175105;34.36;799;03.19.03.247
12916;175099;34.36;800;03.19.03.390
12892;175098;34.36;801;03.19.03.390
12936;175108;34.36;802;03.19.03.390
12920;175101;34.36;803;03.19.03.390
12944;175112;34.36;804;03.19.03.390
12904;175107;34.36;805;03.19.03.390
12932;175108;34.36;806;03.19.03.390
12936;175106;34.36;807;03.19.03.390
12924;175108;34.36;808;03.19.03.412
12924;175100;34.36;809;03.19.03.412
12908;175105;34.36;810;03.19.03.412
12904;175111;34.36;811;03.19.03.412
12916;175099;34.36;812;03.19.03.412
12912;175107;34.36;813;03.19.03.412
12936;175106;34.36;814;03.19.03.422
12932;175111;34.36;815;03.19.03.422
12932;175107;34.36;816;03.19.03.422
12928;175109;34.36;817;03.19.03.422
12928;175107;34.36;818;03.19.03.422
12924;175105;34.36;819;03.19.03.422
12928;175110;34.36;820;03.19.03.422
12908;175111;34.36;821;03.19.03.422
12924;175104;34.36;822;03.19.03.422
12920;175111;34.36;823;03.19.03.422
12908;175104;34.36;824;03.19.03.422
12936;175110;34.36;825;03.19.03.488
12936;175110;34.36;826;03.19.03.488
12920;175114;34.36;827;03.19.03.488
12944;175113;34.36;828;03.19.03.488
12920;175116;34.36;829;03.19.03.488
12924;175117;34.36;830;03.19.03.488
12904;175107;34.36;831;03.19.03.499
12944;175111;34.36;832;03.19.03.499
12924;175115;34.36;833;03.19.03.499
12940;175117;34.36;834;03.19.03.499
12940;175113;34.36;835;03.19.03.499
12932;175115;34.36;836;03.19.03.499
12936;175110;34.36;837;03.19.03.499
12908;175116;34.36;838;03.19.03.510
12908;175117;34.36;839;03.19.03.510
12928;175113;34.36;840;03.19.03.510
12928;175114;34.36;841;03.19.03.510
12956;175119;34.36;842;03.19.03.510
12944;175110;34.36;843;03.19.03.510
12916;175115;34.36;844;03.19.03.510
12924;175117;34.36;845;03.19.03.510
12916;175127;34.36;846;03.19.03.510
12920;175131;34.36;847;03.19.03.521
12920;175128;34.36;848;03.19.03.521
12936;175128;34.36;849;03.19.03.521
12912;175131;34.36;850;03.19.03.598
12936;175121;34.36;851;03.19.03.609
12932;175129;34.36;852;03.19.03.609
12944;175128;34.36;853;03.19.03.609
12924;175123;34.36;854;03.19.03.609
12928;175127;34.36;855;03.19.03.609
12928;175121;34.36;856;03.19.03.609
12908;175132;34.36;857;03.19.03.609
12932;175125;34.36;858;03.19.03.641
12924;175131;34.36;859;03.19.03.641
12892;175139;34.36;860;03.19.03.641
12936;175137;34.36;861;03.19.03.641
12936;175131;34.36;862;03.19.03.641
12932;175137;34.36;863;03.19.03.641
12936;175139;34.36;864;03.19.03.641
12932;175137;34.36;865;03.19.03.641
12928;175138;34.36;866;03.19.03.641
12928;175132;34.36;867;03.19.03.641
12920;175147;34.36;868;03.19.03.641
12940;175144;34.36;869;03.19.03.641
12908;175138;34.36;870;03.19.03.641
12912;175149;34.36;871;03.19.03.641
12908;175146;34.36;872;03.19.03.652
12928;175142;34.36;873;03.19.03.652
12952;175141;34.36;874;03.19.03.652
12916;175150;34.36;875;03.19.03.740
12924;175148;34.36;876;03.19.03.740
12944;175150;34.36;877;03.19.03.740
12920;175159;34.36;878;03.19.03.740
12944;175157;34.36;879;03.19.03.740
12936;175160;34.36;880;03.19.03.740
12928;175149;34.36;881;03.19.03.740
12916;175157;34.36;882;03.19.03.740
12912;175163;34.36;883;03.19.03.740
12920;175151;34.36;884;03.19.03.751
12936;175154;34.36;885;03.19.03.751
12900;175152;34.36;886;03.19.03.751
12892;175162;34.36;887;03.19.03.751
12952;175164;34.36;888;03.19.03.751
12916;175174;34.36;889;03.19.03.751
12964;175165;34.36;890;03.19.03.751
12928;175166;34.36;891;03.19.03.751
12924;175164;34.36;892;03.19.03.751
12936;175180;34.36;893;03.19.03.751
12936;175170;34.36;894;03.19.03.751
12892;175164;34.36;895;03.19.03.751
12940;175172;34.36;896;03.19.03.751
12916;175174;34.36;897;03.19.03.762
12920;175171;34.36;898;03.19.03.762
12952;175176;34.36;899;03.19.03.762
12916;175172;34.36;900;03.19.03.860
12920;175177;34.36;901;03.19.03.860
12944;175176;34.36;902;03.19.03.860
12932;175187;34.36;903;03.19.03.860
12928;175183;34.36;904;03.19.03.860
12928;175194;34.36;905;03.19.03.860
12928;175187;34.36;906;03.19.03.871
12940;175179;34.36;907;03.19.03.871
12916;175189;34.36;908;03.19.03.871
12940;175190;34.36;909;03.19.03.871
12936;175187;34.36;910;03.19.03.871
12900;175176;34.36;911;03.19.03.871
12932;175184;34.36;912;03.19.03.871
12944;175174;34.36;913;03.19.03.871
12940;175172;34.36;914;03.19.03.871
12900;175176;34.36;915;03.19.03.871
12928;175172;34.36;916;03.19.03.871
12920;175163;34.36;917;03.19.03.882
12944;175164;34.36;918;03.19.03.882
12976;175152;34.36;919;03.19.03.882
12920;175149;34.36;920;03.19.03.882
12928;175159;34.36;921;03.19.03.882
12960;175147;34.36;922;03.19.03.893
12896;175136;34.36;923;03.19.03.893
12936;175143;34.36;924;03.19.03.893
12920;175142;34.36;925;03.19.03.992
12928;175130;34.36;926;03.19.03.992
12904;175136;34.36;927;03.19.04.003
12908;175123;34.36;928;03.19.04.003
12940;175123;34.36;929;03.19.04.003
12892;175117;34.36;930;03.19.04.003
12936;175105;34.36;931;03.19.04.003
12936;175117;34.36;932;03.19.04.003
12912;175107;34.36;933;03.19.04.003
12908;175108;34.36;934;03.19.04.003
12928;175107;34.36;935;03.19.04.003
12944;175102;34.36;936;03.19.04.003
12904;175100;34.36;937;03.19.04.003
12904;175096;34.36;938;03.19.04.003
12928;175102;34.36;939;03.19.04.014
12928;175098;34.36;940;03.19.04.014
12944;175101;34.36;941;03.19.04.014
12924;175101;34.36;942;03.19.04.014
12948;175103;34.36;943;03.19.04.014
12932;175103;34.36;944;03.19.04.014
12936;175094;34.36;945;03.19.04.014
12936;175098;34.36;946;03.19.04.014
12912;175099;34.36;947;03.19.04.014
12912;175103;34.36;948;03.19.04.014
12924;175098;34.36;949;03.19.04.014
12908;175087;34.32;950;03.19.04.112
12920;175098;34.32;951;03.19.04.112
12904;175092;34.32;952;03.19.04.112
12940;175095;34.32;953;03.19.04.112
12920;175097;34.32;954;03.19.04.112
12936;175098;34.32;955;03.19.04.112
12940;175094;34.32;956;03.19.04.112
12936;175095;34.32;957;03.19.04.112
12908;175094;34.32;958;03.19.04.123
12916;175086;34.32;959;03.19.04.123
12916;175093;34.32;960;03.19.04.123
12908;175089;34.32;961;03.19.04.123
12932;175100;34.32;962;03.19.04.123
12952;175087;34.32;963;03.19.04.123
12932;175095;34.32;964;03.19.04.123
12936;175097;34.32;965;03.19.04.123
12920;175090;34.32;966;03.19.04.123
12920;175091;34.32;967;03.19.04.134
12960;175083;34.32;968;03.19.04.134
12936;175090;34.32;969;03.19.04.134
12920;175090;34.32;970;03.19.04.134
12904;175092;34.32;971;03.19.04.134
12900;175087;34.32;972;03.19.04.134
12904;175088;34.32;973;03.19.04.134
12940;175096;34.32;974;03.19.04.134
12916;175095;34.32;975;03.19.04.233
12924;175096;34.32;976;03.19.04.233
12916;175095;34.32;977;03.19.04.233
12936;175091;34.32;978;03.19.04.233
12960;175088;34.32;979;03.19.04.233
12936;175100;34.32;980;03.19.04.233
12944;175087;34.32;981;03.19.04.244
12924;175097;34.32;982;03.19.04.244
12908;175091;34.32;983;03.19.04.255
12928;175095;34.32;984;03.19.04.255
12936;175101;34.32;985;03.19.04.255
12940;175099;34.32;986;03.19.04.255
12908;175092;34.32;987;03.19.04.255
12920;175093;34.32;988;03.19.04.255
12948;175080;34.32;989;03.19.04.255
12940;175091;34.32;990;03.19.04.266
12940;175093;34.32;991;03.19.04.266
12924;175091;34.32;992;03.19.04.266
12928;175096;34.32;993;03.19.04.266
12940;175092;34.32;994;03.19.04.266
12924;175089;34.32;995;03.19.04.266
12900;175093;34.32;996;03.19.04.266
12952;175096;34.32;997;03.19.04.266
12916;175097;34.32;998;03.19.04.266
12944;175099;34.32;999;03.19.04.266
12912;175089;34.36;000;03.19.04.354
12924;175092;34.36;001;03.19.04.354
12908;175099;34.36;002;03.19.04.354
12928;175092;34.36;003;03.19.04.354
12916;175093;34.36;004;03.19.04.365
12928;175094;34.36;005;03.19.04.365
12924;175099;34.36;006;03.19.04.365
12928;175105;34.36;007;03.19.04.365
12924;175101;34.36;008;03.19.04.365
12940;175106;34.36;009;03.19.04.365
12992;175104;34.36;010;03.19.04.365
12932;175111;34.36;011;03.19.04.365
12928;175104;34.36;012;03.19.04.365
12908;175112;34.36;013;03.19.04.365
12936;175114;34.36;014;03.19.04.365
12916;175109;34.36;015;03.19.04.365
12924;175117;34.36;016;03.19.04.365
12936;175114;34.36;017;03.19.04.376
12920;175113;34.36;018;03.19.04.376
12920;175117;34.36;019;03.19.04.376
12948;175117;34.36;020;03.19.04.376
12924;175116;34.36;021;03.19.04.376
12932;175114;34.36;022;03.19.04.376
12916;175120;34.36;023;03.19.04.376
12916;175117;34.36;024;03.19.04.376
12944;175121;34.36;025;03.19.04.507
12924;175123;34.36;026;03.19.04.507
12920;175120;34.36;027;03.19.04.507
12920;175124;34.36;028;03.19.04.507
12920;175123;34.36;029;03.19.04.507
12916;175123;34.36;030;03.19.04.507
12916;175124;34.36;031;03.19.04.507
12916;175118;34.36;032;03.19.04.507
12940;175128;34.36;033;03.19.04.529
12928;175127;34.36;034;03.19.04.529
12940;175133;34.36;035;03.19.04.529
12892;175125;34.36;036;03.19.04.529
12960;175130;34.36;037;03.19.04.529
12940;175132;34.36;038;03.19.04.529
12920;175132;34.36;039;03.19.04.529
12912;175135;34.36;040;03.19.04.529
12908;175135;34.36;041;03.19.04.529
12904;175132;34.36;042;03.19.04.529
12916;175138;34.36;043;03.19.04.529
12892;175139;34.36;044;03.19.04.540
12936;175146;34.36;045;03.19.04.540
12920;175147;34.36;046;03.19.04.540
12936;175144;34.36;047;03.19.04.540
12928;175150;34.36;048;03.19.04.540
12948;175146;34.36;049;03.19.04.540
12912;175159;34.36;050;03.19.04.606
12920;175148;34.36;051;03.19.04.606
12916;175154;34.36;052;03.19.04.606
12936;175154;34.36;053;03.19.04.606
12928;175149;34.36;054;03.19.04.606
12944;175157;34.36;055;03.19.04.606
12916;175154;34.36;056;03.19.04.606
12928;175161;34.36;057;03.19.04.606
12932;175157;34.36;058;03.19.04.617
12936;175150;34.36;059;03.19.04.617
12928;175154;34.36;060;03.19.04.617
12924;175166;34.36;061;03.19.04.617
12928;175165;34.36;062;03.19.04.617
12944;175160;34.36;063;03.19.04.617
12960;175164;34.36;064;03.19.04.617
12932;175159;34.36;065;03.19.04.617
12920;175166;34.36;066;03.19.04.617
12904;175166;34.36;067;03.19.04.628
12932;175176;34.36;068;03.19.04.628
12920;175164;34.36;069;03.19.04.628
12916;175163;34.36;070;03.19.04.628
12912;175175;34.36;071;03.19.04.628
12944;175168;34.36;072;03.19.04.628
12960;175171;34.36;073;03.19.04.628
12952;175181;34.36;074;03.19.04.628
12936;175176;34.36;075;03.19.04.760
12920;175175;34.36;076;03.19.04.760
12940;175172;34.36;077;03.19.04.760
12952;175174;34.36;078;03.19.04.760
12952;175178;34.36;079;03.19.04.760
12916;175185;34.36;080;03.19.04.771
12920;175175;34.36;081;03.19.04.771
12908;175190;34.36;082;03.19.04.771
12944;175194;34.36;083;03.19.04.771
12932;175193;34.36;084;03.19.04.771
12944;175193;34.36;085;03.19.04.771
12932;175187;34.36;086;03.19.04.771
12936;175189;34.36;087;03.19.04.771
12904;175193;34.36;088;03.19.04.771
12928;175186;34.36;089;03.19.04.771
12932;175174;34.36;090;03.19.04.771
12880;175174;34.36;091;03.19.04.771
12916;175177;34.36;092;03.19.04.781
12920;175176;34.36;093;03.19.04.781
12936;175174;34.36;094;03.19.04.781
12952;175171;34.36;095;03.19.04.781
12936;175165;34.36;096;03.19.04.781
12912;175167;34.36;097;03.19.04.792
12928;175155;34.36;098;03.19.04.792
12940;175162;34.36;099;03.19.04.792
12928;175154;34.32;100;03.19.04.869
12936;175148;34.32;101;03.19.04.880
12932;175141;34.32;102;03.19.04.880
12892;175136;34.32;103;03.19.04.880
12920;175135;34.32;104;03.19.04.880
12928;175136;34.32;105;03.19.04.880
12924;175127;34.32;106;03.19.04.880
12912;175129;34.32;107;03.19.04.880
12932;175127;34.32;108;03.19.04.891
12960;175126;34.32;109;03.19.04.891
12936;175128;34.32;110;03.19.04.891
12908;175118;34.32;111;03.19.04.891
12940;175122;34.32;112;03.19.04.891
12928;175112;34.32;113;03.19.04.891
12920;175116;34.32;114;03.19.04.891
12936;175124;34.32;115;03.19.04.891
12932;175111;34.32;116;03.19.04.891
12928;175114;34.32;117;03.19.04.891
12892;175117;34.32;118;03.19.04.891
12908;175109;34.32;119;03.19.04.902
12900;175112;34.32;120;03.19.04.902
12936;175121;34.32;121;03.19.04.902
12908;175110;34.32;122;03.19.04.902
12936;175114;34.32;123;03.19.04.902
12924;175112;34.32;124;03.19.04.902
12924;175119;34.32;125;03.19.04.990
12916;175107;34.32;126;03.19.04.990
12892;175114;34.32;127;03.19.04.990
12888;175110;34.32;128;03.19.04.990
12908;175108;34.32;129;03.19.04.990
12920;175116;34.32;130;03.19.04.990
12928;175105;34.32;131;03.19.04.990
12932;175116;34.32;132;03.19.04.990
12912;175113;34.32;133;03.19.05.001
12952;175110;34.32;134;03.19.05.001
12944;175108;34.32;135;03.19.05.001
12924;175109;34.32;136;03.19.05.001
12904;175108;34.32;137;03.19.05.001
12928;175106;34.32;138;03.19.05.001
12944;175107;34.32;139;03.19.05.001
12932;175113;34.32;140;03.19.05.001
12900;175103;34.32;141;03.19.05.001
12924;175109;34.32;142;03.19.05.001
12940;175108;34.32;143;03.19.05.001
12944;175112;34.32;144;03.19.05.012
12924;175101;34.32;145;03.19.05.012
12932;175110;34.32;146;03.19.05.012
12892;175099;34.32;147;03.19.05.012
12916;175109;34.32;148;03.19.05.012
12944;175108;34.32;149;03.19.05.012
12912;175111;34.36;150;03.19.05.121
12908;175108;34.36;151;03.19.05.121
12924;175110;34.36;152;03.19.05.121
12920;175101;34.36;153;03.19.05.121
12920;175111;34.36;154;03.19.05.121
12944;175111;34.36;155;03.19.05.121
12936;175109;34.36;156;03.19.05.121
12928;175101;34.36;157;03.19.05.132
12928;175110;34.36;158;03.19.05.132
12924;175107;34.36;159;03.19.05.132
12908;175099;34.36;160;03.19.05.132
12944;175103;34.36;161;03.19.05.132
12920;175103;34.36;162;03.19.05.132
12920;175098;34.36;163;03.19.05.132
12912;175108;34.36;164;03.19.05.132
12932;175108;34.36;165;03.19.05.132
12928;175106;34.36;166;03.19.05.132
12928;175101;34.36;167;03.19.05.132
12920;175099;34.36;168;03.19.05.132
12924;175104;34.36;169;03.19.05.132
12932;175100;34.36;170;03.19.05.143
12924;175106;34.36;171;03.19.05.143
12936;175101;34.36;172;03.19.05.143
12916;175101;34.36;173;03.19.05.143
12932;175106;34.36;174;03.19.05.143
12940;175105;34.36;175;03.19.05.231
12928;175103;34.36;176;03.19.05.231
12920;175109;34.36;177;03.19.05.242
12944;175110;34.36;178;03.19.05.242
12892;175113;34.36;179;03.19.05.242
12928;175106;34.36;180;03.19.05.242
12932;175118;34.36;181;03.19.05.242
12912;175113;34.36;182;03.19.05.242
12928;175111;34.36;183;03.19.05.242
12936;175108;34.36;184;03.19.05.242
12932;175109;34.36;185;03.19.05.242
12932;175110;34.36;186;03.19.05.242
12908;175111;34.36;187;03.19.05.253
12900;175106;34.36;188;03.19.05.253
12936;175114;34.36;189;03.19.05.253
12916;175110;34.36;190;03.19.05.253
12928;175115;34.36;191;03.19.05.253
12932;175116;34.36;192;03.19.05.253
12900;175114;34.36;193;03.19.05.253
12940;175112;34.36;194;03.19.05.253
12944;175105;34.36;195;03.19.05.264
12924;175118;34.36;196;03.19.05.264
12940;175114;34.36;197;03.19.05.264
12932;175118;34.36;198;03.19.05.264
12924;175110;34.36;199;03.19.05.264
12912;175111;34.36;200;03.19.05.362
12932;175119;34.36;201;03.19.05.362
12908;175115;34.36;202;03.19.05.362
12892;175122;34.36;203;03.19.05.362
12912;175122;34.36;204;03.19.05.362
12932;175121;34.36;205;03.19.05.362
12924;175128;34.36;206;03.19.05.362
12932;175119;34.36;207;03.19.05.362
12960;175119;34.36;208;03.19.05.362
12928;175116;34.36;209;03.19.05.362
12944;175118;34.36;210;03.19.05.362
12952;175122;34.36;211;03.19.05.362
12908;175114;34.36;212;03.19.05.373
12924;175120;34.36;213;03.19.05.373
12900;175121;34.36;214;03.19.05.373
12928;175134;34.36;215;03.19.05.373
12960;175117;34.36;216;03.19.05.373
12944;175127;34.36;217;03.19.05.373
12916;175127;34.36;218;03.19.05.373
12904;175125;34.36;219;03.19.05.373
12936;175125;34.36;220;03.19.05.373
12944;175128;34.36;221;03.19.05.373
12956;175127;34.36;222;03.19.05.373
12928;175135;34.36;223;03.19.05.373
12936;175136;34.36;224;03.19.05.373
12960;175131;34.36;225;03.19.05.505
12936;175129;34.36;226;03.19.05.505
12908;175142;34.36;227;03.19.05.505
12916;175142;34.36;228;03.19.05.505
12936;175146;34.36;229;03.19.05.505
12924;175131;34.36;230;03.19.05.505
12936;175132;34.36;231;03.19.05.505
12932;175140;34.36;232;03.19.05.505
12944;175141;34.36;233;03.19.05.527
12924;175145;34.36;234;03.19.05.527
12948;175140;34.36;235;03.19.05.527
12960;175147;34.36;236;03.19.05.527
12944;175143;34.36;237;03.19.05.527
12960;175143;34.36;238;03.19.05.527
12924;175144;34.36;239;03.19.05.527
12916;175144;34.36;240;03.19.05.527
12916;175142;34.36;241;03.19.05.538
12936;175145;34.36;242;03.19.05.538
12924;175150;34.36;243;03.19.05.538
12916;175146;34.36;244;03.19.05.538
12928;175149;34.36;245;03.19.05.538
12932;175147;34.36;246;03.19.05.538
12936;175152;34.36;247;03.19.05.538
12912;175145;34.36;248;03.19.05.538
12916;175149;34.36;249;03.19.05.538
12932;175152;34.36;250;03.19.05.614
12928;175155;34.36;251;03.19.05.614
12932;175158;34.36;252;03.19.05.614
12936;175157;34.36;253;03.19.05.614
12924;175153;34.36;254;03.19.05.614
12936;175154;34.36;255;03.19.05.625
12924;175151;34.36;256;03.19.05.625
12916;175148;34.36;257;03.19.05.625
12924;175160;34.36;258;03.19.05.625
12924;175161;34.36;259;03.19.05.625
12944;175158;34.36;260;03.19.05.625
12924;175158;34.36;261;03.19.05.625
12920;175167;34.36;262;03.19.05.625
12920;175166;34.36;263;03.19.05.625
12916;175173;34.36;264;03.19.05.625
12924;175172;34.36;265;03.19.05.625
12916;175165;34.36;266;03.19.05.625
12940;175163;34.36;267;03.19.05.625
12928;175175;34.36;268;03.19.05.636
12892;175169;34.36;269;03.19.05.636
12920;175173;34.36;270;03.19.05.636
12908;175175;34.36;271;03.19.05.636
12916;175163;34.36;272;03.19.05.636
12932;175160;34.36;273;03.19.05.636
12940;175164;34.36;274;03.19.05.636
12924;175164;34.36;275;03.19.05.735
12892;175158;34.36;276;03.19.05.735
12908;175149;34.36;277;03.19.05.735
12928;175147;34.36;278;03.19.05.735
12944;175146;34.36;279;03.19.05.735
12912;175139;34.36;280;03.19.05.735
12916;175134;34.36;281;03.19.05.735
12936;175135;34.36;282;03.19.05.735
12908;175129;34.36;283;03.19.05.757
12908;175130;34.36;284;03.19.05.768
12932;175131;34.36;285;03.19.05.768
12924;175120;34.36;286;03.19.05.768
12936;175113;34.36;287;03.19.05.768
12924;175116;34.36;288;03.19.05.768
12960;175107;34.36;289;03.19.05.768
12924;175104;34.36;290;03.19.05.768
12892;175107;34.36;291;03.19.05.768
12944;175115;34.36;292;03.19.05.768
12936;175100;34.36;293;03.19.05.768
12912;175098;34.36;294;03.19.05.768
12936;175095;34.36;295;03.19.05.768
12900;175099;34.36;296;03.19.05.768
12960;175101;34.36;297;03.19.05.779
12912;175106;34.36;298;03.19.05.779
12952;175100;34.36;299;03.19.05.779
12908;175101;34.36;300;03.19.05.856
12908;175103;34.36;301;03.19.05.856
12908;175097;34.36;302;03.19.05.856
12944;175107;34.36;303;03.19.05.856
12912;175099;34.36;304;03.19.05.856
12956;175091;34.36;305;03.19.05.856
12940;175091;34.36;306;03.19.05.856
12924;175100;34.36;307;03.19.05.856
12924;175105;34.36;308;03.19.05.856
12892;175098;34.36;309;03.19.05.867
12924;175098;34.36;310;03.19.05.867
12908;175105;34.36;311;03.19.05.867
12944;175101;34.36;312;03.19.05.867
12944;175097;34.36;313;03.19.05.867
12904;175100;34.36;314;03.19.05.867
12916;175091;34.36;315;03.19.05.867
12908;175094;34.36;316;03.19.05.867
12944;175107;34.36;317;03.19.05.867
12920;175101;34.36;318;03.19.05.867
12936;175093;34.36;319;03.19.05.867
12944;175092;34.36;320;03.19.05.867
12936;175098;34.36;321;03.19.05.867
12908;175096;34.36;322;03.19.05.878
12916;175090;34.36;323;03.19.05.878
12928;175095;34.36;324;03.19.05.878
12928;175100;34.36;325;03.19.05.998
12916;175099;34.36;326;03.19.05.998
12940;175103;34.36;327;03.19.05.998
12932;175099;34.36;328;03.19.05.998
12932;175102;34.36;329;03.19.05.998
12932;175094;34.36;330;03.19.06.009
12904;175096;34.36;331;03.19.06.009
12944;175100;34.36;332;03.19.06.009
12908;175095;34.36;333;03.19.06.031
12908;175094;34.36;334;03.19.06.031
12912;175092;34.36;335;03.19.06.031
12892;175085;34.36;336;03.19.06.042
12928;175087;34.36;337;03.19.06.042
12912;175089;34.36;338;03.19.06.042
12936;175091;34.36;339;03.19.06.042
12924;175082;34.36;340;03.19.06.042
12936;175084;34.36;341;03.19.06.042
12928;175092;34.36;342;03.19.06.042
12920;175092;34.36;343;03.19.06.042
12932;175085;34.36;344;03.19.06.042
12924;175091;34.36;345;03.19.06.042
12936;175094;34.36;346;03.19.06.042
12924;175095;34.36;347;03.19.06.042
12928;175087;34.36;348;03.19.06.053
12936;175088;34.36;349;03.19.06.053
12944;175076;34.32;350;03.19.06.118
12912;175079;34.32;351;03.19.06.118
12924;175078;34.32;352;03.19.06.129
12920;175079;34.32;353;03.19.06.129
12920;175089;34.32;354;03.19.06.129
12920;175082;34.32;355;03.19.06.129
12928;175085;34.32;356;03.19.06.129
12932;175095;34.32;357;03.19.06.129
12932;175086;34.32;358;03.19.06.129
12932;175095;34.32;359;03.19.06.129
12916;175084;34.32;360;03.19.06.129
12908;175092;34.32;361;03.19.06.129
12940;175095;34.32;362;03.19.06.129
12908;175086;34.32;363;03.19.06.129
12924;175093;34.32;364;03.19.06.129
12936;175092;34.32;365;03.19.06.141
12940;175090;34.32;366;03.19.06.141
12920;175084;34.32;367;03.19.06.141
12928;175088;34.32;368;03.19.06.141
12924;175088;34.32;369;03.19.06.141
12944;175092;34.32;370;03.19.06.141
12920;175096;34.32;371;03.19.06.141
12924;175099;34.32;372;03.19.06.141
12952;175098;34.32;373;03.19.06.141
12952;175101;34.32;374;03.19.06.141
12916;175093;34.32;375;03.19.06.240
12948;175095;34.32;376;03.19.06.240
12944;175096;34.32;377;03.19.06.240
12932;175095;34.32;378;03.19.06.240
12924;175101;34.32;379;03.19.06.240
12940;175100;34.32;380;03.19.06.240
12912;175096;34.32;381;03.19.06.240
12932;175099;34.32;382;03.19.06.240
12932;175091;34.32;383;03.19.06.251
12904;175089;34.32;384;03.19.06.251
12940;175098;34.32;385;03.19.06.251
12944;175100;34.32;386;03.19.06.251
12928;175102;34.32;387;03.19.06.251
12928;175103;34.32;388;03.19.06.251
12940;175104;34.32;389;03.19.06.251
12936;175107;34.32;390;03.19.06.251
12908;175101;34.32;391;03.19.06.251
12940;175103;34.32;392;03.19.06.251
12928;175107;34.32;393;03.19.06.251
12928;175105;34.32;394;03.19.06.251
12960;175117;34.32;395;03.19.06.262
12940;175105;34.32;396;03.19.06.262
12936;175108;34.32;397;03.19.06.262
12932;175116;34.32;398;03.19.06.262
12928;175113;34.32;399;03.19.06.262
12928;175114;34.36;400;03.19.06.393
12944;175115;34.36;401;03.19.06.393
12936;175120;34.36;402;03.19.06.393
12928;175116;34.36;403;03.19.06.393
12920;175120;34.36;404;03.19.06.393
12940;175123;34.36;405;03.19.06.393
12908;175123;34.36;406;03.19.06.393
12928;175120;34.36;407;03.19.06.393
12944;175122;34.36;408;03.19.06.404
12916;175129;34.36;409;03.19.06.404
12912;175131;34.36;410;03.19.06.404
12960;175128;34.36;411;03.19.06.404
12928;175129;34.36;412;03.19.06.404
12912;175120;34.36;413;03.19.06.404
12920;175128;34.36;414;03.19.06.404
12924;175125;34.36;415;03.19.06.404
12916;175131;34.36;416;03.19.06.404
12936;175131;34.36;417;03.19.06.404
12936;175135;34.36;418;03.19.06.404
12936;175126;34.36;419;03.19.06.404
12924;175140;34.36;420;03.19.06.404
12932;175130;34.36;421;03.19.06.415
12968;175150;34.36;422;03.19.06.415
12944;175133;34.36;423;03.19.06.415
12936;175134;34.36;424;03.19.06.415
12932;175128;34.36;425;03.19.06.481
12924;175140;34.36;426;03.19.06.481
12924;175133;34.36;427;03.19.06.481
12928;175141;34.36;428;03.19.06.481
12916;175137;34.36;429;03.19.06.481
12928;175133;34.36;430;03.19.06.492
12904;175138;34.36;431;03.19.06.492
12936;175148;34.36;432;03.19.06.492
12928;175141;34.36;433;03.19.06.492
12960;175139;34.36;434;03.19.06.492
12944;175137;34.36;435;03.19.06.492
12936;175134;34.36;436;03.19.06.492
12936;175140;34.36;437;03.19.06.492
12924;175139;34.36;438;03.19.06.492
12896;175148;34.36;439;03.19.06.503
12908;175148;34.36;440;03.19.06.503
12908;175150;34.36;441;03.19.06.503
12896;175145;34.36;442;03.19.06.503
12908;175149;34.36;443;03.19.06.503
12924;175155;34.36;444;03.19.06.503
12904;175147;34.36;445;03.19.06.503
12928;175153;34.36;446;03.19.06.503
12920;175157;34.36;447;03.19.06.514
12924;175158;34.36;448;03.19.06.514
12916;175159;34.36;449;03.19.06.514
12928;175165;34.36;450;03.19.06.613
12936;175162;34.36;451;03.19.06.624
12932;175161;34.36;452;03.19.06.624
12932;175153;34.36;453;03.19.06.624
12928;175155;34.36;454;03.19.06.624
12932;175150;34.36;455;03.19.06.624
12916;175156;34.36;456;03.19.06.624
12932;175138;34.36;457;03.19.06.624
12912;175144;34.36;458;03.19.06.624
12912;175135;34.36;459;03.19.06.624
12912;175138;34.36;460;03.19.06.624
12916;175137;34.36;461;03.19.06.624
12924;175127;34.36;462;03.19.06.624
12904;175119;34.36;463;03.19.06.624
12928;175112;34.36;464;03.19.06.624
12936;175122;34.36;465;03.19.06.635
12928;175115;34.36;466;03.19.06.635
12952;175111;34.36;467;03.19.06.635
12928;175101;34.36;468;03.19.06.635
12928;175109;34.36;469;03.19.06.635
12904;175101;34.36;470;03.19.06.635
12884;175097;34.36;471;03.19.06.635
12908;175100;34.36;472;03.19.06.635
12920;175094;34.36;473;03.19.06.635
12932;175087;34.36;474;03.19.06.635
12916;175086;34.36;475;03.19.06.733
12928;175082;34.36;476;03.19.06.733
12940;175093;34.36;477;03.19.06.733
12920;175086;34.36;478;03.19.06.733
12912;175089;34.36;479;03.19.06.733
12948;175075;34.36;480;03.19.06.733
12936;175077;34.36;481;03.19.06.733
12908;175072;34.36;482;03.19.06.733
12904;175078;34.36;483;03.19.06.755
12928;175077;34.36;484;03.19.06.755
12960;175080;34.36;485;03.19.06.755
12928;175075;34.36;486;03.19.06.755
12924;175081;34.36;487;03.19.06.755
12936;175080;34.36;488;03.19.06.755
12928;175075;34.36;489;03.19.06.755
12936;175076;34.36;490;03.19.06.755
12924;175086;34.36;491;03.19.06.755
12928;175077;34.36;492;03.19.06.755
12932;175082;34.36;493;03.19.06.766
12928;175072;34.36;494;03.19.06.766
12948;175075;34.36;495;03.19.06.766
12936;175069;34.36;496;03.19.06.766
12916;175076;34.36;497;03.19.06.766
12960;175074;34.36;498;03.19.06.766
12936;175075;34.36;499;03.19.06.766
12920;175070;34.32;500;03.19.06.854
12948;175072;34.32;501;03.19.06.854
12948;175077;34.32;502;03.19.06.854
12960;175071;34.32;503;03.19.06.854
12920;175080;34.32;504;03.19.06.854
12944;175078;34.32;505;03.19.06.854
12928;175078;34.32;506;03.19.06.854
12924;175069;34.32;507;03.19.06.865
12924;175078;34.32;508;03.19.06.865
12916;175079;34.32;509;03.19.06.865
12908;175083;34.32;510;03.19.06.865
12916;175075;34.32;511;03.19.06.865
12920;175073;34.32;512;03.19.06.865
12936;175074;34.32;513;03.19.06.865
12932;175072;34.32;514;03.19.06.865
12916;175069;34.32;515;03.19.06.865
12928;175079;34.32;516;03.19.06.865
12920;175081;34.32;517;03.19.06.887
12916;175076;34.32;518;03.19.06.887
12948;175075;34.32;519;03.19.06.887
12928;175082;34.32;520;03.19.06.887
12932;175082;34.32;521;03.19.06.887
12960;175080;34.32;522;03.19.06.887
12920;175082;34.32;523;03.19.06.887
12920;175084;34.32;524;03.19.06.898
12904;175084;34.32;525;03.19.06.974
12892;175074;34.32;526;03.19.06.974
12928;175087;34.32;527;03.19.06.985
12952;175079;34.32;528;03.19.06.985
12928;175078;34.32;529;03.19.06.985
12928;175073;34.32;530;03.19.06.985
12916;175076;34.32;531;03.19.06.985
12940;175068;34.32;532;03.19.06.985
12928;175075;34.32;533;03.19.06.985
12892;175075;34.32;534;03.19.06.985
12944;175081;34.32;535;03.19.06.985
12908;175078;34.32;536;03.19.06.985
12928;175075;34.32;537;03.19.06.996
12928;175082;34.32;538;03.19.06.996
12932;175083;34.32;539;03.19.06.996
12920;175085;34.32;540;03.19.06.996
12928;175075;34.32;541;03.19.06.996
12892;175083;34.32;542;03.19.06.996
12928;175088;34.32;543;03.19.06.996
12908;175080;34.32;544;03.19.06.996
12912;175086;34.32;545;03.19.06.996
12932;175083;34.32;546;03.19.07.007
12892;175085;34.32;547;03.19.07.007
12944;175090;34.32;548;03.19.07.007
12948;175092;34.32;549;03.19.07.007
12920;175086;34.36;550;03.19.07.117
12932;175093;34.36;551;03.19.07.117
12924;175090;34.36;552;03.19.07.117
12928;175089;34.36;553;03.19.07.117
12908;175094;34.36;554;03.19.07.117
12916;175092;34.36;555;03.19.07.117
12908;175098;34.36;556;03.19.07.117
12932;175094;34.36;557;03.19.07.117
12960;175088;34.36;558;03.19.07.117
12928;175083;34.36;559;03.19.07.117
12944;175088;34.36;560;03.19.07.117
12920;175082;34.36;561;03.19.07.117
12960;175088;34.36;562;03.19.07.128
12904;175086;34.36;563;03.19.07.128
12916;175091;34.36;564;03.19.07.128
12916;175086;34.36;565;03.19.07.128
12940;175087;34.36;566;03.19.07.128
12900;175093;34.36;567;03.19.07.128
12932;175098;34.36;568;03.19.07.128
12904;175083;34.36;569;03.19.07.128
12952;175094;34.36;570;03.19.07.128
12916;175089;34.36;571;03.19.07.128
12960;175089;34.36;572;03.19.07.128
12936;175096;34.36;573;03.19.07.128
12912;175098;34.36;574;03.19.07.128
12920;175094;34.36;575;03.19.07.248
12936;175103;34.36;576;03.19.07.248
12912;175104;34.36;577;03.19.07.248
12936;175107;34.36;578;03.19.07.248
12932;175105;34.36;579;03.19.07.248
12960;175107;34.36;580;03.19.07.248
12928;175110;34.36;581;03.19.07.248
12916;175114;34.36;582;03.19.07.248
12920;175119;34.36;583;03.19.07.259
12920;175112;34.36;584;03.19.07.259
12932;175113;34.36;585;03.19.07.259
12928;175119;34.36;586;03.19.07.259
12944;175114;34.36;587;03.19.07.259
12920;175109;34.36;588;03.19.07.259
12908;175115;34.36;589;03.19.07.259
12928;175116;34.36;590;03.19.07.259
12936;175119;34.36;591;03.19.07.259
12924;175110;34.36;592;03.19.07.259
12924;175118;34.36;593;03.19.07.259
12928;175115;34.36;594;03.19.07.259
12960;175120;34.36;595;03.19.07.259
12908;175117;34.36;596;03.19.07.270
12960;175125;34.36;597;03.19.07.270
12900;175125;34.36;598;03.19.07.270
12936;175121;34.36;599;03.19.07.270
12904;175125;34.36;600;03.19.07.380
12932;175123;34.36;601;03.19.07.380
12928;175125;34.36;602;03.19.07.380
12940;175134;34.36;603;03.19.07.380
12928;175128;34.36;604;03.19.07.391
12944;175120;34.36;605;03.19.07.391
12928;175128;34.36;606;03.19.07.391
12916;175139;34.36;607;03.19.07.391
12944;175134;34.36;608;03.19.07.391
12928;175135;34.36;609;03.19.07.391
12916;175130;34.36;610;03.19.07.391
12920;175134;34.36;611;03.19.07.391
12952;175139;34.36;612;03.19.07.391
12940;175136;34.36;613;03.19.07.391
12900;175139;34.36;614;03.19.07.391
12936;175145;34.36;615;03.19.07.391
12908;175138;34.36;616;03.19.07.391
12928;175142;34.36;617;03.19.07.402
12916;175140;34.36;618;03.19.07.402
12924;175144;34.36;619;03.19.07.402
12944;175139;34.36;620;03.19.07.402
12928;175142;34.36;621;03.19.07.402
12920;175146;34.36;622;03.19.07.402
12920;175147;34.36;623;03.19.07.402
12924;175143;34.36;624;03.19.07.402
12908;175152;34.36;625;03.19.07.490
12928;175152;34.36;626;03.19.07.490
12896;175157;34.36;627;03.19.07.490
12936;175163;34.36;628;03.19.07.490
12928;175162;34.36;629;03.19.07.490
12928;175155;34.36;630;03.19.07.490
12892;175160;34.36;631;03.19.07.490
12904;175167;34.36;632;03.19.07.490
12908;175159;34.36;633;03.19.07.501
12924;175161;34.36;634;03.19.07.501
12920;175154;34.36;635;03.19.07.501
12912;175160;34.36;636;03.19.07.501
12912;175152;34.36;637;03.19.07.501
12892;175145;34.36;638;03.19.07.501
12908;175142;34.36;639;03.19.07.501
12916;175139;34.36;640;03.19.07.501
12940;175138;34.36;641;03.19.07.501
12912;175130;34.36;642;03.19.07.523
12908;175126;34.36;643;03.19.07.523
12944;175123;34.36;644;03.19.07.523
12924;175121;34.36;645;03.19.07.523
12940;175127;34.36;646;03.19.07.523
12892;175110;34.36;647;03.19.07.523
12920;175107;34.36;648;03.19.07.523
12920;175102;34.36;649;03.19.07.523
12944;175103;34.32;650;03.19.07.610
12924;175102;34.32;651;03.19.07.610
12936;175101;34.32;652;03.19.07.610
12940;175101;34.32;653;03.19.07.610
12908;175100;34.32;654;03.19.07.610
12924;175091;34.32;655;03.19.07.610
12916;175095;34.32;656;03.19.07.610
12920;175096;34.32;657;03.19.07.610
12920;175080;34.32;658;03.19.07.621
12916;175090;34.32;659;03.19.07.621
12916;175080;34.32;660;03.19.07.621
12932;175080;34.32;661;03.19.07.621
12928;175081;34.32;662;03.19.07.621
12892;175077;34.32;663;03.19.07.621
12912;175077;34.32;664;03.19.07.621
12924;175090;34.32;665;03.19.07.621
12932;175075;34.32;666;03.19.07.621
12900;175077;34.32;667;03.19.07.621
12924;175090;34.32;668;03.19.07.621
12908;175087;34.32;669;03.19.07.632
12928;175084;34.32;670;03.19.07.632
12904;175085;34.32;671;03.19.07.632
12924;175078;34.32;672;03.19.07.632
12920;175084;34.32;673;03.19.07.632
12932;175085;34.32;674;03.19.07.632
12952;175084;34.32;675;03.19.07.742
12944;175073;34.32;676;03.19.07.742
12912;175075;34.32;677;03.19.07.742
12948;175082;34.32;678;03.19.07.742
12924;175075;34.32;679;03.19.07.742
12892;175072;34.32;680;03.19.07.742
12944;175075;34.32;681;03.19.07.753
12944;175079;34.32;682;03.19.07.753
12928;175073;34.32;683;03.19.07.753
12944;175079;34.32;684;03.19.07.753
12936;175076;34.32;685;03.19.07.753
12924;175073;34.32;686;03.19.07.753
12948;175082;34.32;687;03.19.07.753
12932;175074;34.32;688;03.19.07.753
12952;175079;34.32;689;03.19.07.753
12928;175077;34.32;690;03.19.07.753
12892;175076;34.32;691;03.19.07.753
12924;175085;34.32;692;03.19.07.753
12928;175075;34.32;693;03.19.07.753
12892;175077;34.32;694;03.19.07.764
12920;175083;34.32;695;03.19.07.764
12920;175073;34.32;696;03.19.07.764
12924;175077;34.32;697;03.19.07.764
12912;175076;34.32;698;03.19.07.764
12924;175078;34.32;699;03.19.07.764
12920;175077;34.36;700;03.19.07.852
12928;175073;34.36;701;03.19.07.852
12932;175073;34.36;702;03.19.07.852
12928;175071;34.36;703;03.19.07.863
12932;175072;34.36;704;03.19.07.863
12928;175070;34.36;705;03.19.07.863
12904;175073;34.36;706;03.19.07.863
12924;175077;34.36;707;03.19.07.863
12920;175065;34.36;708;03.19.07.863
12920;175077;34.36;709;03.19.07.874
12924;175063;34.36;710;03.19.07.874
12916;175078;34.36;711;03.19.07.874
12920;175069;34.36;712;03.19.07.874
12932;175071;34.36;713;03.19.07.874
12952;175065;34.36;714;03.19.07.874
12920;175086;34.36;715;03.19.07.874
12932;175079;34.36;716;03.19.07.874
12960;175069;34.36;717;03.19.07.874
12928;175082;34.36;718;03.19.07.874
12884;175081;34.36;719;03.19.07.874
12908;175081;34.36;720;03.19.07.874
12928;175070;34.36;721;03.19.07.885
12944;175082;34.36;722;03.19.07.885
12932;175072;34.36;723;03.19.07.885
12924;175078;34.36;724;03.19.07.885
12932;175077;34.36;725;03.19.08.016
12928;175083;34.36;726;03.19.08.016
12940;175078;34.36;727;03.19.08.016
12908;175082;34.36;728;03.19.08.016
12920;175082;34.36;729;03.19.08.016
12900;175077;34.36;730;03.19.08.016
12928;175078;34.36;731;03.19.08.016
12924;175078;34.36;732;03.19.08.016
12948;175090;34.36;733;03.19.08.016
12920;175085;34.36;734;03.19.08.016
12940;175089;34.36;735;03.19.08.016
12928;175087;34.36;736;03.19.08.027
12924;175087;34.36;737;03.19.08.027
12936;175086;34.36;738;03.19.08.027
12932;175090;34.36;739;03.19.08.027
12920;175093;34.36;740;03.19.08.027
12948;175090;34.36;741;03.19.08.027
12916;175086;34.36;742;03.19.08.027
12928;175097;34.36;743;03.19.08.027
12928;175097;34.36;744;03.19.08.027
12932;175089;34.36;745;03.19.08.027
12940;175088;34.36;746;03.19.08.027
12920;175096;34.36;747;03.19.08.027
12920;175097;34.36;748;03.19.08.027
12924;175098;34.36;749;03.19.08.038
12920;175097;34.36;750;03.19.08.104
12912;175095;34.36;751;03.19.08.104
12912;175095;34.36;752;03.19.08.104
12936;175093;34.36;753;03.19.08.104
12928;175099;34.36;754;03.19.08.104
12948;175097;34.36;755;03.19.08.104
12952;175101;34.36;756;03.19.08.104
12904;175099;34.36;757;03.19.08.104
12940;175102;34.36;758;03.19.08.104
12924;175105;34.36;759;03.19.08.115
12940;175109;34.36;760;03.19.08.115
12928;175108;34.36;761;03.19.08.115
12920;175106;34.36;762;03.19.08.115
12920;175106;34.36;763;03.19.08.115
12928;175110;34.36;764;03.19.08.115
12928;175117;34.36;765;03.19.08.115
12924;175118;34.36;766;03.19.08.115
12936;175114;34.36;767;03.19.08.115
12932;175112;34.36;768;03.19.08.115
12916;175113;34.36;769;03.19.08.115
12960;175117;34.36;770;03.19.08.115
12940;175108;34.36;771;03.19.08.126
12920;175121;34.36;772;03.19.08.126
12928;175118;34.36;773;03.19.08.126
12920;175120;34.36;774;03.19.08.126
12904;175114;34.36;775;03.19.08.235
12936;175113;34.36;776;03.19.08.235
12912;175119;34.36;777;03.19.08.235
12924;175117;34.36;778;03.19.08.235
12904;175119;34.36;779;03.19.08.246
12912;175126;34.36;780;03.19.08.246
12924;175124;34.36;781;03.19.08.246
12908;175116;34.36;782;03.19.08.246
12944;175124;34.36;783;03.19.08.246
12928;175116;34.36;784;03.19.08.246
12904;175120;34.36;785;03.19.08.246
12952;175122;34.36;786;03.19.08.246
12928;175125;34.36;787;03.19.08.246
12932;175127;34.36;788;03.19.08.246
12920;175129;34.36;789;03.19.08.246
12916;175129;34.36;790;03.19.08.246
12912;175122;34.36;791;03.19.08.246
12936;175129;34.36;792;03.19.08.257
12924;175131;34.36;793;03.19.08.257
12952;175133;34.36;794;03.19.08.257
12932;175143;34.36;795;03.19.08.257
12904;175141;34.36;796;03.19.08.257
12960;175138;34.36;797;03.19.08.257
12928;175136;34.36;798;03.19.08.257
12916;175137;34.36;799;03.19.08.257
12944;175139;34.36;800;03.19.08.378
12960;175142;34.36;801;03.19.08.378
12940;175137;34.36;802;03.19.08.378
12908;175133;34.36;803;03.19.08.378
12944;175142;34.36;804;03.19.08.378
12936;175136;34.36;805;03.19.08.378
12936;175140;34.36;806;03.19.08.378
12908;175140;34.36;807;03.19.08.378
12940;175145;34.36;808;03.19.08.378
12944;175142;34.36;809;03.19.08.378
12928;175142;34.36;810;03.19.08.378
12932;175145;34.36;811;03.19.08.378
12928;175146;34.36;812;03.19.08.378
12944;175140;34.36;813;03.19.08.389
12936;175144;34.36;814;03.19.08.389
12948;175123;34.36;815;03.19.08.389
12916;175122;34.36;816;03.19.08.389
12920;175131;34.36;817;03.19.08.389
12932;175121;34.36;818;03.19.08.389
12924;175120;34.36;819;03.19.08.389
12960;175120;34.36;820;03.19.08.389
12892;175115;34.36;821;03.19.08.389
12960;175113;34.36;822;03.19.08.389
12912;175102;34.36;823;03.19.08.389
12928;175096;34.36;824;03.19.08.389
12936;175103;34.36;825;03.19.08.488
12892;175085;34.36;826;03.19.08.488
12916;175088;34.36;827;03.19.08.488
12908;175091;34.36;828;03.19.08.488
12944;175083;34.36;829;03.19.08.488
12904;175074;34.36;830;03.19.08.488
12916;175078;34.36;831;03.19.08.488
12936;175071;34.36;832;03.19.08.488
12944;175074;34.36;833;03.19.08.509
12936;175076;34.36;834;03.19.08.509
12908;175074;34.36;835;03.19.08.509
12960;175075;34.36;836;03.19.08.509
12912;175074;34.36;837;03.19.08.509
12928;175067;34.36;838;03.19.08.509
12920;175070;34.36;839;03.19.08.509
12924;175074;34.36;840;03.19.08.509
12920;175067;34.36;841;03.19.08.509
12928;175066;34.36;842;03.19.08.509
12924;175069;34.36;843;03.19.08.520
12944;175072;34.36;844;03.19.08.520
12912;175070;34.36;845;03.19.08.520
12936;175062;34.36;846;03.19.08.520
12904;175054;34.36;847;03.19.08.520
12952;175064;34.36;848;03.19.08.520
12932;175069;34.36;849;03.19.08.520
12928;175064;34.36;850;03.19.08.619
12936;175064;34.36;851;03.19.08.619
12932;175066;34.36;852;03.19.08.619
12908;175066;34.36;853;03.19.08.619
12952;175069;34.36;854;03.19.08.619
12928;175065;34.36;855;03.19.08.619
12908;175061;34.36;856;03.19.08.630
12924;175060;34.36;857;03.19.08.630
12928;175059;34.36;858;03.19.08.630
12960;175064;34.36;859;03.19.08.630
12936;175068;34.36;860;03.19.08.630
12932;175058;34.36;861;03.19.08.630
12944;175064;34.36;862;03.19.08.630
12916;175060;34.36;863;03.19.08.641
12944;175067;34.36;864;03.19.08.641
12932;175069;34.36;865;03.19.08.641
12944;175069;34.36;866;03.19.08.641
12944;175062;34.36;867;03.19.08.641
12924;175066;34.36;868;03.19.08.641
12924;175059;34.36;869;03.19.08.641
12912;175067;34.36;870;03.19.08.641
12928;175063;34.36;871;03.19.08.641
12904;175057;34.36;872;03.19.08.641
12928;175061;34.36;873;03.19.08.641
12956;175059;34.36;874;03.19.08.641
12904;175067;34.36;875;03.19.08.728
12916;175066;34.36;876;03.19.08.728
12944;175056;34.36;877;03.19.08.739
12940;175065;34.36;878;03.19.08.739
12920;175067;34.36;879;03.19.08.739
12920;175055;34.36;880;03.19.08.739
12944;175069;34.36;881;03.19.08.739
12928;175060;34.36;882;03.19.08.739
12948;175062;34.36;883;03.19.08.739
12908;175060;34.36;884;03.19.08.739
12932;175062;34.36;885;03.19.08.739
12908;175057;34.36;886;03.19.08.739
12960;175065;34.36;887;03.19.08.739
12920;175055;34.36;888;03.19.08.739
12920;175072;34.36;889;03.19.08.750
12908;175065;34.36;890;03.19.08.750
12944;175059;34.36;891;03.19.08.750
12892;175060;34.36;892;03.19.08.750
12912;175064;34.36;893;03.19.08.750
12940;175059;34.36;894;03.19.08.750
12964;175061;34.36;895;03.19.08.750
12916;175062;34.36;896;03.19.08.750
12960;175067;34.36;897;03.19.08.750
12940;175068;34.36;898;03.19.08.750
12924;175065;34.36;899;03.19.08.750
12924;175061;34.36;900;03.19.08.871
12916;175058;34.36;901;03.19.08.871
12960;175061;34.36;902;03.19.08.871
12920;175054;34.36;903;03.19.08.871
12920;175066;34.36;904;03.19.08.871
12920;175062;34.36;905;03.19.08.871
12924;175065;34.36;906;03.19.08.871
12944;175069;34.36;907;03.19.08.871
12908;175059;34.36;908;03.19.08.871
12932;175064;34.36;909;03.19.08.871
12956;175061;34.36;910;03.19.08.871
12928;175064;34.36;911;03.19.08.882
12908;175064;34.36;912;03.19.08.882
12928;175073;34.36;913;03.19.08.882
12944;175059;34.36;914;03.19.08.882
12944;175066;34.36;915;03.19.08.882
12908;175066;34.36;916;03.19.08.882
12908;175072;34.36;917;03.19.08.882
12948;175081;34.36;918;03.19.08.882
12916;175074;34.36;919;03.19.08.882
12916;175064;34.36;920;03.19.08.882
12936;175064;34.36;921;03.19.08.882
12936;175074;34.36;922;03.19.08.882
12932;175077;34.36;923;03.19.08.882
12936;175081;34.36;924;03.19.08.893
12944;175081;34.36;925;03.19.08.981
12936;175079;34.36;926;03.19.08.981
12944;175075;34.36;927;03.19.08.981
12920;175075;34.36;928;03.19.08.981
12892;175086;34.36;929;03.19.08.981
12908;175086;34.36;930;03.19.08.981
12908;175084;34.36;931;03.19.08.981
12916;175093;34.36;932;03.19.08.981
12928;175080;34.36;933;03.19.08.992
12944;175087;34.36;934;03.19.08.992
12932;175094;34.36;935;03.19.08.992
12932;175089;34.36;936;03.19.08.992
12936;175079;34.36;937;03.19.08.992
12912;175090;34.36;938;03.19.08.992
12924;175088;34.36;939;03.19.08.992
12916;175087;34.36;940;03.19.09.003
12944;175092;34.36;941;03.19.09.003
12928;175095;34.36;942;03.19.09.003
12904;175087;34.36;943;03.19.09.003
12960;175090;34.36;944;03.19.09.003
12944;175087;34.36;945;03.19.09.003
12920;175088;34.36;946;03.19.09.003
12952;175090;34.36;947;03.19.09.003
12948;175087;34.36;948;03.19.09.003
12924;175096;34.36;949;03.19.09.003
12952;175098;34.32;950;03.19.09.104
12924;175093;34.32;951;03.19.09.104
12924;175096;34.32;952;03.19.09.104
12924;175092;34.32;953;03.19.09.104
12908;175105;34.32;954;03.19.09.104
12936;175110;34.32;955;03.19.09.104
12940;175101;34.32;956;03.19.09.104
12916;175099;34.32;957;03.19.09.115
12928;175098;34.32;958;03.19.09.115
12908;175101;34.32;959;03.19.09.115
12924;175098;34.32;960;03.19.09.115
12936;175110;34.32;961;03.19.09.115
12936;175110;34.32;962;03.19.09.115
12928;175108;34.32;963;03.19.09.115
12940;175109;34.32;964;03.19.09.115
12924;175106;34.32;965;03.19.09.115
12952;175106;34.32;966;03.19.09.115
12924;175113;34.32;967;03.19.09.115
12912;175120;34.32;968;03.19.09.115
12924;175116;34.32;969;03.19.09.115
12928;175108;34.32;970;03.19.09.126
12936;175115;34.32;971;03.19.09.126
12924;175118;34.32;972;03.19.09.126
12924;175118;34.32;973;03.19.09.126
12948;175115;34.32;974;03.19.09.126
12908;175122;34.32;975;03.19.09.247
12928;175121;34.32;976;03.19.09.247
12932;175123;34.32;977;03.19.09.247
12936;175128;34.32;978;03.19.09.258
12936;175121;34.32;979;03.19.09.258
12940;175128;34.32;980;03.19.09.258
12916;175131;34.32;981;03.19.09.258
12940;175133;34.32;982;03.19.09.258
12924;175122;34.32;983;03.19.09.269
12924;175129;34.32;984;03.19.09.269
12944;175137;34.32;985;03.19.09.269
12892;175147;34.32;986;03.19.09.280
12928;175141;34.32;987;03.19.09.280
12932;175138;34.32;988;03.19.09.280
12904;175147;34.32;989;03.19.09.280
12916;175146;34.32;990;03.19.09.280
12920;175144;34.32;991;03.19.09.280
12936;175136;34.32;992;03.19.09.280
12940;175143;34.32;993;03.19.09.280
12936;175133;34.32;994;03.19.09.280
12924;175134;34.32;995;03.19.09.280
12960;175131;34.32;996;03.19.09.280
12936;175124;34.32;997;03.19.09.280
12924;175125;34.32;998;03.19.09.280
12960;175124;34.32;999;03.19.09.291
12936;175124;34.36;000;03.19.09.368
12928;175122;34.36;001;03.19.09.368
12920;175105;34.36;002;03.19.09.368
12924;175110;34.36;003;03.19.09.368
12904;175110;34.36;004;03.19.09.368
12924;175104;34.36;005;03.19.09.368
12924;175094;34.36;006;03.19.09.368
12928;175080;34.36;007;03.19.09.368
12892;175092;34.36;008;03.19.09.368
12944;175090;34.36;009;03.19.09.368
12936;175067;34.36;010;03.19.09.368
12924;175074;34.36;011;03.19.09.368
12940;175077;34.36;012;03.19.09.368
12928;175065;34.36;013;03.19.09.379
12928;175068;34.36;014;03.19.09.379
12920;175068;34.36;015;03.19.09.379
12928;175067;34.36;016;03.19.09.379
12928;175064;34.36;017;03.19.09.379
12920;175060;34.36;018;03.19.09.379
12892;175063;34.36;019;03.19.09.379
12924;175060;34.36;020;03.19.09.379
12936;175062;34.36;021;03.19.09.379
12940;175063;34.36;022;03.19.09.379
12920;175059;34.36;023;03.19.09.379
12952;175062;34.36;024;03.19.09.379
12928;175059;34.36;025;03.19.09.499
12912;175048;34.36;026;03.19.09.499
12936;175059;34.36;027;03.19.09.499
12928;175057;34.36;028;03.19.09.499
12960;175047;34.36;029;03.19.09.499
12920;175048;34.36;030;03.19.09.499
12924;175055;34.36;031;03.19.09.499
12928;175052;34.36;032;03.19.09.499
12932;175056;34.36;033;03.19.09.499
12944;175052;34.36;034;03.19.09.510
12924;175051;34.36;035;03.19.09.510
12952;175057;34.36;036;03.19.09.510
12948;175059;34.36;037;03.19.09.510
12932;175056;34.36;038;03.19.09.510
12932;175057;34.36;039;03.19.09.510
12936;175059;34.36;040;03.19.09.510
12928;175055;34.36;041;03.19.09.510
12936;175054;34.36;042;03.19.09.510
12952;175053;34.36;043;03.19.09.510
12944;175053;34.36;044;03.19.09.510
12948;175051;34.36;045;03.19.09.510
12936;175060;34.36;046;03.19.09.510
12952;175052;34.36;047;03.19.09.521
12928;175046;34.36;048;03.19.09.521
12940;175053;34.36;049;03.19.09.521
12924;175040;34.32;050;03.19.09.619
12936;175043;34.32;051;03.19.09.619
12944;175055;34.32;052;03.19.09.619
12960;175044;34.32;053;03.19.09.619
12932;175049;34.32;054;03.19.09.619
12904;175051;34.32;055;03.19.09.619
12936;175047;34.32;056;03.19.09.630
12916;175053;34.32;057;03.19.09.630
12920;175055;34.32;058;03.19.09.630
12924;175042;34.32;059;03.19.09.630
12900;175039;34.32;060;03.19.09.630
12944;175042;34.32;061;03.19.09.630
12940;175051;34.32;062;03.19.09.630
12940;175047;34.32;063;03.19.09.641
12924;175037;34.32;064;03.19.09.641
12936;175039;34.32;065;03.19.09.641
12904;175040;34.32;066;03.19.09.641
12908;175050;34.32;067;03.19.09.674
12936;175054;34.32;068;03.19.09.674
12924;175051;34.32;069;03.19.09.674
12912;175040;34.32;070;03.19.09.674
12940;175049;34.32;071;03.19.09.685
12892;175038;34.32;072;03.19.09.685
12928;175042;34.32;073;03.19.09.685
12952;175049;34.32;074;03.19.09.685
12948;175049;34.32;075;03.19.09.729
12936;175038;34.32;076;03.19.09.740
12936;175043;34.32;077;03.19.09.740
12932;175050;34.32;078;03.19.09.740
12928;175047;34.32;079;03.19.09.740
12932;175044;34.32;080;03.19.09.740
12936;175046;34.32;081;03.19.09.740
12932;175050;34.32;082;03.19.09.740
12944;175049;34.32;083;03.19.09.740
12936;175052;34.32;084;03.19.09.740
12912;175054;34.32;085;03.19.09.740
12908;175051;34.32;086;03.19.09.740
12920;175056;34.32;087;03.19.09.740
12932;175056;34.32;088;03.19.09.740
12944;175048;34.32;089;03.19.09.751
12924;175046;34.32;090;03.19.09.751
12940;175059;34.32;091;03.19.09.751
12952;175054;34.32;092;03.19.09.751
12924;175053;34.32;093;03.19.09.751
12948;175048;34.32;094;03.19.09.751
12944;175059;34.32;095;03.19.09.751
12916;175050;34.32;096;03.19.09.751
12924;175056;34.32;097;03.19.09.751
12936;175053;34.32;098;03.19.09.751
12960;175062;34.32;099;03.19.09.751
12900;175057;34.36;100;03.19.09.873
12928;175060;34.36;101;03.19.09.873
12916;175059;34.36;102;03.19.09.873
12936;175052;34.36;103;03.19.09.873
12944;175064;34.36;104;03.19.09.873
12908;175059;34.36;105;03.19.09.873
12924;175069;34.36;106;03.19.09.873
12924;175063;34.36;107;03.19.09.873
12932;175074;34.36;108;03.19.09.873
12928;175062;34.36;109;03.19.09.873
12908;175073;34.36;110;03.19.09.873
12904;175072;34.36;111;03.19.09.873
12932;175070;34.36;112;03.19.09.884
12908;175074;34.36;113;03.19.09.884
12920;175069;34.36;114;03.19.09.884
12924;175070;34.36;115;03.19.09.884
12944;175062;34.36;116;03.19.09.884
12952;175074;34.36;117;03.19.09.884
12908;175073;34.36;118;03.19.09.884
12916;175077;34.36;119;03.19.09.884
12920;175078;34.36;120;03.19.09.884
12940;175088;34.36;121;03.19.09.884
12932;175077;34.36;122;03.19.09.884
12928;175075;34.36;123;03.19.09.884
12924;175077;34.36;124;03.19.09.884
12924;175076;34.36;125;03.19.09.993
12932;175079;34.36;126;03.19.09.993
12892;175081;34.36;127;03.19.09.993
12952;175085;34.36;128;03.19.09.993
12928;175080;34.36;129;03.19.09.993
12916;175082;34.36;130;03.19.09.993
12936;175090;34.36;131;03.19.09.993
12928;175097;34.36;132;03.19.09.993
12924;175089;34.36;133;03.19.10.004
12924;175093;34.36;134;03.19.10.004
12956;175094;34.36;135;03.19.10.004
12944;175094;34.36;136;03.19.10.004
12948;175089;34.36;137;03.19.10.004
12904;175090;34.36;138;03.19.10.004
12936;175094;34.36;139;03.19.10.004
12936;175098;34.36;140;03.19.10.004
12936;175097;34.36;141;03.19.10.004
12892;175092;34.36;142;03.19.10.004
12916;175092;34.36;143;03.19.10.004
12924;175102;34.36;144;03.19.10.004
12900;175101;34.36;145;03.19.10.004
12932;175101;34.36;146;03.19.10.015
12908;175095;34.36;147;03.19.10.015
12936;175103;34.36;148;03.19.10.015
12932;175100;34.36;149;03.19.10.015
12912;175109;34.32;150;03.19.10.103
12936;175104;34.32;151;03.19.10.103
12944;175106;34.32;152;03.19.10.103
12916;175111;34.32;153;03.19.10.103
12928;175107;34.32;154;03.19.10.113
12956;175102;34.32;155;03.19.10.113
12940;175113;34.32;156;03.19.10.113
12928;175112;34.32;157;03.19.10.113
12904;175114;34.32;158;03.19.10.124
12916;175105;34.32;159;03.19.10.124
12952;175115;34.32;160;03.19.10.124
12920;175112;34.32;161;03.19.10.135
12888;175108;34.32;162;03.19.10.135
12960;175114;34.32;163;03.19.10.135
12932;175112;34.32;164;03.19.10.135
12920;175116;34.32;165;03.19.10.135
12928;175121;34.32;166;03.19.10.135
12940;175114;34.32;167;03.19.10.135
12928;175118;34.32;168;03.19.10.135
12936;175117;34.32;169;03.19.10.135
12932;175118;34.32;170;03.19.10.135
12916;175111;34.32;171;03.19.10.135
12928;175118;34.32;172;03.19.10.135
12916;175124;34.32;173;03.19.10.135
12936;175113;34.32;174;03.19.10.146
12916;175120;34.32;175;03.19.10.233
12908;175114;34.32;176;03.19.10.233
12892;175106;34.32;177;03.19.10.233
12892;175105;34.32;178;03.19.10.233
12928;175099;34.32;179;03.19.10.233
12940;175102;34.32;180;03.19.10.233
12928;175091;34.32;181;03.19.10.233
12960;175090;34.32;182;03.19.10.233
12952;175087;34.32;183;03.19.10.233
12900;175081;34.32;184;03.19.10.233
12936;175082;34.32;185;03.19.10.233
12924;175062;34.32;186;03.19.10.233
12928;175066;34.32;187;03.19.10.244
12940;175057;34.32;188;03.19.10.244
12940;175061;34.32;189;03.19.10.244
12924;175050;34.32;190;03.19.10.244
12940;175048;34.32;191;03.19.10.244
12948;175054;34.32;192;03.19.10.244
12936;175051;34.32;193;03.19.10.244
12904;175040;34.32;194;03.19.10.244
12924;175037;34.32;195;03.19.10.244
12940;175048;34.32;196;03.19.10.244
12960;175045;34.32;197;03.19.10.244
12932;175034;34.32;198;03.19.10.244
12920;175038;34.32;199;03.19.10.255
12892;175036;34.32;200;03.19.10.365
12912;175037;34.32;201;03.19.10.365
12928;175032;34.32;202;03.19.10.365
12936;175025;34.32;203;03.19.10.365
12936;175032;34.32;204;03.19.10.365
12908;175035;34.32;205;03.19.10.365
12944;175032;34.32;206;03.19.10.365
12924;175035;34.32;207;03.19.10.365
12916;175040;34.32;208;03.19.10.376
12940;175031;34.32;209;03.19.10.376
12932;175042;34.32;210;03.19.10.376
12944;175032;34.32;211;03.19.10.376
12924;175028;34.32;212;03.19.10.376
12932;175033;34.32;213;03.19.10.376
12936;175028;34.32;214;03.19.10.376
12940;175037;34.32;215;03.19.10.376
12944;175039;34.32;216;03.19.10.376
12928;175034;34.32;217;03.19.10.376
12920;175033;34.32;218;03.19.10.376
12904;175038;34.32;219;03.19.10.376
12932;175033;34.32;220;03.19.10.376
12940;175035;34.32;221;03.19.10.387
12936;175035;34.32;222;03.19.10.387
12936;175032;34.32;223;03.19.10.387
12936;175036;34.32;224;03.19.10.387
12940;175027;34.32;225;03.19.10.496
12944;175028;34.32;226;03.19.10.496
12928;175034;34.32;227;03.19.10.496
12928;175031;34.32;228;03.19.10.507
12952;175032;34.32;229;03.19.10.507
12928;175030;34.32;230;03.19.10.507
12908;175030;34.32;231;03.19.10.507
12928;175033;34.32;232;03.19.10.507
12928;175036;34.32;233;03.19.10.507
12944;175033;34.32;234;03.19.10.507
12932;175035;34.32;235;03.19.10.507
12932;175026;34.32;236;03.19.10.507
12940;175031;34.32;237;03.19.10.507
12936;175028;34.32;238;03.19.10.507
12916;175035;34.32;239;03.19.10.507
12936;175032;34.32;240;03.19.10.507
12936;175036;34.32;241;03.19.10.518
12912;175029;34.32;242;03.19.10.518
12912;175036;34.32;243;03.19.10.518
12960;175031;34.32;244;03.19.10.518
12928;175027;34.32;245;03.19.10.518
12960;175025;34.32;246;03.19.10.518
12916;175032;34.32;247;03.19.10.518
12940;175026;34.32;248;03.19.10.518
12940;175025;34.32;249;03.19.10.518
12908;175030;34.36;250;03.19.10.638
12960;175028;34.36;251;03.19.10.638
12924;175036;34.36;252;03.19.10.638
12912;175029;34.36;253;03.19.10.638
12932;175029;34.36;254;03.19.10.638
12908;175034;34.36;255;03.19.10.638
12936;175029;34.36;256;03.19.10.638
12912;175026;34.36;257;03.19.10.638
12944;175031;34.36;258;03.19.10.638
12948;175037;34.36;259;03.19.10.638
12924;175032;34.36;260;03.19.10.638
12948;175038;34.36;261;03.19.10.638
12920;175036;34.36;262;03.19.10.638
12928;175039;34.36;263;03.19.10.649
12924;175043;34.36;264;03.19.10.649
12916;175040;34.36;265;03.19.10.649
12952;175028;34.36;266;03.19.10.649
12920;175035;34.36;267;03.19.10.649
12940;175037;34.36;268;03.19.10.649
12920;175038;34.36;269;03.19.10.649
12928;175030;34.36;270;03.19.10.649
12908;175037;34.36;271;03.19.10.649
12940;175035;34.36;272;03.19.10.649
12932;175039;34.36;273;03.19.10.649
12940;175037;34.36;274;03.19.10.649
12932;175040;34.36;275;03.19.10.737
12944;175033;34.36;276;03.19.10.737
12920;175040;34.36;277;03.19.10.737
12944;175041;34.36;278;03.19.10.737
12912;175046;34.36;279;03.19.10.737
12908;175040;34.36;280;03.19.10.737
12944;175044;34.36;281;03.19.10.737
12928;175047;34.36;282;03.19.10.737
12932;175044;34.36;283;03.19.10.770
12920;175048;34.36;284;03.19.10.770
12936;175054;34.36;285;03.19.10.770
12936;175056;34.36;286;03.19.10.770
12944;175053;34.36;287;03.19.10.770
12940;175044;34.36;288;03.19.10.770
12948;175048;34.36;289;03.19.10.770
12924;175063;34.36;290;03.19.10.770
12940;175053;34.36;291;03.19.10.770
12924;175064;34.36;292;03.19.10.781
12920;175058;34.36;293;03.19.10.781
12940;175054;34.36;294;03.19.10.781
12892;175060;34.36;295;03.19.10.781
12920;175053;34.36;296;03.19.10.781
12924;175067;34.36;297;03.19.10.781
12916;175068;34.36;298;03.19.10.781
12908;175068;34.36;299;03.19.10.781
12908;175062;34.36;300;03.19.10.858
12908;175071;34.36;301;03.19.10.858
12928;175071;34.36;302;03.19.10.858
12920;175083;34.36;303;03.19.10.858
12908;175076;34.36;304;03.19.10.858
12964;175071;34.36;305;03.19.10.858
12936;175073;34.36;306;03.19.10.868
12908;175067;34.36;307;03.19.10.868
12940;175072;34.36;308;03.19.10.868
12944;175079;34.36;309;03.19.10.868
12948;175088;34.36;310;03.19.10.868
12936;175076;34.36;311;03.19.10.868
12916;175084;34.36;312;03.19.10.868
12916;175085;34.36;313;03.19.10.868
12940;175092;34.36;314;03.19.10.868
12916;175085;34.36;315;03.19.10.868
12924;175088;34.36;316;03.19.10.868
12944;175097;34.36;317;03.19.10.868
12924;175086;34.36;318;03.19.10.879
12912;175097;34.36;319;03.19.10.879
12960;175090;34.36;320;03.19.10.879
12952;175089;34.36;321;03.19.10.879
12932;175095;34.36;322;03.19.10.879
12924;175090;34.36;323;03.19.10.879
12952;175098;34.36;324;03.19.10.879
12908;175093;34.36;325;03.19.10.988
12936;175092;34.36;326;03.19.10.999
12928;175099;34.36;327;03.19.10.999
12924;175100;34.36;328;03.19.10.999
12928;175102;34.36;329;03.19.10.999
12928;175106;34.36;330;03.19.10.999
12928;175100;34.36;331;03.19.10.999
12904;175108;34.36;332;03.19.10.999
12928;175103;34.36;333;03.19.10.999
12932;175111;34.36;334;03.19.10.999
12944;175110;34.36;335;03.19.10.999
12932;175109;34.36;336;03.19.10.999
12908;175109;34.36;337;03.19.10.999
12916;175116;34.36;338;03.19.11.010
12928;175109;34.36;339;03.19.11.010
12960;175120;34.36;340;03.19.11.010
12936;175115;34.36;341;03.19.11.010
12940;175115;34.36;342;03.19.11.010
12888;175123;34.36;343;03.19.11.010
12916;175112;34.36;344;03.19.11.010
12912;175116;34.36;345;03.19.11.010
12928;175116;34.36;346;03.19.11.010
12924;175117;34.36;347;03.19.11.010
12920;175117;34.36;348;03.19.11.010
12920;175109;34.36;349;03.19.11.010
12948;175121;34.36;350;03.19.11.131
12920;175118;34.36;351;03.19.11.131
12928;175108;34.36;352;03.19.11.131
12916;175115;34.36;353;03.19.11.131
12952;175100;34.36;354;03.19.11.131
12932;175098;34.36;355;03.19.11.131
12956;175093;34.36;356;03.19.11.131
12924;175079;34.36;357;03.19.11.131
12892;175071;34.36;358;03.19.11.131
12916;175078;34.36;359;03.19.11.131
12920;175084;34.36;360;03.19.11.142
12928;175080;34.36;361;03.19.11.142
12924;175075;34.36;362;03.19.11.142
12892;175073;34.36;363;03.19.11.142
12960;175060;34.36;364;03.19.11.142
12920;175064;34.36;365;03.19.11.142
12932;175065;34.36;366;03.19.11.142
12940;175059;34.36;367;03.19.11.153
12948;175057;34.36;368;03.19.11.153
12920;175054;34.36;369;03.19.11.153
12944;175051;34.36;370;03.19.11.153
12936;175053;34.36;371;03.19.11.153
12916;175047;34.36;372;03.19.11.153
12916;175053;34.36;373;03.19.11.153
12944;175053;34.36;374;03.19.11.153
12936;175051;34.36;375;03.19.11.230
12924;175051;34.36;376;03.19.11.230
12924;175041;34.36;377;03.19.11.230
12912;175039;34.36;378;03.19.11.230
12948;175043;34.36;379;03.19.11.230
12892;175039;34.36;380;03.19.11.230
12924;175036;34.36;381;03.19.11.230
12916;175037;34.36;382;03.19.11.241
12928;175041;34.36;383;03.19.11.241
12936;175046;34.36;384;03.19.11.241
12944;175039;34.36;385;03.19.11.241
12928;175039;34.36;386;03.19.11.241
12944;175043;34.36;387;03.19.11.241
12920;175040;34.36;388;03.19.11.241
12908;175041;34.36;389;03.19.11.241
12944;175043;34.36;390;03.19.11.241
12936;175036;34.36;391;03.19.11.241
12904;175045;34.36;392;03.19.11.241
12940;175039;34.36;393;03.19.11.241
12944;175042;34.36;394;03.19.11.252
12916;175041;34.36;395;03.19.11.252
12960;175040;34.36;396;03.19.11.252
12952;175037;34.36;397;03.19.11.252
12932;175043;34.36;398;03.19.11.252
12924;175031;34.36;399;03.19.11.252
12912;175035;34.32;400;03.19.11.350
12924;175041;34.32;401;03.19.11.361
12940;175040;34.32;402;03.19.11.361
12908;175037;34.32;403;03.19.11.361
12944;175035;34.32;404;03.19.11.361
12936;175045;34.32;405;03.19.11.361
12920;175032;34.32;406;03.19.11.361
12924;175040;34.32;407;03.19.11.361
12912;175039;34.32;408;03.19.11.361
12908;175038;34.32;409;03.19.11.361
12896;175043;34.32;410;03.19.11.361
12940;175039;34.32;411;03.19.11.361
12900;175042;34.32;412;03.19.11.361
12908;175039;34.32;413;03.19.11.361
12928;175038;34.32;414;03.19.11.361
12920;175048;34.32;415;03.19.11.372
12932;175037;34.32;416;03.19.11.372
12928;175043;34.32;417;03.19.11.372
12952;175034;34.32;418;03.19.11.372
12932;175037;34.32;419;03.19.11.383
12928;175040;34.32;420;03.19.11.383
12912;175039;34.32;421;03.19.11.383
12940;175036;34.32;422;03.19.11.383
12916;175040;34.32;423;03.19.11.383
12960;175039;34.32;424;03.19.11.383
12924;175034;34.32;425;03.19.11.503
12912;175044;34.32;426;03.19.11.503
12924;175043;34.32;427;03.19.11.503
12936;175040;34.32;428;03.19.11.503
12920;175040;34.32;429;03.19.11.503
12932;175040;34.32;430;03.19.11.503
12924;175041;34.32;431;03.19.11.503
12908;175039;34.32;432;03.19.11.503
12944;175040;34.32;433;03.19.11.536
12944;175028;34.32;434;03.19.11.536
12912;175044;34.32;435;03.19.11.536
12936;175041;34.32;436;03.19.11.536
12928;175035;34.32;437;03.19.11.536
12936;175045;34.32;438;03.19.11.536
12916;175031;34.32;439;03.19.11.536
12932;175034;34.32;440;03.19.11.536
12920;175045;34.32;441;03.19.11.536
12932;175039;34.32;442;03.19.11.536
12892;175045;34.32;443;03.19.11.547
12924;175039;34.32;444;03.19.11.547
12920;175050;34.32;445;03.19.11.547
12928;175048;34.32;446;03.19.11.547
12948;175042;34.32;447;03.19.11.547
12944;175053;34.32;448;03.19.11.547
12940;175049;34.32;449;03.19.11.547
12924;175035;34.32;450;03.19.11.624
12904;175052;34.32;451;03.19.11.624
12956;175049;34.32;452;03.19.11.624
12932;175047;34.32;453;03.19.11.624
12944;175049;34.32;454;03.19.11.624
12932;175062;34.32;455;03.19.11.624
12940;175057;34.32;456;03.19.11.624
12940;175051;34.32;457;03.19.11.635
12936;175053;34.32;458;03.19.11.635
12936;175051;34.32;459;03.19.11.635
12932;175060;34.32;460;03.19.11.635
12924;175065;34.32;461;03.19.11.635
12924;175058;34.32;462;03.19.11.635
12948;175068;34.32;463;03.19.11.635
12952;175064;34.32;464;03.19.11.635
12948;175070;34.32;465;03.19.11.635
12932;175063;34.32;466;03.19.11.635
12892;175064;34.32;467;03.19.11.635
12908;175062;34.32;468;03.19.11.635
12932;175063;34.32;469;03.19.11.646
12936;175067;34.32;470;03.19.11.646
12924;175074;34.32;471;03.19.11.646
12948;175063;34.32;472;03.19.11.646
12940;175061;34.32;473;03.19.11.646
12948;175062;34.32;474;03.19.11.646
12916;175066;34.32;475;03.19.11.755
12892;175075;34.32;476;03.19.11.755
12944;175068;34.32;477;03.19.11.755
12916;175077;34.32;478;03.19.11.755
12944;175075;34.32;479;03.19.11.766
12968;175075;34.32;480;03.19.11.766
12928;175085;34.32;481;03.19.11.766
12928;175076;34.32;482;03.19.11.766
12932;175084;34.32;483;03.19.11.766
12948;175082;34.32;484;03.19.11.766
12904;175084;34.32;485;03.19.11.766
12924;175096;34.32;486;03.19.11.766
12920;175081;34.32;487;03.19.11.766
12940;175092;34.32;488;03.19.11.766
12928;175092;34.32;489;03.19.11.766
12936;175086;34.32;490;03.19.11.766
12928;175090;34.32;491;03.19.11.777
12916;175092;34.32;492;03.19.11.777
12920;175095;34.32;493;03.19.11.777
12936;175091;34.32;494;03.19.11.777
12948;175097;34.32;495;03.19.11.777
12932;175093;34.32;496;03.19.11.777
12908;175103;34.32;497;03.19.11.777
12948;175099;34.32;498;03.19.11.777
12936;175098;34.32;499;03.19.11.777
12944;175096;34.36;500;03.19.11.865
12940;175097;34.36;501;03.19.11.865
12908;175101;34.36;502;03.19.11.865
12908;175096;34.36;503;03.19.11.865
12908;175093;34.36;504;03.19.11.865
12924;175099;34.36;505;03.19.11.865
12936;175104;34.36;506;03.19.11.865
12912;175096;34.36;507;03.19.11.865
12924;175099;34.36;508;03.19.11.876
12928;175107;34.36;509;03.19.11.876
12908;175108;34.36;510;03.19.11.876
12920;175104;34.36;511;03.19.11.876
12936;175105;34.36;512;03.19.11.876
12936;175111;34.36;513;03.19.11.876
12932;175107;34.36;514;03.19.11.876
12960;175107;34.36;515;03.19.11.876
12948;175111;34.36;516;03.19.11.876
12912;175119;34.36;517;03.19.11.898
12912;175110;34.36;518;03.19.11.898
12936;175115;34.36;519;03.19.11.898
12928;175117;34.36;520;03.19.11.898
12928;175124;34.36;521;03.19.11.898
12936;175120;34.36;522;03.19.11.898
12944;175120;34.36;523;03.19.11.898
12936;175112;34.36;524;03.19.11.898
12952;175114;34.36;525;03.19.11.986
12924;175113;34.36;526;03.19.11.986
12932;175122;34.36;527;03.19.11.986
12916;175106;34.36;528;03.19.11.986
12908;175103;34.36;529;03.19.11.986
12928;175104;34.36;530;03.19.11.986
12932;175099;34.36;531;03.19.11.986
12960;175096;34.36;532;03.19.11.986
12928;175088;34.36;533;03.19.11.986
12916;175092;34.36;534;03.19.11.997
12900;175077;34.36;535;03.19.11.997
12928;175076;34.36;536;03.19.11.997
12928;175075;34.36;537;03.19.11.997
12936;175060;34.36;538;03.19.11.997
12932;175063;34.36;539;03.19.11.997
12940;175054;34.36;540;03.19.11.997
12916;175058;34.36;541;03.19.11.997
12924;175057;34.36;542;03.19.11.997
12940;175047;34.36;543;03.19.11.997
12948;175044;34.36;544;03.19.11.997
12932;175047;34.36;545;03.19.11.997
12948;175046;34.36;546;03.19.11.997
12916;175039;34.36;547;03.19.12.008
12916;175035;34.36;548;03.19.12.008
12916;175031;34.36;549;03.19.12.008
12944;175027;34.32;550;03.19.12.117
12920;175038;34.32;551;03.19.12.117
12948;175028;34.32;552;03.19.12.117
12912;175029;34.32;553;03.19.12.117
12928;175029;34.32;554;03.19.12.128
12936;175026;34.32;555;03.19.12.128
12952;175031;34.32;556;03.19.12.128
12920;175020;34.32;557;03.19.12.128
12928;175029;34.32;558;03.19.12.128
12928;175022;34.32;559;03.19.12.128
12924;175033;34.32;560;03.19.12.128
12924;175020;34.32;561;03.19.12.128
12928;175028;34.32;562;03.19.12.128
12956;175026;34.32;563;03.19.12.128
12928;175019;34.32;564;03.19.12.128
12924;175026;34.32;565;03.19.12.128
12924;175017;34.32;566;03.19.12.128
12956;175025;34.32;567;03.19.12.128
12940;175013;34.32;568;03.19.12.139
12932;175018;34.32;569;03.19.12.139
12948;175016;34.32;570;03.19.12.139
12952;175013;34.32;571;03.19.12.139
12920;175013;34.32;572;03.19.12.139
12924;175017;34.32;573;03.19.12.139
12952;175017;34.32;574;03.19.12.139
12928;175011;34.32;575;03.19.12.227
12924;175015;34.32;576;03.19.12.227
12924;175017;34.32;577;03.19.12.238
12928;175020;34.32;578;03.19.12.238
12936;175021;34.32;579;03.19.12.238
12932;175008;34.32;580;03.19.12.238
12960;175020;34.32;581;03.19.12.238
12924;175008;34.32;582;03.19.12.238
12908;175015;34.32;583;03.19.12.238
12944;175010;34.32;584;03.19.12.249
12944;175014;34.32;585;03.19.12.249
12932;175004;34.32;586;03.19.12.249
12932;175007;34.32;587;03.19.12.249
12924;175013;34.32;588;03.19.12.249
12924;175003;34.32;589;03.19.12.249
12944;175011;34.32;590;03.19.12.249
12928;175012;34.32;591;03.19.12.249
12960;175012;34.32;592;03.19.12.249
12928;175010;34.32;593;03.19.12.249
12916;175013;34.32;594;03.19.12.249
12928;175019;34.32;595;03.19.12.249
12916;175014;34.32;596;03.19.12.249
12936;175018;34.32;597;03.19.12.249
12940;175008;34.32;598;03.19.12.260
12948;175021;34.32;599;03.19.12.260
12924;175008;34.36;600;03.19.12.369
12920;175012;34.36;601;03.19.12.369
12924;175006;34.36;602;03.19.12.369
12944;175012;34.36;603;03.19.12.369
12936;175012;34.36;604;03.19.12.369
12932;175015;34.36;605;03.19.12.369
12928;175008;34.36;606;03.19.12.369
12960;175002;34.36;607;03.19.12.369
12916;175013;34.36;608;03.19.12.402
12924;175002;34.36;609;03.19.12.402
12916;175012;34.36;610;03.19.12.402
12936;175007;34.36;611;03.19.12.402
12932;175003;34.36;612;03.19.12.402
12932;175010;34.36;613;03.19.12.402
12948;175011;34.36;614;03.19.12.402
12916;175010;34.36;615;03.19.12.402
12924;175008;34.36;616;03.19.12.402
12936;175010;34.36;617;03.19.12.402
12948;175014;34.36;618;03.19.12.402
12928;175000;34.36;619;03.19.12.413
12924;175014;34.36;620;03.19.12.413
12920;175012;34.36;621;03.19.12.413
12936;175013;34.36;622;03.19.12.413
12916;175004;34.36;623;03.19.12.413
12936;175011;34.36;624;03.19.12.413
12924;175010;34.36;625;03.19.12.479
12928;175022;34.36;626;03.19.12.479
12928;175002;34.36;627;03.19.12.479
12932;175015;34.36;628;03.19.12.479
12924;175013;34.36;629;03.19.12.479
12924;175022;34.36;630;03.19.12.479
12960;175014;34.36;631;03.19.12.479
12940;175026;34.36;632;03.19.12.479
12960;175021;34.36;633;03.19.12.491
12948;175020;34.36;634;03.19.12.491
12916;175020;34.36;635;03.19.12.491
12936;175021;34.36;636;03.19.12.491
12920;175012;34.36;637;03.19.12.491
12944;175015;34.36;638;03.19.12.491
12920;175016;34.36;639;03.19.12.491
12928;175026;34.36;640;03.19.12.491
12952;175029;34.36;641;03.19.12.491
12924;175029;34.36;642;03.19.12.502
12928;175027;34.36;643;03.19.12.502
12944;175043;34.36;644;03.19.12.502
12948;175035;34.36;645;03.19.12.502
12928;175034;34.36;646;03.19.12.502
12948;175030;34.36;647;03.19.12.502
12960;175039;34.36;648;03.19.12.502
12960;175036;34.36;649;03.19.12.502
12892;175034;34.36;650;03.19.12.612
12944;175037;34.36;651;03.19.12.612
12920;175038;34.36;652;03.19.12.612
12904;175044;34.36;653;03.19.12.612
12932;175042;34.36;654;03.19.12.623
12916;175040;34.36;655;03.19.12.623
12912;175038;34.36;656;03.19.12.623
12932;175037;34.36;657;03.19.12.623
12908;175035;34.36;658;03.19.12.623
12928;175038;34.36;659;03.19.12.623
12908;175033;34.36;660;03.19.12.623
12916;175041;34.36;661;03.19.12.623
12928;175047;34.36;662;03.19.12.623
12940;175048;34.36;663;03.19.12.623
12908;175056;34.36;664;03.19.12.623
12916;175051;34.36;665;03.19.12.623
12932;175049;34.36;666;03.19.12.634
12924;175048;34.36;667;03.19.12.634
12920;175049;34.36;668;03.19.12.634
12944;175047;34.36;669;03.19.12.634
12908;175051;34.36;670;03.19.12.634
12900;175059;34.36;671;03.19.12.645
12924;175057;34.36;672;03.19.12.645
12932;175052;34.36;673;03.19.12.645
12948;175056;34.36;674;03.19.12.645
12900;175061;34.36;675;03.19.12.754
12908;175061;34.36;676;03.19.12.754
12928;175055;34.36;677;03.19.12.754
12904;175061;34.36;678;03.19.12.754
12932;175063;34.36;679;03.19.12.754
12944;175065;34.36;680;03.19.12.754
12932;175068;34.36;681;03.19.12.754
12932;175061;34.36;682;03.19.12.754
12928;175071;34.36;683;03.19.12.754
12940;175070;34.36;684;03.19.12.754
12940;175065;34.36;685;03.19.12.754
12908;175063;34.36;686;03.19.12.754
12960;175064;34.36;687;03.19.12.754
12936;175072;34.36;688;03.19.12.765
12944;175071;34.36;689;03.19.12.765
12916;175069;34.36;690;03.19.12.765
12944;175067;34.36;691;03.19.12.765
12940;175071;34.36;692;03.19.12.798
12932;175061;34.36;693;03.19.12.798
12944;175073;34.36;694;03.19.12.798
12920;175076;34.36;695;03.19.12.798
12948;175069;34.36;696;03.19.12.798
12940;175069;34.36;697;03.19.12.798
12904;175076;34.36;698;03.19.12.798
12948;175074;34.36;699;03.19.12.798
12936;175069;34.36;700;03.19.12.864
12928;175064;34.36;701;03.19.12.864
12920;175062;34.36;702;03.19.12.864
12932;175075;34.36;703;03.19.12.864
12924;175068;34.36;704;03.19.12.864
12924;175056;34.36;705;03.19.12.864
12928;175056;34.36;706;03.19.12.864
12944;175049;34.36;707;03.19.12.864
12932;175048;34.36;708;03.19.12.875
12912;175046;34.36;709;03.19.12.875
12944;175037;34.36;710;03.19.12.875
12936;175043;34.36;711;03.19.12.875
12940;175030;34.36;712;03.19.12.875
12936;175036;34.36;713;03.19.12.875
12916;175031;34.36;714;03.19.12.875
12940;175020;34.36;715;03.19.12.875
12920;175020;34.36;716;03.19.12.875
12928;175036;34.36;717;03.19.12.886
12888;175026;34.36;718;03.19.12.886
12908;175013;34.36;719;03.19.12.886
12920;175012;34.36;720;03.19.12.886
12944;175009;34.36;721;03.19.12.886
12936;174997;34.36;722;03.19.12.886
12928;175004;34.36;723;03.19.12.886
12964;175001;34.36;724;03.19.12.886
12908;175001;34.36;725;03.19.12.996
12916;174997;34.36;726;03.19.12.996
12924;174998;34.36;727;03.19.12.996
12944;174998;34.36;728;03.19.12.996
12924;174988;34.36;729;03.19.12.996
12940;174991;34.36;730;03.19.12.996
12916;174996;34.36;731;03.19.13.007
12944;175001;34.36;732;03.19.13.007
12904;174994;34.36;733;03.19.13.018
12908;174997;34.36;734;03.19.13.018
12908;175001;34.36;735;03.19.13.018
12936;175002;34.36;736;03.19.13.018
12924;174997;34.36;737;03.19.13.018
12928;175002;34.36;738;03.19.13.018
12924;174994;34.36;739;03.19.13.018
12952;174993;34.36;740;03.19.13.029
12900;174994;34.36;741;03.19.13.029
12932;174989;34.36;742;03.19.13.029
12932;174991;34.36;743;03.19.13.029
12944;174990;34.36;744;03.19.13.029
12916;174995;34.36;745;03.19.13.029
12920;174992;34.36;746;03.19.13.029
12920;174984;34.36;747;03.19.13.029
12928;174985;34.36;748;03.19.13.040
12948;174988;34.36;749;03.19.13.040
12928;174987;34.32;750;03.19.13.105
12932;174990;34.32;751;03.19.13.105
12916;174999;34.32;752;03.19.13.116
12924;174990;34.32;753;03.19.13.116
12928;174997;34.32;754;03.19.13.116
12892;174989;34.32;755;03.19.13.116
12928;174988;34.32;756;03.19.13.116
12908;174993;34.32;757;03.19.13.116
12960;174989;34.32;758;03.19.13.116
12928;174998;34.32;759;03.19.13.116
12912;174991;34.32;760;03.19.13.116
12920;174980;34.32;761;03.19.13.116
12916;174991;34.32;762;03.19.13.116
12944;174982;34.32;763;03.19.13.116
12936;174989;34.32;764;03.19.13.116
12900;174985;34.32;765;03.19.13.116
12936;174989;34.32;766;03.19.13.127
12900;174988;34.32;767;03.19.13.127
12936;174986;34.32;768;03.19.13.127
12940;174986;34.32;769;03.19.13.127
12956;174979;34.32;770;03.19.13.127
12908;174981;34.32;771;03.19.13.127
12924;174977;34.32;772;03.19.13.127
12916;174987;34.32;773;03.19.13.127
12940;174987;34.32;774;03.19.13.127
12928;174987;34.32;775;03.19.13.248
12932;174988;34.32;776;03.19.13.248
12916;174981;34.32;777;03.19.13.248
12916;174978;34.32;778;03.19.13.248
12920;174981;34.32;779;03.19.13.248
12916;174976;34.32;780;03.19.13.248
12932;174977;34.32;781;03.19.13.248
12924;174975;34.32;782;03.19.13.248
12908;174973;34.32;783;03.19.13.248
12936;174975;34.32;784;03.19.13.248
12904;174985;34.32;785;03.19.13.248
12932;174981;34.32;786;03.19.13.248
12932;174983;34.32;787;03.19.13.259
12960;174981;34.32;788;03.19.13.259
12948;174993;34.32;789;03.19.13.259
12916;174998;34.32;790;03.19.13.259
12928;174977;34.32;791;03.19.13.259
12936;174992;34.32;792;03.19.13.259
12936;174982;34.32;793;03.19.13.259
12928;174983;34.32;794;03.19.13.259
12944;174982;34.32;795;03.19.13.259
12952;174991;34.32;796;03.19.13.259
12924;174979;34.32;797;03.19.13.259
12912;174985;34.32;798;03.19.13.259
12964;174981;34.32;799;03.19.13.259
12932;174989;34.32;800;03.19.13.357
12924;174984;34.32;801;03.19.13.357
12920;174989;34.32;802;03.19.13.357
12932;174986;34.32;803;03.19.13.357
12944;174989;34.32;804;03.19.13.357
12932;174989;34.32;805;03.19.13.357
12904;174990;34.32;806;03.19.13.357
12912;175000;34.32;807;03.19.13.357
12932;174995;34.32;808;03.19.13.368
12944;174988;34.32;809;03.19.13.368
12924;174990;34.32;810;03.19.13.368
12920;174996;34.32;811;03.19.13.368
12916;174991;34.32;812;03.19.13.368
12944;175000;34.32;813;03.19.13.368
12952;174997;34.32;814;03.19.13.368
12936;174994;34.32;815;03.19.13.368
12904;175008;34.32;816;03.19.13.379
12912;174993;34.32;817;03.19.13.379
12916;174997;34.32;818;03.19.13.379
12932;175006;34.32;819;03.19.13.379
12932;175000;34.32;820;03.19.13.379
12944;175004;34.32;821;03.19.13.379
12928;175014;34.32;822;03.19.13.379
12944;175012;34.32;823;03.19.13.379
12944;175007;34.32;824;03.19.13.379
12896;175017;34.32;825;03.19.13.477
12920;175015;34.32;826;03.19.13.477
12940;175010;34.32;827;03.19.13.477
12944;175016;34.32;828;03.19.13.488
12948;175018;34.32;829;03.19.13.488
12924;175022;34.32;830;03.19.13.488
12924;175011;34.32;831;03.19.13.488
12936;175011;34.32;832;03.19.13.488
12924;175023;34.32;833;03.19.13.488
12940;175021;34.32;834;03.19.13.488
12916;175012;34.32;835;03.19.13.488
12920;175015;34.32;836;03.19.13.488
12960;175027;34.32;837;03.19.13.488
12924;175024;34.32;838;03.19.13.488
12940;175015;34.32;839;03.19.13.488
12928;175024;34.32;840;03.19.13.488
12932;175029;34.32;841;03.19.13.499
12936;175028;34.32;842;03.19.13.499
12936;175022;34.32;843;03.19.13.499
12932;175026;34.32;844;03.19.13.499
12944;175023;34.32;845;03.19.13.499
12920;175024;34.32;846;03.19.13.499
12944;175022;34.32;847;03.19.13.499
12912;175041;34.32;848;03.19.13.499
12944;175034;34.32;849;03.19.13.499
12924;175042;34.32;850;03.19.13.631
12920;175033;34.32;851;03.19.13.631
12908;175039;34.32;852;03.19.13.631
12892;175044;34.32;853;03.19.13.631
12916;175037;34.32;854;03.19.13.631
12924;175042;34.32;855;03.19.13.631
12932;175047;34.32;856;03.19.13.631
12928;175048;34.32;857;03.19.13.631
12920;175045;34.32;858;03.19.13.652
12916;175047;34.32;859;03.19.13.652
12928;175053;34.32;860;03.19.13.652
12916;175049;34.32;861;03.19.13.652
12908;175047;34.32;862;03.19.13.652
12928;175053;34.32;863;03.19.13.652
12932;175054;34.32;864;03.19.13.652
12928;175061;34.32;865;03.19.13.652
12900;175050;34.32;866;03.19.13.652
12924;175058;34.32;867;03.19.13.652
12936;175052;34.32;868;03.19.13.652
12924;175059;34.32;869;03.19.13.652
12920;175063;34.32;870;03.19.13.663
12920;175064;34.32;871;03.19.13.663
12900;175068;34.32;872;03.19.13.663
12936;175065;34.32;873;03.19.13.663
12924;175067;34.32;874;03.19.13.663
12924;175066;34.32;875;03.19.13.740
12916;175066;34.32;876;03.19.13.740
12960;175064;34.32;877;03.19.13.740
12936;175060;34.32;878;03.19.13.740
12928;175060;34.32;879;03.19.13.740
12932;175062;34.32;880;03.19.13.740
12948;175056;34.32;881;03.19.13.740
12944;175052;34.32;882;03.19.13.751
12928;175053;34.32;883;03.19.13.751
12928;175054;34.32;884;03.19.13.751
12948;175050;34.32;885;03.19.13.751
12936;175053;34.32;886;03.19.13.751
12948;175045;34.32;887;03.19.13.751
12908;175043;34.32;888;03.19.13.751
12952;175034;34.32;889;03.19.13.751
12920;175039;34.32;890;03.19.13.751
12944;175038;34.32;891;03.19.13.751
12928;175025;34.32;892;03.19.13.751
12948;175018;34.32;893;03.19.13.751
12920;175014;34.32;894;03.19.13.762
12936;175017;34.32;895;03.19.13.762
12928;175011;34.32;896;03.19.13.762
12944;175005;34.32;897;03.19.13.762
12932;175010;34.32;898;03.19.13.762
12944;175012;34.32;899;03.19.13.762
12936;175006;34.32;900;03.19.13.872
12924;174999;34.32;901;03.19.13.872
12932;174999;34.32;902;03.19.13.872
12892;174999;34.32;903;03.19.13.872
12912;174995;34.32;904;03.19.13.883
12932;174994;34.32;905;03.19.13.883
12928;174995;34.32;906;03.19.13.883
12916;174990;34.32;907;03.19.13.883
12908;174995;34.32;908;03.19.13.883
12908;175000;34.32;909;03.19.13.883
12928;174997;34.32;910;03.19.13.883
12932;174999;34.32;911;03.19.13.883
12924;174993;34.32;912;03.19.13.883
12936;174986;34.32;913;03.19.13.883
12924;175001;34.32;914;03.19.13.883
12920;174997;34.32;915;03.19.13.883
12944;174990;34.32;916;03.19.13.883
12932;174996;34.32;917;03.19.13.894
12944;174988;34.32;918;03.19.13.894
12932;174985;34.32;919;03.19.13.894
12900;174983;34.32;920;03.19.13.894
12924;174991;34.32;921;03.19.13.894
12976;174991;34.32;922;03.19.13.894
12924;174983;34.32;923;03.19.13.894
12936;174989;34.32;924;03.19.13.894
12916;174980;34.32;925;03.19.13.981
12928;174967;34.32;926;03.19.13.992
12936;174980;34.32;927;03.19.13.992
12944;174985;34.32;928;03.19.13.992
12932;174988;34.32;929;03.19.13.992
12924;174988;34.32;930;03.19.13.992
12924;174985;34.32;931;03.19.13.992
12940;174986;34.32;932;03.19.13.992
12924;174983;34.32;933;03.19.14.014
12936;174980;34.32;934;03.19.14.014
12924;174978;34.32;935;03.19.14.014
12944;174980;34.32;936;03.19.14.014
12936;174985;34.32;937;03.19.14.014
12948;174986;34.32;938;03.19.14.014
12936;174986;34.32;939;03.19.14.014
12956;174977;34.32;940;03.19.14.014
12932;174987;34.32;941;03.19.14.014
12956;174987;34.32;942;03.19.14.036
12956;174983;34.32;943;03.19.14.036
12964;174988;34.32;944;03.19.14.036
12924;174980;34.32;945;03.19.14.036
12900;174986;34.32;946;03.19.14.036
12924;174983;34.32;947;03.19.14.036
12932;174985;34.32;948;03.19.14.036
12956;174990;34.32;949;03.19.14.036
12948;174980;34.36;950;03.19.14.124
12944;174986;34.36;951;03.19.14.124
12924;174985;34.36;952;03.19.14.124
12928;174976;34.36;953;03.19.14.124
12932;174979;34.36;954;03.19.14.124
12908;174986;34.36;955;03.19.14.124
12960;174982;34.36;956;03.19.14.124
12944;174993;34.36;957;03.19.14.124
12920;174988;34.36;958;03.19.14.135
12936;174987;34.36;959;03.19.14.135
12924;174988;34.36;960;03.19.14.135
12900;174984;34.36;961;03.19.14.135
12944;174984;34.36;962;03.19.14.135
12928;174986;34.36;963;03.19.14.135
12928;174987;34.36;964;03.19.14.135
12932;174989;34.36;965;03.19.14.135
12928;174996;34.36;966;03.19.14.135
12944;174986;34.36;967;03.19.14.146
12944;174988;34.36;968;03.19.14.146
12948;174991;34.36;969;03.19.14.146
12920;174989;34.36;970;03.19.14.146
12924;174993;34.36;971;03.19.14.146
12928;174993;34.36;972;03.19.14.146
12916;175001;34.36;973;03.19.14.146
12936;175005;34.36;974;03.19.14.146
12916;175002;34.36;975;03.19.14.256
12936;174997;34.36;976;03.19.14.256
12896;175008;34.36;977;03.19.14.256
12928;175008;34.36;978;03.19.14.256
12944;175003;34.36;979;03.19.14.256
12912;175013;34.36;980;03.19.14.256
12960;175010;34.36;981;03.19.14.256
12920;175015;34.36;982;03.19.14.267
12924;175017;34.36;983;03.19.14.267
12936;175012;34.36;984;03.19.14.267
12920;175006;34.36;985;03.19.14.267
12924;175021;34.36;986;03.19.14.267
12924;175023;34.36;987;03.19.14.267
12952;175028;34.36;988;03.19.14.267
12920;175024;34.36;989;03.19.14.267
12908;175024;34.36;990;03.19.14.278
12928;175022;34.36;991;03.19.14.278
12920;175018;34.36;992;03.19.14.288
12936;175024;34.36;993;03.19.14.288
12928;175028;34.36;994;03.19.14.288
12928;175028;34.36;995;03.19.14.288
12948;175022;34.36;996;03.19.14.288
12944;175027;34.36;997;03.19.14.288
12928;175024;34.36;998;03.19.14.299
12960;175029;34.36;999;03.19.14.299
12944;175036;34.36;000;03.19.14.386
12916;175033;34.36;001;03.19.14.397
12924;175029;34.36;002;03.19.14.397
12928;175031;34.36;003;03.19.14.397
12900;175031;34.36;004;03.19.14.397
12936;175044;34.36;005;03.19.14.397
12928;175037;34.36;006;03.19.14.397
12900;175041;34.36;007;03.19.14.397
12892;175038;34.36;008;03.19.14.397
12944;175037;34.36;009;03.19.14.397
12936;175033;34.36;010;03.19.14.397
12940;175038;34.36;011;03.19.14.397
12916;175048;34.36;012;03.19.14.397
12944;175041;34.36;013;03.19.14.397
12920;175049;34.36;014;03.19.14.408
12928;175041;34.36;015;03.19.14.408
12924;175048;34.36;016;03.19.14.408
12936;175051;34.36;017;03.19.14.408
12928;175060;34.36;018;03.19.14.419
12924;175059;34.36;019;03.19.14.419
12928;175055;34.36;020;03.19.14.419
12944;175059;34.36;021;03.19.14.419
12920;175059;34.36;022;03.19.14.419
12960;175056;34.36;023;03.19.14.419
12944;175061;34.36;024;03.19.14.419
12944;175062;34.36;025;03.19.14.485
12908;175067;34.36;026;03.19.14.485
12928;175069;34.36;027;03.19.14.485
12908;175071;34.36;028;03.19.14.485
12936;175074;34.36;029;03.19.14.485
12948;175067;34.36;030;03.19.14.485
12940;175068;34.36;031;03.19.14.485
12920;175071;34.36;032;03.19.14.485
12904;175074;34.36;033;03.19.14.507
12936;175079;34.36;034;03.19.14.507
12928;175073;34.36;035;03.19.14.507
12920;175070;34.36;036;03.19.14.507
12944;175076;34.36;037;03.19.14.507
12924;175080;34.36;038;03.19.14.507
12924;175083;34.36;039;03.19.14.507
12932;175084;34.36;040;03.19.14.507
12908;175083;34.36;041;03.19.14.507
12920;175082;34.36;042;03.19.14.507
12916;175084;34.36;043;03.19.14.507
12908;175093;34.36;044;03.19.14.518
12888;175087;34.36;045;03.19.14.518
12944;175082;34.36;046;03.19.14.518
12944;175088;34.36;047;03.19.14.518
12940;175082;34.36;048;03.19.14.518
12944;175086;34.36;049;03.19.14.518
12892;175084;34.32;050;03.19.14.617
12920;175086;34.32;051;03.19.14.617
12924;175099;34.32;052;03.19.14.617
12892;175097;34.32;053;03.19.14.617
12924;175088;34.32;054;03.19.14.617
12960;175093;34.32;055;03.19.14.617
12916;175104;34.32;056;03.19.14.617
12944;175104;34.32;057;03.19.14.628
12916;175098;34.32;058;03.19.14.650
12892;175098;34.32;059;03.19.14.650
12936;175100;34.32;060;03.19.14.650
12916;175102;34.32;061;03.19.14.650
12976;175106;34.32;062;03.19.14.650
12944;175098;34.32;063;03.19.14.650
12936;175104;34.32;064;03.19.14.661
12908;175105;34.32;065;03.19.14.661
12920;175099;34.32;066;03.19.14.661
12924;175102;34.32;067;03.19.14.661
12924;175096;34.32;068;03.19.14.661
12940;175093;34.32;069;03.19.14.661
12928;175088;34.32;070;03.19.14.661
12940;175080;34.32;071;03.19.14.661
12928;175076;34.32;072;03.19.14.661
12956;175075;34.32;073;03.19.14.661
12960;175067;34.32;074;03.19.14.661
12952;175068;34.32;075;03.19.14.737
12932;175063;34.32;076;03.19.14.737
12964;175060;34.32;077;03.19.14.737
12932;175055;34.32;078;03.19.14.748
12960;175057;34.32;079;03.19.14.748
12944;175049;34.32;080;03.19.14.748
12972;175039;34.32;081;03.19.14.748
12936;175052;34.32;082;03.19.14.748
12944;175045;34.32;083;03.19.14.748
12916;175045;34.32;084;03.19.14.748
12936;175040;34.32;085;03.19.14.748
12920;175047;34.32;086;03.19.14.748
12936;175042;34.32;087;03.19.14.748
12928;175045;34.32;088;03.19.14.748
12924;175036;34.32;089;03.19.14.748
12928;175044;34.32;090;03.19.14.748
12932;175051;34.32;091;03.19.14.759
12952;175040;34.32;092;03.19.14.759
12948;175036;34.32;093;03.19.14.759
12940;175041;34.32;094;03.19.14.759
12928;175039;34.32;095;03.19.14.759
12924;175038;34.32;096;03.19.14.759
12916;175043;34.32;097;03.19.14.759
12940;175045;34.32;098;03.19.14.759
12952;175046;34.32;099;03.19.14.759
12932;175033;34.36;100;03.19.14.879
12948;175037;34.36;101;03.19.14.879
12944;175042;34.36;102;03.19.14.879
12924;175047;34.36;103;03.19.14.879
12944;175047;34.36;104;03.19.14.879
12944;175041;34.36;105;03.19.14.879
12924;175034;34.36;106;03.19.14.879
12920;175037;34.36;107;03.19.14.879
12944;175041;34.36;108;03.19.14.879
12920;175037;34.36;109;03.19.14.879
12908;175038;34.36;110;03.19.14.879
12932;175036;34.36;111;03.19.14.879
12940;175039;34.36;112;03.19.14.890
12932;175040;34.36;113;03.19.14.890
12932;175037;34.36;114;03.19.14.890
12936;175038;34.36;115;03.19.14.890
12928;175039;34.36;116;03.19.14.890
12936;175042;34.36;117;03.19.14.890
12920;175040;34.36;118;03.19.14.890
12924;175041;34.36;119;03.19.14.890
12932;175048;34.36;120;03.19.14.890
12928;175036;34.36;121;03.19.14.890
12916;175043;34.36;122;03.19.14.890
12916;175049;34.36;123;03.19.14.890
12944;175047;34.36;124;03.19.14.890
12920;175049;34.36;125;03.19.15.011
12932;175039;34.36;126;03.19.15.011
12948;175041;34.36;127;03.19.15.011
12936;175043;34.36;128;03.19.15.011
12928;175042;34.36;129;03.19.15.011
12912;175045;34.36;130;03.19.15.011
12944;175036;34.36;131;03.19.15.011
12920;175042;34.36;132;03.19.15.011
12928;175038;34.36;133;03.19.15.022
12940;175038;34.36;134;03.19.15.022
12920;175045;34.36;135;03.19.15.022
12928;175040;34.36;136;03.19.15.022
12940;175045;34.36;137;03.19.15.022
12924;175036;34.36;138;03.19.15.022
12892;175039;34.36;139;03.19.15.022
12944;175042;34.36;140;03.19.15.022
12928;175040;34.36;141;03.19.15.022
12932;175040;34.36;142;03.19.15.022
12908;175040;34.36;143;03.19.15.022
12940;175037;34.36;144;03.19.15.022
12924;175047;34.36;145;03.19.15.022
12920;175047;34.36;146;03.19.15.033
12908;175036;34.36;147;03.19.15.033
12944;175039;34.36;148;03.19.15.033
12944;175045;34.36;149;03.19.15.033
12960;175046;34.36;150;03.19.15.109
12928;175045;34.36;151;03.19.15.109
12960;175046;34.36;152;03.19.15.109
12924;175043;34.36;153;03.19.15.109
12924;175041;34.36;154;03.19.15.120
12936;175043;34.36;155;03.19.15.120
12944;175045;34.36;156;03.19.15.120
12944;175047;34.36;157;03.19.15.120
12936;175049;34.36;158;03.19.15.120
12924;175040;34.36;159;03.19.15.120
12936;175042;34.36;160;03.19.15.120
12936;175047;34.36;161;03.19.15.120
12924;175056;34.36;162;03.19.15.120
12920;175049;34.36;163;03.19.15.120
12928;175061;34.36;164;03.19.15.132
12920;175055;34.36;165;03.19.15.132
12940;175051;34.36;166;03.19.15.132
12912;175057;34.36;167;03.19.15.143
12928;175055;34.36;168;03.19.15.143
12944;175060;34.36;169;03.19.15.143
12944;175062;34.36;170;03.19.15.143
12928;175063;34.36;171;03.19.15.143
12952;175062;34.36;172;03.19.15.143
12936;175071;34.36;173;03.19.15.154
12952;175067;34.36;174;03.19.15.154
12944;175073;34.36;175;03.19.15.230
12920;175067;34.36;176;03.19.15.241
12920;175067;34.36;177;03.19.15.241
12908;175071;34.36;178;03.19.15.241
12904;175065;34.36;179;03.19.15.241
12912;175070;34.36;180;03.19.15.241
12928;175075;34.36;181;03.19.15.241
12928;175078;34.36;182;03.19.15.241
12952;175085;34.36;183;03.19.15.241
12928;175081;34.36;184;03.19.15.241
12904;175071;34.36;185;03.19.15.241
12928;175083;34.36;186;03.19.15.241
12928;175085;34.36;187;03.19.15.241
12956;175089;34.36;188;03.19.15.241
12924;175081;34.36;189;03.19.15.241
12916;175081;34.36;190;03.19.15.252
12956;175077;34.36;191;03.19.15.252
12916;175086;34.36;192;03.19.15.252
12908;175085;34.36;193;03.19.15.252
12936;175088;34.36;194;03.19.15.263
12924;175090;34.36;195;03.19.15.263
12916;175085;34.36;196;03.19.15.263
12944;175080;34.36;197;03.19.15.263
12908;175088;34.36;198;03.19.15.263
12944;175096;34.36;199;03.19.15.263
12952;175089;34.36;200;03.19.15.362
12892;175095;34.36;201;03.19.15.362
12920;175094;34.36;202;03.19.15.362
12920;175099;34.36;203;03.19.15.362
12928;175094;34.36;204;03.19.15.362
12920;175096;34.36;205;03.19.15.362
12932;175093;34.36;206;03.19.15.362
12920;175094;34.36;207;03.19.15.362
12920;175092;34.36;208;03.19.15.362
12948;175103;34.36;209;03.19.15.362
12924;175098;34.36;210;03.19.15.373
12944;175100;34.36;211;03.19.15.373
12948;175102;34.36;212;03.19.15.373
12924;175101;34.36;213;03.19.15.373
12940;175099;34.36;214;03.19.15.373
12924;175102;34.36;215;03.19.15.373
12928;175104;34.36;216;03.19.15.373
12936;175101;34.36;217;03.19.15.373
12940;175101;34.36;218;03.19.15.373
12916;175109;34.36;219;03.19.15.373
12944;175108;34.36;220;03.19.15.373
12928;175107;34.36;221;03.19.15.373
12920;175107;34.36;222;03.19.15.373
12960;175111;34.36;223;03.19.15.384
12944;175107;34.36;224;03.19.15.384
12932;175113;34.36;225;03.19.15.504
12936;175114;34.36;226;03.19.15.504
12920;175107;34.36;227;03.19.15.504
12928;175113;34.36;228;03.19.15.504
12928;175115;34.36;229;03.19.15.504
12936;175117;34.36;230;03.19.15.515
12940;175118;34.36;231;03.19.15.515
12924;175115;34.36;232;03.19.15.515
12932;175125;34.36;233;03.19.15.515
12916;175116;34.36;234;03.19.15.515
12928;175119;34.36;235;03.19.15.515
12916;175115;34.36;236;03.19.15.515
12924;175124;34.36;237;03.19.15.515
12940;175121;34.36;238;03.19.15.515
12936;175129;34.36;239;03.19.15.515
12932;175130;34.36;240;03.19.15.515
12912;175128;34.36;241;03.19.15.515
12932;175120;34.36;242;03.19.15.515
12936;175127;34.36;243;03.19.15.526
12932;175130;34.36;244;03.19.15.526
12944;175136;34.36;245;03.19.15.526
12964;175125;34.36;246;03.19.15.526
12936;175119;34.36;247;03.19.15.526
12928;175123;34.36;248;03.19.15.526
12936;175120;34.36;249;03.19.15.526
12928;175120;34.36;250;03.19.15.602
12908;175115;34.36;251;03.19.15.602
12916;175104;34.36;252;03.19.15.613
12924;175101;34.36;253;03.19.15.613
12920;175096;34.36;254;03.19.15.613
12924;175091;34.36;255;03.19.15.613
12916;175103;34.36;256;03.19.15.613
12908;175082;34.36;257;03.19.15.613
12916;175087;34.36;258;03.19.15.613
12940;175081;34.36;259;03.19.15.613
12932;175078;34.36;260;03.19.15.613
12944;175072;34.36;261;03.19.15.624
12940;175072;34.36;262;03.19.15.624
12908;175069;34.36;263;03.19.15.624
12952;175069;34.36;264;03.19.15.624
12916;175067;34.36;265;03.19.15.624
12940;175065;34.36;266;03.19.15.624
12924;175065;34.36;267;03.19.15.635
12944;175067;34.36;268;03.19.15.635
12924;175062;34.36;269;03.19.15.646
12908;175066;34.36;270;03.19.15.646
12900;175063;34.36;271;03.19.15.646
12912;175070;34.36;272;03.19.15.646
12944;175062;34.36;273;03.19.15.646
12936;175057;34.36;274;03.19.15.646
12944;175070;34.36;275;03.19.15.734
12932;175069;34.36;276;03.19.15.734
12908;175054;34.36;277;03.19.15.734
12924;175067;34.36;278;03.19.15.734
12916;175071;34.36;279;03.19.15.734
12924;175074;34.36;280;03.19.15.734
12916;175068;34.36;281;03.19.15.734
12960;175072;34.36;282;03.19.15.734
12936;175069;34.36;283;03.19.15.734
12936;175071;34.36;284;03.19.15.734
12928;175078;34.36;285;03.19.15.734
12928;175068;34.36;286;03.19.15.745
12908;175071;34.36;287;03.19.15.745
12924;175062;34.36;288;03.19.15.745
12944;175068;34.36;289;03.19.15.745
12892;175068;34.36;290;03.19.15.745
12944;175078;34.36;291;03.19.15.745
12940;175072;34.36;292;03.19.15.745
12936;175068;34.36;293;03.19.15.745
12928;175069;34.36;294;03.19.15.745
12936;175066;34.36;295;03.19.15.745
12924;175072;34.36;296;03.19.15.745
12932;175074;34.36;297;03.19.15.745
12976;175070;34.36;298;03.19.15.745
12916;175076;34.36;299;03.19.15.756
12924;175069;34.36;300;03.19.15.866
12944;175073;34.36;301;03.19.15.866
12924;175073;34.36;302;03.19.15.866
12940;175076;34.36;303;03.19.15.866
12924;175072;34.36;304;03.19.15.866
12932;175067;34.36;305;03.19.15.866
12912;175071;34.36;306;03.19.15.866
12940;175070;34.36;307;03.19.15.866
12932;175070;34.36;308;03.19.15.877
12928;175071;34.36;309;03.19.15.877
12928;175062;34.36;310;03.19.15.877
12948;175069;34.36;311;03.19.15.877
12904;175060;34.36;312;03.19.15.877
12972;175071;34.36;313;03.19.15.877
12928;175071;34.36;314;03.19.15.877
12944;175064;34.36;315;03.19.15.877
12960;175067;34.36;316;03.19.15.877
12936;175075;34.36;317;03.19.15.921
12932;175067;34.36;318;03.19.15.921
12936;175064;34.36;319;03.19.15.921
12928;175071;34.36;320;03.19.15.921
12940;175069;34.36;321;03.19.15.921
12928;175052;34.36;322;03.19.15.921
12932;175055;34.36;323;03.19.15.921
12936;175060;34.36;324;03.19.15.932
12944;175062;34.36;325;03.19.15.997
12948;175067;34.36;326;03.19.15.997
12936;175071;34.36;327;03.19.16.008
12944;175064;34.36;328;03.19.16.008
12960;175060;34.36;329;03.19.16.008
12916;175067;34.36;330;03.19.16.008
12952;175068;34.36;331;03.19.16.008
12936;175068;34.36;332;03.19.16.008
12952;175069;34.36;333;03.19.16.008
12924;175068;34.36;334;03.19.16.008
12916;175067;34.36;335;03.19.16.008
12916;175070;34.36;336;03.19.16.019
12932;175066;34.36;337;03.19.16.019
12920;175073;34.36;338;03.19.16.019
12928;175065;34.36;339;03.19.16.019
12916;175067;34.36;340;03.19.16.019
12944;175068;34.36;341;03.19.16.019
12904;175073;34.36;342;03.19.16.041
12952;175065;34.36;343;03.19.16.041
12944;175068;34.36;344;03.19.16.041
12928;175071;34.36;345;03.19.16.052
12928;175071;34.36;346;03.19.16.052
12904;175071;34.36;347;03.19.16.052
12932;175082;34.36;348;03.19.16.052
12952;175086;34.36;349;03.19.16.052
12932;175082;34.36;350;03.19.16.107
12924;175075;34.36;351;03.19.16.118
12928;175078;34.36;352;03.19.16.118
12904;175079;34.36;353;03.19.16.118
12892;175086;34.36;354;03.19.16.118
12920;175082;34.36;355;03.19.16.118
12944;175087;34.36;356;03.19.16.118
12928;175083;34.36;357;03.19.16.118
12940;175084;34.36;358;03.19.16.129
12932;175076;34.36;359;03.19.16.140
12956;175078;34.36;360;03.19.16.140
12936;175085;34.36;361;03.19.16.140
12936;175085;34.36;362;03.19.16.140
12932;175092;34.36;363;03.19.16.140
12920;175089;34.36;364;03.19.16.140
12924;175087;34.36;365;03.19.16.140
12892;175092;34.36;366;03.19.16.140
12940;175088;34.36;367;03.19.16.140
12928;175093;34.36;368;03.19.16.140
12916;175089;34.36;369;03.19.16.140
12912;175096;34.36;370;03.19.16.140
12924;175087;34.36;371;03.19.16.140
12892;175091;34.36;372;03.19.16.151
12960;175092;34.36;373;03.19.16.151
12932;175089;34.36;374;03.19.16.151
12912;175097;34.36;375;03.19.16.239
12904;175103;34.36;376;03.19.16.239
12940;175100;34.36;377;03.19.16.239
12976;175099;34.36;378;03.19.16.239
12940;175097;34.36;379;03.19.16.239
12932;175101;34.36;380;03.19.16.239
12952;175104;34.36;381;03.19.16.239
12908;175101;34.36;382;03.19.16.239
12932;175108;34.36;383;03.19.16.250
12920;175101;34.36;384;03.19.16.250
12916;175106;34.36;385;03.19.16.250
12944;175108;34.36;386;03.19.16.250
12916;175111;34.36;387;03.19.16.250
12924;175107;34.36;388;03.19.16.250
12944;175112;34.36;389;03.19.16.250
12936;175120;34.36;390;03.19.16.250
12920;175125;34.36;391;03.19.16.250
12944;175126;34.36;392;03.19.16.272
12944;175123;34.36;393;03.19.16.272
12960;175125;34.36;394;03.19.16.272
12924;175126;34.36;395;03.19.16.272
12932;175115;34.36;396;03.19.16.272
12932;175114;34.36;397;03.19.16.272
12920;175117;34.36;398;03.19.16.272
12940;175122;34.36;399;03.19.16.272
12948;175128;34.36;400;03.19.16.381
12904;175128;34.36;401;03.19.16.381
12924;175126;34.36;402;03.19.16.381
12944;175129;34.36;403;03.19.16.381
12932;175126;34.36;404;03.19.16.381
12944;175120;34.36;405;03.19.16.392
12928;175123;34.36;406;03.19.16.392
12928;175116;34.36;407;03.19.16.392
12908;175127;34.36;408;03.19.16.403
12892;175127;34.36;409;03.19.16.403
12944;175139;34.36;410;03.19.16.403
12924;175129;34.36;411;03.19.16.403
12944;175126;34.36;412;03.19.16.403
12944;175129;34.36;413;03.19.16.414
12936;175133;34.36;414;03.19.16.414
12908;175132;34.36;415;03.19.16.414
12924;175131;34.36;416;03.19.16.414
12920;175120;34.36;417;03.19.16.414
12924;175113;34.36;418;03.19.16.414
12920;175120;34.36;419;03.19.16.414
12948;175115;34.36;420;03.19.16.414
12904;175115;34.36;421;03.19.16.414
12916;175103;34.36;422;03.19.16.414
12940;175102;34.36;423;03.19.16.414
12928;175097;34.36;424;03.19.16.414
12944;175103;34.36;425;03.19.16.501
12928;175088;34.36;426;03.19.16.501
12928;175084;34.36;427;03.19.16.501
12932;175076;34.36;428;03.19.16.501
12948;175077;34.36;429;03.19.16.501
12928;175072;34.36;430;03.19.16.501
12936;175072;34.36;431;03.19.16.501
12952;175072;34.36;432;03.19.16.501
12944;175060;34.36;433;03.19.16.512
12908;175052;34.36;434;03.19.16.512
12932;175054;34.36;435;03.19.16.512
12940;175049;34.36;436;03.19.16.512
12932;175052;34.36;437;03.19.16.512
12916;175044;34.36;438;03.19.16.512
12944;175040;34.36;439;03.19.16.512
12944;175044;34.36;440;03.19.16.512
12944;175049;34.36;441;03.19.16.512
12920;175048;34.36;442;03.19.16.545
12936;175041;34.36;443;03.19.16.545
12936;175050;34.36;444;03.19.16.545
12920;175051;34.36;445;03.19.16.545
12908;175045;34.36;446;03.19.16.545
12924;175044;34.36;447;03.19.16.545
12908;175034;34.36;448;03.19.16.545
12940;175047;34.36;449;03.19.16.545
12916;175036;34.36;450;03.19.16.631
12948;175031;34.36;451;03.19.16.631
12912;175034;34.36;452;03.19.16.631
12916;175032;34.36;453;03.19.16.631
12928;175033;34.36;454;03.19.16.631
12944;175033;34.36;455;03.19.16.631
12932;175032;34.36;456;03.19.16.631
12916;175033;34.36;457;03.19.16.631
12936;175028;34.36;458;03.19.16.631
12892;175031;34.36;459;03.19.16.642
12932;175027;34.36;460;03.19.16.642
12920;175021;34.36;461;03.19.16.642
12928;175023;34.36;462;03.19.16.642
12948;175024;34.36;463;03.19.16.642
12924;175026;34.36;464;03.19.16.642
12940;175025;34.36;465;03.19.16.642
12892;175029;34.36;466;03.19.16.642
12892;175034;34.36;467;03.19.16.642
12936;175033;34.36;468;03.19.16.642
12916;175033;34.36;469;03.19.16.642
12908;175033;34.36;470;03.19.16.642
12948;175034;34.36;471;03.19.16.642
12928;175033;34.36;472;03.19.16.653
12936;175030;34.36;473;03.19.16.653
12952;175031;34.36;474;03.19.16.653
12932;175027;34.36;475;03.19.16.763
12936;175029;34.36;476;03.19.16.763
12928;175036;34.36;477;03.19.16.763
12948;175029;34.36;478;03.19.16.763
12920;175025;34.36;479;03.19.16.774
12952;175034;34.36;480;03.19.16.774
12908;175032;34.36;481;03.19.16.774
12936;175032;34.36;482;03.19.16.774
12940;175031;34.36;483;03.19.16.774
12940;175029;34.36;484;03.19.16.774
12924;175025;34.36;485;03.19.16.774
12944;175024;34.36;486;03.19.16.774
12948;175033;34.36;487;03.19.16.774
12956;175032;34.36;488;03.19.16.774
12924;175026;34.36;489;03.19.16.774
12896;175023;34.36;490;03.19.16.774
12960;175021;34.36;491;03.19.16.774
12932;175018;34.36;492;03.19.16.785
12892;175020;34.36;493;03.19.16.785
12948;175019;34.36;494;03.19.16.785
12952;175021;34.36;495;03.19.16.785
12928;175024;34.36;496;03.19.16.785
12904;175025;34.36;497;03.19.16.785
12924;175032;34.36;498;03.19.16.785
12960;175026;34.36;499;03.19.16.785
12908;175025;34.32;500;03.19.16.851
12952;175032;34.32;501;03.19.16.862
12936;175020;34.32;502;03.19.16.862
12944;175014;34.32;503;03.19.16.862
12928;175019;34.32;504;03.19.16.862
12940;175022;34.32;505;03.19.16.862
12928;175015;34.32;506;03.19.16.862
12936;175015;34.32;507;03.19.16.862
12916;175025;34.32;508;03.19.16.862
12932;175024;34.32;509;03.19.16.862
12920;175023;34.32;510;03.19.16.862
12928;175025;34.32;511;03.19.16.862
12916;175027;34.32;512;03.19.16.862
12916;175032;34.32;513;03.19.16.862
12936;175035;34.32;514;03.19.16.872
12928;175027;34.32;515;03.19.16.872
12920;175026;34.32;516;03.19.16.872
12920;175025;34.32;517;03.19.16.872
12944;175025;34.32;518;03.19.16.872
12908;175034;34.32;519;03.19.16.872
12928;175025;34.32;520;03.19.16.872
12944;175033;34.32;521;03.19.16.872
12944;175029;34.32;522;03.19.16.872
12944;175037;34.32;523;03.19.16.872
12940;175033;34.32;524;03.19.16.872
12920;175029;34.32;525;03.19.16.993
12928;175033;34.32;526;03.19.16.993
12900;175044;34.32;527;03.19.16.993
12912;175036;34.32;528;03.19.16.993
12928;175033;34.32;529;03.19.16.993
12932;175040;34.32;530;03.19.16.993
12944;175031;34.32;531;03.19.16.993
