gsr; bvp; skt; skt2; Cont; time
12912;170691;34.76;225;03.39.32.053
12888;170694;34.76;226;03.39.32.053
12892;170691;34.76;227;03.39.32.053
12900;170695;34.76;228;03.39.32.053
12892;170703;34.76;229;03.39.32.053
12900;170700;34.76;230;03.39.32.053
12892;170698;34.76;231;03.39.32.053
12916;170713;34.76;232;03.39.32.053
12908;170694;34.76;233;03.39.32.075
12912;170706;34.76;234;03.39.32.075
12900;170717;34.76;235;03.39.32.075
12904;170706;34.76;236;03.39.32.075
12900;170708;34.76;237;03.39.32.075
12912;170708;34.76;238;03.39.32.075
12904;170709;34.76;239;03.39.32.075
12892;170702;34.76;240;03.39.32.075
12900;170715;34.76;241;03.39.32.075
12912;170713;34.76;242;03.39.32.075
12892;170712;34.76;243;03.39.32.075
12892;170711;34.76;244;03.39.32.075
12904;170716;34.76;245;03.39.32.075
12884;170710;34.76;246;03.39.32.075
12860;170706;34.76;247;03.39.32.087
12892;170725;34.76;248;03.39.32.087
12908;170721;34.76;249;03.39.32.087
12912;170719;34.76;250;03.39.32.186
12932;170712;34.76;251;03.39.32.186
12932;170713;34.76;252;03.39.32.186
12912;170717;34.76;253;03.39.32.186
12920;170711;34.76;254;03.39.32.186
12912;170715;34.76;255;03.39.32.186
12916;170706;34.76;256;03.39.32.186
12908;170704;34.76;257;03.39.32.186
12892;170696;34.76;258;03.39.32.197
12928;170683;34.76;259;03.39.32.197
12944;170676;34.76;260;03.39.32.197
12908;170678;34.76;261;03.39.32.197
12928;170669;34.76;262;03.39.32.197
12936;170668;34.76;263;03.39.32.197
12928;170664;34.76;264;03.39.32.197
12928;170652;34.76;265;03.39.32.197
12892;170644;34.76;266;03.39.32.197
12916;170637;34.76;267;03.39.32.208
12924;170644;34.76;268;03.39.32.208
12896;170636;34.76;269;03.39.32.208
12892;170626;34.76;270;03.39.32.208
12892;170633;34.76;271;03.39.32.208
12912;170627;34.76;272;03.39.32.208
12928;170619;34.76;273;03.39.32.208
12944;170617;34.76;274;03.39.32.208
12908;170621;34.76;275;03.39.32.317
12908;170606;34.76;276;03.39.32.317
12920;170605;34.76;277;03.39.32.317
12944;170611;34.76;278;03.39.32.317
12916;170606;34.76;279;03.39.32.317
12940;170606;34.76;280;03.39.32.328
12892;170594;34.76;281;03.39.32.328
12908;170592;34.76;282;03.39.32.328
12912;170598;34.76;283;03.39.32.328
12904;170602;34.76;284;03.39.32.328
12916;170598;34.76;285;03.39.32.328
12920;170594;34.76;286;03.39.32.328
12920;170598;34.76;287;03.39.32.328
12892;170604;34.76;288;03.39.32.328
12908;170595;34.76;289;03.39.32.328
12928;170600;34.76;290;03.39.32.339
12928;170588;34.76;291;03.39.32.339
12940;170593;34.76;292;03.39.32.339
12928;170598;34.76;293;03.39.32.339
12928;170595;34.76;294;03.39.32.339
12920;170597;34.76;295;03.39.32.339
12924;170602;34.76;296;03.39.32.339
12928;170602;34.76;297;03.39.32.339
12928;170597;34.76;298;03.39.32.350
12932;170596;34.76;299;03.39.32.350
12908;170595;34.76;300;03.39.32.427
12896;170595;34.76;301;03.39.32.427
12928;170597;34.76;302;03.39.32.438
12908;170600;34.76;303;03.39.32.438
12924;170600;34.76;304;03.39.32.438
12908;170604;34.76;305;03.39.32.438
12936;170600;34.76;306;03.39.32.438
12900;170599;34.76;307;03.39.32.438
12936;170604;34.76;308;03.39.32.438
12932;170604;34.76;309;03.39.32.438
12932;170601;34.76;310;03.39.32.438
12916;170603;34.76;311;03.39.32.438
12928;170602;34.76;312;03.39.32.438
12928;170608;34.76;313;03.39.32.438
12928;170602;34.76;314;03.39.32.438
12932;170606;34.76;315;03.39.32.438
12892;170600;34.76;316;03.39.32.449
12916;170601;34.76;317;03.39.32.449
12908;170601;34.76;318;03.39.32.449
12908;170605;34.76;319;03.39.32.449
12912;170600;34.76;320;03.39.32.449
12920;170594;34.76;321;03.39.32.449
12936;170595;34.76;322;03.39.32.449
12928;170597;34.76;323;03.39.32.449
12916;170603;34.76;324;03.39.32.449
12912;170599;34.76;325;03.39.32.569
12904;170601;34.76;326;03.39.32.569
12924;170594;34.76;327;03.39.32.569
12912;170600;34.76;328;03.39.32.569
12896;170596;34.76;329;03.39.32.569
12928;170586;34.76;330;03.39.32.569
12892;170594;34.76;331;03.39.32.569
12896;170598;34.76;332;03.39.32.569
12936;170596;34.76;333;03.39.32.569
12908;170598;34.76;334;03.39.32.569
12904;170596;34.76;335;03.39.32.569
12920;170597;34.76;336;03.39.32.580
12904;170598;34.76;337;03.39.32.580
12908;170609;34.76;338;03.39.32.580
12908;170594;34.76;339;03.39.32.580
12896;170601;34.76;340;03.39.32.580
12928;170597;34.76;341;03.39.32.580
12900;170591;34.76;342;03.39.32.580
12948;170605;34.76;343;03.39.32.580
12940;170599;34.76;344;03.39.32.580
12912;170603;34.76;345;03.39.32.580
12928;170597;34.76;346;03.39.32.580
12900;170599;34.76;347;03.39.32.580
12928;170601;34.76;348;03.39.32.580
12924;170603;34.76;349;03.39.32.591
12888;170607;34.76;350;03.39.32.679
12936;170607;34.76;351;03.39.32.679
12892;170600;34.76;352;03.39.32.679
12900;170601;34.76;353;03.39.32.679
12924;170606;34.76;354;03.39.32.679
12928;170611;34.76;355;03.39.32.679
12904;170610;34.76;356;03.39.32.679
12928;170621;34.76;357;03.39.32.690
12944;170614;34.76;358;03.39.32.690
12884;170609;34.76;359;03.39.32.690
12904;170620;34.76;360;03.39.32.690
12904;170625;34.76;361;03.39.32.690
12884;170619;34.76;362;03.39.32.690
12928;170623;34.76;363;03.39.32.690
12916;170616;34.76;364;03.39.32.690
12912;170624;34.76;365;03.39.32.701
12896;170631;34.76;366;03.39.32.701
12892;170630;34.76;367;03.39.32.701
12904;170628;34.76;368;03.39.32.701
12892;170629;34.76;369;03.39.32.701
12928;170632;34.76;370;03.39.32.701
12904;170628;34.76;371;03.39.32.701
12920;170636;34.76;372;03.39.32.701
12912;170629;34.76;373;03.39.32.701
12928;170627;34.76;374;03.39.32.701
12912;170629;34.76;375;03.39.32.799
12888;170628;34.76;376;03.39.32.799
12924;170642;34.76;377;03.39.32.799
12912;170632;34.76;378;03.39.32.799
12924;170632;34.76;379;03.39.32.810
12900;170638;34.76;380;03.39.32.810
12912;170631;34.76;381;03.39.32.810
12908;170643;34.76;382;03.39.32.810
12900;170649;34.76;383;03.39.32.810
12876;170653;34.76;384;03.39.32.810
12908;170645;34.76;385;03.39.32.810
12892;170646;34.76;386;03.39.32.810
12908;170643;34.76;387;03.39.32.821
12892;170646;34.76;388;03.39.32.821
12912;170645;34.76;389;03.39.32.821
12944;170649;34.76;390;03.39.32.821
12892;170653;34.76;391;03.39.32.821
12920;170651;34.76;392;03.39.32.843
12900;170648;34.76;393;03.39.32.843
12924;170659;34.76;394;03.39.32.843
12892;170655;34.76;395;03.39.32.843
12940;170662;34.76;396;03.39.32.847
12904;170656;34.76;397;03.39.32.847
12928;170662;34.76;398;03.39.32.847
12948;170664;34.76;399;03.39.32.847
12884;170666;34.76;400;03.39.32.936
12900;170670;34.76;401;03.39.32.936
12928;170670;34.76;402;03.39.32.936
12896;170667;34.76;403;03.39.32.936
12920;170665;34.76;404;03.39.32.936
12928;170670;34.76;405;03.39.32.936
12892;170668;34.76;406;03.39.32.947
12916;170670;34.76;407;03.39.32.947
12928;170679;34.76;408;03.39.32.947
12920;170676;34.76;409;03.39.32.947
12896;170670;34.76;410;03.39.32.947
12904;170665;34.76;411;03.39.32.947
12912;170666;34.76;412;03.39.32.947
12908;170668;34.76;413;03.39.32.947
12916;170649;34.76;414;03.39.32.958
12928;170645;34.76;415;03.39.32.958
12908;170647;34.76;416;03.39.32.958
12928;170644;34.76;417;03.39.32.968
12908;170642;34.76;418;03.39.32.968
12908;170633;34.76;419;03.39.32.968
12912;170622;34.76;420;03.39.32.968
12912;170622;34.76;421;03.39.32.968
12896;170616;34.76;422;03.39.32.979
12908;170612;34.76;423;03.39.32.979
12928;170606;34.76;424;03.39.32.979
12892;170602;34.76;425;03.39.33.056
12904;170603;34.76;426;03.39.33.067
12908;170590;34.76;427;03.39.33.067
12932;170588;34.76;428;03.39.33.067
12900;170589;34.76;429;03.39.33.067
12896;170581;34.76;430;03.39.33.067
12928;170577;34.76;431;03.39.33.067
12912;170583;34.76;432;03.39.33.067
12896;170576;34.76;433;03.39.33.067
12900;170575;34.76;434;03.39.33.067
12912;170567;34.76;435;03.39.33.067
12928;170573;34.76;436;03.39.33.067
12888;170570;34.76;437;03.39.33.067
12920;170563;34.76;438;03.39.33.067
12892;170573;34.76;439;03.39.33.078
12920;170574;34.76;440;03.39.33.078
12912;170560;34.76;441;03.39.33.078
12900;170568;34.76;442;03.39.33.078
12892;170561;34.76;443;03.39.33.078
12904;170560;34.76;444;03.39.33.078
12944;170564;34.76;445;03.39.33.078
12928;170570;34.76;446;03.39.33.078
12904;170559;34.76;447;03.39.33.078
12896;170562;34.76;448;03.39.33.078
12920;170562;34.76;449;03.39.33.078
12892;170561;34.76;450;03.39.33.176
12892;170562;34.76;451;03.39.33.176
12920;170554;34.76;452;03.39.33.176
12908;170556;34.76;453;03.39.33.176
12916;170560;34.76;454;03.39.33.176
12908;170557;34.76;455;03.39.33.176
12896;170565;34.76;456;03.39.33.176
12916;170567;34.76;457;03.39.33.176
12888;170553;34.76;458;03.39.33.187
12908;170558;34.76;459;03.39.33.187
12904;170561;34.76;460;03.39.33.187
12892;170559;34.76;461;03.39.33.187
12916;170567;34.76;462;03.39.33.187
12928;170572;34.76;463;03.39.33.187
12928;170565;34.76;464;03.39.33.187
12920;170564;34.76;465;03.39.33.187
12920;170561;34.76;466;03.39.33.187
12892;170570;34.76;467;03.39.33.209
12920;170570;34.76;468;03.39.33.209
12916;170568;34.76;469;03.39.33.209
12920;170565;34.76;470;03.39.33.209
12892;170570;34.76;471;03.39.33.209
12896;170569;34.76;472;03.39.33.209
12936;170575;34.76;473;03.39.33.209
12924;170567;34.76;474;03.39.33.209
12888;170572;34.80;475;03.39.33.297
12904;170578;34.80;476;03.39.33.297
12912;170567;34.80;477;03.39.33.297
12908;170573;34.80;478;03.39.33.297
12920;170570;34.80;479;03.39.33.297
12900;170569;34.80;480;03.39.33.297
12904;170562;34.80;481;03.39.33.297
12900;170559;34.80;482;03.39.33.308
12924;170573;34.80;483;03.39.33.308
12904;170575;34.80;484;03.39.33.308
12892;170567;34.80;485;03.39.33.308
12920;170561;34.80;486;03.39.33.308
12920;170575;34.80;487;03.39.33.308
12892;170568;34.80;488;03.39.33.308
12924;170570;34.80;489;03.39.33.308
12908;170570;34.80;490;03.39.33.308
12920;170578;34.80;491;03.39.33.308
12920;170574;34.80;492;03.39.33.308
12900;170573;34.80;493;03.39.33.308
12908;170565;34.80;494;03.39.33.308
12896;170578;34.80;495;03.39.33.319
12904;170575;34.80;496;03.39.33.319
12888;170563;34.80;497;03.39.33.319
12944;170568;34.80;498;03.39.33.319
12924;170576;34.80;499;03.39.33.319
12900;170579;34.80;500;03.39.33.418
12924;170578;34.80;501;03.39.33.418
12900;170577;34.80;502;03.39.33.418
12928;170586;34.80;503;03.39.33.429
12908;170586;34.80;504;03.39.33.429
12920;170584;34.80;505;03.39.33.429
12904;170595;34.80;506;03.39.33.429
12892;170590;34.80;507;03.39.33.429
12896;170587;34.80;508;03.39.33.429
12924;170584;34.80;509;03.39.33.429
12912;170593;34.80;510;03.39.33.429
12900;170609;34.80;511;03.39.33.429
12928;170600;34.80;512;03.39.33.429
12896;170596;34.80;513;03.39.33.429
12888;170607;34.80;514;03.39.33.429
12916;170610;34.80;515;03.39.33.429
12904;170591;34.80;516;03.39.33.440
12892;170605;34.80;517;03.39.33.440
12936;170607;34.80;518;03.39.33.440
12904;170612;34.80;519;03.39.33.440
12876;170612;34.80;520;03.39.33.440
12928;170622;34.80;521;03.39.33.440
12900;170617;34.80;522;03.39.33.440
12912;170627;34.80;523;03.39.33.440
12924;170620;34.80;524;03.39.33.440
12920;170623;34.76;525;03.39.33.582
12932;170624;34.76;526;03.39.33.582
12916;170629;34.76;527;03.39.33.582
12928;170624;34.76;528;03.39.33.582
12912;170631;34.76;529;03.39.33.582
12908;170628;34.76;530;03.39.33.582
12900;170635;34.76;531;03.39.33.582
12924;170637;34.76;532;03.39.33.582
12896;170637;34.76;533;03.39.33.582
12928;170645;34.76;534;03.39.33.582
12892;170640;34.76;535;03.39.33.582
12892;170647;34.76;536;03.39.33.582
12904;170646;34.76;537;03.39.33.593
12904;170643;34.76;538;03.39.33.593
12908;170649;34.76;539;03.39.33.593
12932;170653;34.76;540;03.39.33.593
12876;170655;34.76;541;03.39.33.593
12908;170654;34.76;542;03.39.33.614
12900;170661;34.76;543;03.39.33.614
12908;170666;34.76;544;03.39.33.614
12912;170669;34.76;545;03.39.33.614
12888;170667;34.76;546;03.39.33.614
12944;170670;34.76;547;03.39.33.614
12900;170665;34.76;548;03.39.33.614
12924;170677;34.76;549;03.39.33.614
12932;170675;34.76;550;03.39.33.702
12912;170678;34.76;551;03.39.33.702
12912;170682;34.76;552;03.39.33.702
12904;170687;34.76;553;03.39.33.702
12876;170686;34.76;554;03.39.33.702
12888;170694;34.76;555;03.39.33.702
12892;170700;34.76;556;03.39.33.702
12924;170702;34.76;557;03.39.33.713
12904;170696;34.76;558;03.39.33.713
12920;170703;34.76;559;03.39.33.713
12920;170714;34.76;560;03.39.33.713
12908;170708;34.76;561;03.39.33.713
12916;170713;34.76;562;03.39.33.713
12900;170711;34.76;563;03.39.33.713
12928;170722;34.76;564;03.39.33.713
12928;170726;34.76;565;03.39.33.713
12920;170727;34.76;566;03.39.33.713
12904;170726;34.76;567;03.39.33.724
12892;170727;34.76;568;03.39.33.724
12884;170728;34.76;569;03.39.33.724
12892;170730;34.76;570;03.39.33.724
12928;170735;34.76;571;03.39.33.724
12928;170740;34.76;572;03.39.33.724
12912;170741;34.76;573;03.39.33.724
12912;170742;34.76;574;03.39.33.735
12916;170739;34.76;575;03.39.33.801
12916;170738;34.76;576;03.39.33.801
12900;170731;34.76;577;03.39.33.801
12860;170735;34.76;578;03.39.33.801
12916;170730;34.76;579;03.39.33.812
12928;170723;34.76;580;03.39.33.812
12888;170722;34.76;581;03.39.33.812
12904;170723;34.76;582;03.39.33.812
12928;170705;34.76;583;03.39.33.834
12928;170708;34.76;584;03.39.33.834
12920;170700;34.76;585;03.39.33.834
12900;170694;34.76;586;03.39.33.834
12920;170700;34.76;587;03.39.33.845
12908;170684;34.76;588;03.39.33.845
12904;170686;34.76;589;03.39.33.845
12900;170685;34.76;590;03.39.33.845
12916;170675;34.76;591;03.39.33.845
12920;170680;34.76;592;03.39.33.845
12904;170675;34.76;593;03.39.33.845
12892;170677;34.76;594;03.39.33.845
12912;170677;34.76;595;03.39.33.845
12912;170674;34.76;596;03.39.33.845
12900;170677;34.76;597;03.39.33.845
12916;170678;34.76;598;03.39.33.845
12920;170675;34.76;599;03.39.33.845
12892;170683;34.76;600;03.39.33.932
12892;170676;34.76;601;03.39.33.932
12928;170674;34.76;602;03.39.33.932
12892;170685;34.76;603;03.39.33.932
12920;170681;34.76;604;03.39.33.932
12908;170688;34.76;605;03.39.33.932
12892;170690;34.76;606;03.39.33.932
12924;170689;34.76;607;03.39.33.932
12908;170700;34.76;608;03.39.33.932
12908;170699;34.76;609;03.39.33.932
12908;170709;34.76;610;03.39.33.932
12900;170709;34.76;611;03.39.33.932
12876;170706;34.76;612;03.39.33.932
12900;170707;34.76;613;03.39.33.943
12884;170714;34.76;614;03.39.33.943
12904;170715;34.76;615;03.39.33.943
12908;170716;34.76;616;03.39.33.943
12908;170715;34.76;617;03.39.33.943
12904;170726;34.76;618;03.39.33.943
12892;170722;34.76;619;03.39.33.943
12908;170719;34.76;620;03.39.33.943
12916;170723;34.76;621;03.39.33.943
12912;170718;34.76;622;03.39.33.943
12900;170725;34.76;623;03.39.33.943
12932;170732;34.76;624;03.39.33.943
12896;170728;34.76;625;03.39.34.053
12924;170737;34.76;626;03.39.34.053
12912;170731;34.76;627;03.39.34.053
12904;170740;34.76;628;03.39.34.053
12908;170745;34.76;629;03.39.34.053
12916;170745;34.76;630;03.39.34.053
12900;170743;34.76;631;03.39.34.053
12932;170741;34.76;632;03.39.34.053
12912;170746;34.76;633;03.39.34.053
12908;170755;34.76;634;03.39.34.064
12908;170760;34.76;635;03.39.34.064
12912;170750;34.76;636;03.39.34.064
12924;170756;34.76;637;03.39.34.064
12908;170757;34.76;638;03.39.34.064
12936;170769;34.76;639;03.39.34.064
12892;170764;34.76;640;03.39.34.064
12936;170769;34.76;641;03.39.34.064
12928;170762;34.76;642;03.39.34.064
12944;170767;34.76;643;03.39.34.064
12924;170766;34.76;644;03.39.34.064
12860;170780;34.76;645;03.39.34.064
12920;170777;34.76;646;03.39.34.064
12896;170783;34.76;647;03.39.34.075
12892;170778;34.76;648;03.39.34.075
12924;170777;34.76;649;03.39.34.075
12908;170788;34.76;650;03.39.34.196
12892;170784;34.76;651;03.39.34.196
12912;170787;34.76;652;03.39.34.196
12916;170781;34.76;653;03.39.34.196
12920;170783;34.76;654;03.39.34.196
12916;170798;34.76;655;03.39.34.196
12920;170788;34.76;656;03.39.34.207
12932;170807;34.76;657;03.39.34.207
12900;170799;34.76;658;03.39.34.207
12912;170802;34.76;659;03.39.34.207
12940;170815;34.76;660;03.39.34.207
12900;170813;34.76;661;03.39.34.207
12920;170822;34.76;662;03.39.34.207
12944;170820;34.76;663;03.39.34.218
12916;170815;34.76;664;03.39.34.218
12912;170830;34.76;665;03.39.34.218
12916;170837;34.76;666;03.39.34.218
12916;170835;34.76;667;03.39.34.240
12908;170843;34.76;668;03.39.34.240
12908;170841;34.76;669;03.39.34.240
12900;170853;34.76;670;03.39.34.240
12932;170859;34.76;671;03.39.34.240
12912;170857;34.76;672;03.39.34.251
12908;170859;34.76;673;03.39.34.251
12936;170873;34.76;674;03.39.34.251
12924;170885;34.76;675;03.39.34.293
12924;170876;34.76;676;03.39.34.304
12920;170881;34.76;677;03.39.34.304
12888;170886;34.76;678;03.39.34.304
12944;170890;34.76;679;03.39.34.304
12896;170889;34.76;680;03.39.34.304
12908;170893;34.76;681;03.39.34.304
12900;170894;34.76;682;03.39.34.304
12900;170895;34.76;683;03.39.34.304
12928;170907;34.76;684;03.39.34.304
12908;170914;34.76;685;03.39.34.304
12908;170903;34.76;686;03.39.34.304
12928;170915;34.76;687;03.39.34.304
12892;170914;34.76;688;03.39.34.304
12920;170919;34.76;689;03.39.34.315
12908;170919;34.76;690;03.39.34.315
12900;170927;34.76;691;03.39.34.315
12892;170925;34.76;692;03.39.34.315
12904;170932;34.76;693;03.39.34.315
12920;170931;34.76;694;03.39.34.315
12904;170932;34.76;695;03.39.34.315
12928;170943;34.76;696;03.39.34.315
12916;170941;34.76;697;03.39.34.315
12892;170940;34.76;698;03.39.34.315
12936;170943;34.76;699;03.39.34.315
12928;170952;34.76;700;03.39.34.425
12928;170951;34.76;701;03.39.34.425
12892;170959;34.76;702;03.39.34.425
12892;170952;34.76;703;03.39.34.425
12904;170960;34.76;704;03.39.34.425
12928;170965;34.76;705;03.39.34.425
12912;170974;34.76;706;03.39.34.425
12912;170968;34.76;707;03.39.34.425
12892;170973;34.76;708;03.39.34.425
12904;170975;34.76;709;03.39.34.425
12928;170980;34.76;710;03.39.34.425
12924;170986;34.76;711;03.39.34.436
12892;170989;34.76;712;03.39.34.436
12928;170993;34.76;713;03.39.34.436
12872;170994;34.76;714;03.39.34.436
12936;171000;34.76;715;03.39.34.436
12892;171001;34.76;716;03.39.34.436
12928;171004;34.76;717;03.39.34.447
12916;170991;34.76;718;03.39.34.447
12900;170996;34.76;719;03.39.34.447
12912;170995;34.76;720;03.39.34.447
12892;170993;34.76;721;03.39.34.447
12912;170988;34.76;722;03.39.34.447
12892;170985;34.76;723;03.39.34.447
12892;170982;34.76;724;03.39.34.447
12928;170978;34.76;725;03.39.34.557
12936;170979;34.76;726;03.39.34.557
12904;170972;34.76;727;03.39.34.557
12908;170970;34.76;728;03.39.34.557
12928;170972;34.76;729;03.39.34.557
12924;170968;34.76;730;03.39.34.557
12900;170956;34.76;731;03.39.34.557
12928;170955;34.76;732;03.39.34.568
12916;170945;34.76;733;03.39.34.568
12900;170947;34.76;734;03.39.34.568
12912;170936;34.76;735;03.39.34.568
12928;170935;34.76;736;03.39.34.568
12916;170924;34.76;737;03.39.34.568
12920;170919;34.76;738;03.39.34.568
12904;170914;34.76;739;03.39.34.568
12892;170915;34.76;740;03.39.34.568
12924;170908;34.76;741;03.39.34.568
12908;170911;34.76;742;03.39.34.568
12928;170916;34.76;743;03.39.34.568
12896;170911;34.76;744;03.39.34.579
12920;170902;34.76;745;03.39.34.579
12904;170901;34.76;746;03.39.34.579
12936;170902;34.76;747;03.39.34.579
12928;170901;34.76;748;03.39.34.579
12916;170904;34.76;749;03.39.34.579
12876;170900;34.76;750;03.39.34.688
12876;170892;34.76;751;03.39.34.688
12912;170891;34.76;752;03.39.34.699
12900;170897;34.76;753;03.39.34.699
12908;170899;34.76;754;03.39.34.699
12908;170897;34.76;755;03.39.34.699
12908;170894;34.76;756;03.39.34.699
12892;170909;34.76;757;03.39.34.699
12928;170903;34.76;758;03.39.34.699
12860;170907;34.76;759;03.39.34.699
12928;170904;34.76;760;03.39.34.699
12936;170907;34.76;761;03.39.34.699
12920;170907;34.76;762;03.39.34.699
12936;170907;34.76;763;03.39.34.699
12912;170905;34.76;764;03.39.34.699
12896;170901;34.76;765;03.39.34.710
12928;170910;34.76;766;03.39.34.710
12912;170906;34.76;767;03.39.34.710
12928;170909;34.76;768;03.39.34.710
12860;170909;34.76;769;03.39.34.710
12904;170903;34.76;770;03.39.34.721
12896;170914;34.76;771;03.39.34.721
12872;170902;34.76;772;03.39.34.721
12916;170903;34.76;773;03.39.34.721
12920;170901;34.76;774;03.39.34.721
12896;170898;34.76;775;03.39.34.831
12892;170887;34.76;776;03.39.34.831
12916;170891;34.76;777;03.39.34.831
12876;170892;34.76;778;03.39.34.831
12928;170896;34.76;779;03.39.34.831
12928;170892;34.76;780;03.39.34.831
12892;170898;34.76;781;03.39.34.831
12892;170892;34.76;782;03.39.34.831
12944;170893;34.76;783;03.39.34.831
12892;170882;34.76;784;03.39.34.831
12916;170888;34.76;785;03.39.34.831
12912;170884;34.76;786;03.39.34.841
12904;170879;34.76;787;03.39.34.841
12900;170870;34.76;788;03.39.34.841
12904;170882;34.76;789;03.39.34.841
12936;170868;34.76;790;03.39.34.841
12916;170871;34.76;791;03.39.34.841
12892;170864;34.76;792;03.39.34.841
12904;170866;34.76;793;03.39.34.841
12892;170865;34.76;794;03.39.34.841
12904;170869;34.76;795;03.39.34.841
12920;170869;34.76;796;03.39.34.841
12908;170861;34.76;797;03.39.34.841
12920;170866;34.76;798;03.39.34.852
12904;170871;34.76;799;03.39.34.852
12876;170862;34.76;800;03.39.34.929
12908;170856;34.76;801;03.39.34.929
12920;170859;34.76;802;03.39.34.929
12908;170854;34.76;803;03.39.34.929
12912;170859;34.76;804;03.39.34.929
12892;170863;34.76;805;03.39.34.929
12932;170849;34.76;806;03.39.34.929
12932;170853;34.76;807;03.39.34.940
12900;170854;34.76;808;03.39.34.940
12912;170853;34.76;809;03.39.34.940
12912;170859;34.76;810;03.39.34.940
12928;170848;34.76;811;03.39.34.940
12924;170863;34.76;812;03.39.34.940
12920;170855;34.76;813;03.39.34.940
12920;170863;34.76;814;03.39.34.940
12908;170865;34.76;815;03.39.34.940
12860;170869;34.76;816;03.39.34.950
12876;170872;34.76;817;03.39.34.961
12916;170866;34.76;818;03.39.34.961
12904;170867;34.76;819;03.39.34.961
12932;170871;34.76;820;03.39.34.961
12928;170866;34.76;821;03.39.34.961
12940;170870;34.76;822;03.39.34.961
12908;170868;34.76;823;03.39.34.961
12940;170867;34.76;824;03.39.34.972
12928;170871;34.76;825;03.39.35.049
12916;170877;34.76;826;03.39.35.049
12912;170876;34.76;827;03.39.35.049
12904;170874;34.76;828;03.39.35.049
12916;170877;34.76;829;03.39.35.061
12904;170875;34.76;830;03.39.35.061
12900;170881;34.76;831;03.39.35.061
12904;170878;34.76;832;03.39.35.061
12928;170881;34.76;833;03.39.35.061
12892;170885;34.76;834;03.39.35.061
12908;170882;34.76;835;03.39.35.061
12920;170895;34.76;836;03.39.35.061
12896;170899;34.76;837;03.39.35.061
12876;170891;34.76;838;03.39.35.061
12876;170897;34.76;839;03.39.35.061
12912;170894;34.76;840;03.39.35.061
12896;170894;34.76;841;03.39.35.061
12892;170894;34.76;842;03.39.35.072
12908;170902;34.76;843;03.39.35.072
12888;170903;34.76;844;03.39.35.072
12920;170898;34.76;845;03.39.35.072
12928;170899;34.76;846;03.39.35.072
12908;170913;34.76;847;03.39.35.072
12888;170906;34.76;848;03.39.35.072
12932;170901;34.76;849;03.39.35.072
12900;170912;34.76;850;03.39.35.193
12920;170907;34.76;851;03.39.35.193
12928;170911;34.76;852;03.39.35.193
12916;170895;34.76;853;03.39.35.193
12908;170898;34.76;854;03.39.35.193
12908;170890;34.76;855;03.39.35.193
12892;170883;34.76;856;03.39.35.193
12888;170880;34.76;857;03.39.35.193
12928;170876;34.76;858;03.39.35.193
12924;170874;34.76;859;03.39.35.193
12908;170866;34.76;860;03.39.35.193
12900;170864;34.76;861;03.39.35.193
12932;170853;34.76;862;03.39.35.193
12912;170849;34.76;863;03.39.35.204
12912;170834;34.76;864;03.39.35.204
12908;170825;34.76;865;03.39.35.204
12900;170822;34.76;866;03.39.35.204
12920;170815;34.76;867;03.39.35.204
12932;170813;34.76;868;03.39.35.204
12912;170814;34.76;869;03.39.35.204
12900;170808;34.76;870;03.39.35.204
12928;170799;34.76;871;03.39.35.204
12904;170786;34.76;872;03.39.35.204
12928;170793;34.76;873;03.39.35.204
12916;170786;34.76;874;03.39.35.204
12912;170792;34.76;875;03.39.35.324
12908;170780;34.76;876;03.39.35.324
12932;170783;34.76;877;03.39.35.324
12916;170771;34.76;878;03.39.35.324
12896;170774;34.76;879;03.39.35.324
12900;170780;34.76;880;03.39.35.324
12892;170780;34.76;881;03.39.35.324
12876;170778;34.76;882;03.39.35.324
12900;170777;34.76;883;03.39.35.335
12916;170786;34.76;884;03.39.35.335
12916;170778;34.76;885;03.39.35.335
12916;170770;34.76;886;03.39.35.335
12916;170771;34.76;887;03.39.35.335
12896;170779;34.76;888;03.39.35.335
12920;170774;34.76;889;03.39.35.335
12920;170765;34.76;890;03.39.35.335
12908;170772;34.76;891;03.39.35.335
12920;170766;34.76;892;03.39.35.335
12924;170780;34.76;893;03.39.35.335
12892;170778;34.76;894;03.39.35.346
12932;170765;34.76;895;03.39.35.346
12928;170768;34.76;896;03.39.35.346
12896;170778;34.76;897;03.39.35.346
12916;170779;34.76;898;03.39.35.346
12944;170772;34.76;899;03.39.35.346
12900;170777;34.76;900;03.39.35.433
12904;170780;34.76;901;03.39.35.433
12912;170780;34.76;902;03.39.35.433
12904;170779;34.76;903;03.39.35.433
12888;170784;34.76;904;03.39.35.433
12916;170785;34.76;905;03.39.35.444
12888;170774;34.76;906;03.39.35.444
12928;170778;34.76;907;03.39.35.444
12892;170783;34.76;908;03.39.35.444
12888;170787;34.76;909;03.39.35.444
12916;170780;34.76;910;03.39.35.444
12900;170778;34.76;911;03.39.35.444
12884;170785;34.76;912;03.39.35.444
12916;170774;34.76;913;03.39.35.455
12904;170776;34.76;914;03.39.35.455
12920;170781;34.76;915;03.39.35.455
12936;170776;34.76;916;03.39.35.455
12928;170775;34.76;917;03.39.35.455
12892;170780;34.76;918;03.39.35.455
12888;170777;34.76;919;03.39.35.455
12916;170775;34.76;920;03.39.35.455
12924;170773;34.76;921;03.39.35.455
12908;170769;34.76;922;03.39.35.455
12928;170773;34.76;923;03.39.35.455
12928;170774;34.76;924;03.39.35.455
12936;170777;34.76;925;03.39.35.543
12924;170770;34.76;926;03.39.35.543
12896;170772;34.76;927;03.39.35.554
12884;170778;34.76;928;03.39.35.554
12876;170768;34.76;929;03.39.35.554
12924;170765;34.76;930;03.39.35.554
12900;170773;34.76;931;03.39.35.554
12936;170764;34.76;932;03.39.35.554
12916;170778;34.76;933;03.39.35.554
12904;170780;34.76;934;03.39.35.554
12924;170776;34.76;935;03.39.35.565
12908;170776;34.76;936;03.39.35.565
12928;170775;34.76;937;03.39.35.565
12944;170785;34.76;938;03.39.35.565
12920;170780;34.76;939;03.39.35.565
12892;170784;34.76;940;03.39.35.565
12944;170790;34.76;941;03.39.35.565
12924;170780;34.76;942;03.39.35.565
12880;170787;34.76;943;03.39.35.565
12892;170788;34.76;944;03.39.35.565
12908;170788;34.76;945;03.39.35.565
12920;170788;34.76;946;03.39.35.565
12912;170785;34.76;947;03.39.35.565
12920;170796;34.76;948;03.39.35.576
12916;170789;34.76;949;03.39.35.576
12924;170785;34.76;950;03.39.35.685
12916;170790;34.76;951;03.39.35.685
12932;170785;34.76;952;03.39.35.685
12928;170793;34.76;953;03.39.35.685
12892;170792;34.76;954;03.39.35.685
12880;170801;34.76;955;03.39.35.685
12916;170797;34.76;956;03.39.35.685
12924;170793;34.76;957;03.39.35.685
12912;170810;34.76;958;03.39.35.685
12912;170805;34.76;959;03.39.35.685
12880;170805;34.76;960;03.39.35.685
12924;170805;34.76;961;03.39.35.696
12908;170810;34.76;962;03.39.35.696
12912;170801;34.76;963;03.39.35.696
12892;170804;34.76;964;03.39.35.696
12912;170802;34.76;965;03.39.35.696
12920;170813;34.76;966;03.39.35.696
12888;170803;34.76;967;03.39.35.707
12916;170813;34.76;968;03.39.35.707
12888;170804;34.76;969;03.39.35.707
12928;170812;34.76;970;03.39.35.707
12944;170813;34.76;971;03.39.35.707
12928;170818;34.76;972;03.39.35.707
12900;170820;34.76;973;03.39.35.707
12948;170814;34.76;974;03.39.35.707
12912;170813;34.76;975;03.39.35.817
12928;170816;34.76;976;03.39.35.817
12936;170817;34.76;977;03.39.35.817
12896;170817;34.76;978;03.39.35.817
12896;170815;34.76;979;03.39.35.817
12904;170817;34.76;980;03.39.35.817
12896;170808;34.76;981;03.39.35.828
12912;170810;34.76;982;03.39.35.828
12904;170804;34.76;983;03.39.35.828
12912;170785;34.76;984;03.39.35.828
12928;170798;34.76;985;03.39.35.828
12912;170791;34.76;986;03.39.35.828
12920;170797;34.76;987;03.39.35.828
12880;170792;34.76;988;03.39.35.828
12920;170782;34.76;989;03.39.35.828
12928;170783;34.76;990;03.39.35.828
12912;170778;34.76;991;03.39.35.828
12916;170765;34.76;992;03.39.35.872
12928;170762;34.76;993;03.39.35.872
12928;170756;34.76;994;03.39.35.872
12944;170753;34.76;995;03.39.35.872
12896;170750;34.76;996;03.39.35.872
12904;170747;34.76;997;03.39.35.872
12912;170734;34.76;998;03.39.35.883
12924;170739;34.76;999;03.39.35.883
12908;170732;34.76;000;03.39.35.949
12916;170726;34.76;001;03.39.35.949
12908;170731;34.76;002;03.39.35.949
12896;170729;34.76;003;03.39.35.959
12928;170725;34.76;004;03.39.35.959
12920;170730;34.76;005;03.39.35.959
12924;170726;34.76;006;03.39.35.959
12928;170724;34.76;007;03.39.35.959
12884;170732;34.76;008;03.39.35.959
12920;170721;34.76;009;03.39.35.959
12900;170725;34.76;010;03.39.35.959
12916;170724;34.76;011;03.39.35.959
12888;170723;34.76;012;03.39.35.959
12892;170717;34.76;013;03.39.35.959
12928;170714;34.76;014;03.39.35.959
12916;170710;34.76;015;03.39.35.959
12912;170708;34.76;016;03.39.35.970
12900;170711;34.76;017;03.39.35.970
12928;170706;34.76;018;03.39.35.970
12888;170704;34.76;019;03.39.35.970
12884;170705;34.76;020;03.39.35.970
12908;170707;34.76;021;03.39.35.970
12904;170704;34.76;022;03.39.35.970
12908;170715;34.76;023;03.39.35.970
12924;170708;34.76;024;03.39.35.970
12916;170711;34.72;025;03.39.36.080
12908;170712;34.72;026;03.39.36.080
12892;170711;34.72;027;03.39.36.080
12896;170716;34.72;028;03.39.36.080
12916;170717;34.72;029;03.39.36.080
12936;170717;34.72;030;03.39.36.080
12936;170712;34.72;031;03.39.36.080
12932;170713;34.72;032;03.39.36.080
12928;170714;34.72;033;03.39.36.080
12912;170723;34.72;034;03.39.36.080
12916;170717;34.72;035;03.39.36.091
12912;170716;34.72;036;03.39.36.091
12880;170715;34.72;037;03.39.36.091
12896;170716;34.72;038;03.39.36.091
12904;170723;34.72;039;03.39.36.091
12908;170715;34.72;040;03.39.36.091
12908;170710;34.72;041;03.39.36.091
12924;170709;34.72;042;03.39.36.091
12916;170709;34.72;043;03.39.36.091
12892;170704;34.72;044;03.39.36.091
12932;170704;34.72;045;03.39.36.091
12884;170704;34.72;046;03.39.36.091
12932;170706;34.72;047;03.39.36.091
12936;170701;34.72;048;03.39.36.102
12920;170704;34.72;049;03.39.36.102
12908;170705;34.72;050;03.39.36.178
12892;170704;34.72;051;03.39.36.178
12928;170703;34.72;052;03.39.36.178
12916;170700;34.72;053;03.39.36.178
12936;170702;34.72;054;03.39.36.178
12892;170703;34.72;055;03.39.36.178
12908;170688;34.72;056;03.39.36.178
12896;170700;34.72;057;03.39.36.178
12892;170699;34.72;058;03.39.36.189
12920;170703;34.72;059;03.39.36.189
12884;170701;34.72;060;03.39.36.189
12892;170696;34.72;061;03.39.36.189
12904;170697;34.72;062;03.39.36.189
12932;170699;34.72;063;03.39.36.189
12888;170701;34.72;064;03.39.36.189
12928;170711;34.72;065;03.39.36.189
12900;170694;34.72;066;03.39.36.189
12892;170706;34.72;067;03.39.36.200
12892;170702;34.72;068;03.39.36.200
12932;170701;34.72;069;03.39.36.200
12900;170698;34.72;070;03.39.36.200
12896;170703;34.72;071;03.39.36.200
12892;170709;34.72;072;03.39.36.200
12920;170707;34.72;073;03.39.36.200
12908;170705;34.72;074;03.39.36.200
12900;170701;34.76;075;03.39.36.310
12888;170707;34.76;076;03.39.36.310
12920;170709;34.76;077;03.39.36.310
12916;170708;34.76;078;03.39.36.310
12896;170717;34.76;079;03.39.36.321
12900;170715;34.76;080;03.39.36.321
12924;170715;34.76;081;03.39.36.321
12900;170709;34.76;082;03.39.36.321
12892;170714;34.76;083;03.39.36.321
12912;170713;34.76;084;03.39.36.321
12928;170715;34.76;085;03.39.36.321
12896;170711;34.76;086;03.39.36.321
12900;170710;34.76;087;03.39.36.321
12904;170717;34.76;088;03.39.36.321
12924;170709;34.76;089;03.39.36.321
12904;170726;34.76;090;03.39.36.321
12932;170724;34.76;091;03.39.36.321
12916;170716;34.76;092;03.39.36.332
12880;170726;34.76;093;03.39.36.332
12924;170720;34.76;094;03.39.36.332
12876;170725;34.76;095;03.39.36.332
12888;170731;34.76;096;03.39.36.332
12900;170722;34.76;097;03.39.36.332
12900;170721;34.76;098;03.39.36.332
12908;170735;34.76;099;03.39.36.332
12912;170717;34.76;100;03.39.36.419
12912;170722;34.76;101;03.39.36.430
12912;170723;34.76;102;03.39.36.430
12928;170727;34.76;103;03.39.36.430
12884;170721;34.76;104;03.39.36.430
12936;170706;34.76;105;03.39.36.430
12904;170715;34.76;106;03.39.36.430
12912;170712;34.76;107;03.39.36.430
12892;170702;34.76;108;03.39.36.430
12928;170699;34.76;109;03.39.36.430
12936;170697;34.76;110;03.39.36.430
12916;170687;34.76;111;03.39.36.442
12912;170691;34.76;112;03.39.36.442
12912;170684;34.76;113;03.39.36.442
12944;170671;34.76;114;03.39.36.442
12912;170675;34.76;115;03.39.36.442
12912;170664;34.76;116;03.39.36.442
12924;170664;34.76;117;03.39.36.442
12936;170667;34.76;118;03.39.36.442
12908;170663;34.76;119;03.39.36.454
12908;170669;34.76;120;03.39.36.454
12892;170661;34.76;121;03.39.36.454
12920;170650;34.76;122;03.39.36.454
12928;170655;34.76;123;03.39.36.454
12924;170651;34.76;124;03.39.36.454
12884;170650;34.76;125;03.39.36.552
12916;170652;34.76;126;03.39.36.552
12928;170641;34.76;127;03.39.36.552
12904;170636;34.76;128;03.39.36.552
12928;170642;34.76;129;03.39.36.552
12880;170646;34.76;130;03.39.36.552
12916;170637;34.76;131;03.39.36.552
12920;170633;34.76;132;03.39.36.552
12900;170638;34.76;133;03.39.36.552
12904;170639;34.76;134;03.39.36.552
12908;170637;34.76;135;03.39.36.552
12892;170635;34.76;136;03.39.36.552
12928;170638;34.76;137;03.39.36.563
12892;170633;34.76;138;03.39.36.563
12888;170636;34.76;139;03.39.36.563
12900;170638;34.76;140;03.39.36.563
12904;170633;34.76;141;03.39.36.563
12892;170635;34.76;142;03.39.36.563
12912;170631;34.76;143;03.39.36.563
12928;170631;34.76;144;03.39.36.563
12912;170632;34.76;145;03.39.36.563
12892;170636;34.76;146;03.39.36.563
12908;170633;34.76;147;03.39.36.563
12924;170645;34.76;148;03.39.36.563
12924;170644;34.76;149;03.39.36.563
12904;170641;34.76;150;03.39.36.685
12924;170641;34.76;151;03.39.36.685
12932;170643;34.76;152;03.39.36.685
12908;170638;34.76;153;03.39.36.685
12900;170641;34.76;154;03.39.36.685
12940;170639;34.76;155;03.39.36.685
12904;170638;34.76;156;03.39.36.685
12912;170630;34.76;157;03.39.36.685
12928;170640;34.76;158;03.39.36.696
12912;170632;34.76;159;03.39.36.696
12904;170639;34.76;160;03.39.36.696
12932;170632;34.76;161;03.39.36.696
12904;170637;34.76;162;03.39.36.696
12908;170639;34.76;163;03.39.36.696
12940;170645;34.76;164;03.39.36.696
12928;170632;34.76;165;03.39.36.696
12920;170635;34.76;166;03.39.36.696
12908;170637;34.76;167;03.39.36.696
12916;170633;34.76;168;03.39.36.696
12912;170628;34.76;169;03.39.36.696
12908;170633;34.76;170;03.39.36.696
12920;170632;34.76;171;03.39.36.707
12892;170630;34.76;172;03.39.36.707
12940;170631;34.76;173;03.39.36.707
12920;170632;34.76;174;03.39.36.707
12912;170630;34.80;175;03.39.36.806
12892;170629;34.80;176;03.39.36.806
12900;170630;34.80;177;03.39.36.806
12916;170632;34.80;178;03.39.36.806
12932;170631;34.80;179;03.39.36.806
12936;170623;34.80;180;03.39.36.816
12924;170628;34.80;181;03.39.36.816
12904;170621;34.80;182;03.39.36.816
12936;170625;34.80;183;03.39.36.816
12928;170616;34.80;184;03.39.36.816
12896;170628;34.80;185;03.39.36.816
12928;170631;34.80;186;03.39.36.816
12892;170628;34.80;187;03.39.36.816
12904;170635;34.80;188;03.39.36.816
12912;170628;34.80;189;03.39.36.816
12888;170632;34.80;190;03.39.36.816
12904;170631;34.80;191;03.39.36.816
12924;170635;34.80;192;03.39.36.816
12900;170627;34.80;193;03.39.36.827
12884;170633;34.80;194;03.39.36.827
12928;170629;34.80;195;03.39.36.827
12900;170627;34.80;196;03.39.36.827
12928;170627;34.80;197;03.39.36.827
12908;170639;34.80;198;03.39.36.827
12940;170630;34.80;199;03.39.36.827
12900;170631;34.80;200;03.39.36.948
12908;170635;34.80;201;03.39.36.959
12904;170640;34.80;202;03.39.36.959
12920;170644;34.80;203;03.39.36.959
12924;170647;34.80;204;03.39.36.959
12904;170647;34.80;205;03.39.36.959
12928;170646;34.80;206;03.39.36.959
12892;170650;34.80;207;03.39.36.959
12900;170645;34.80;208;03.39.36.959
12884;170650;34.80;209;03.39.36.959
12904;170657;34.80;210;03.39.36.959
12904;170653;34.80;211;03.39.36.959
12904;170653;34.80;212;03.39.36.959
12896;170658;34.80;213;03.39.36.959
12888;170661;34.80;214;03.39.36.970
12908;170652;34.80;215;03.39.36.970
12900;170663;34.80;216;03.39.36.970
12900;170656;34.80;217;03.39.36.970
12920;170664;34.80;218;03.39.36.970
12904;170663;34.80;219;03.39.36.970
12892;170661;34.80;220;03.39.36.970
12900;170670;34.80;221;03.39.36.970
12932;170668;34.80;222;03.39.36.970
12912;170666;34.80;223;03.39.36.970
12952;170674;34.80;224;03.39.36.970
12884;170676;34.76;225;03.39.37.058
12896;170665;34.76;226;03.39.37.058
12912;170664;34.76;227;03.39.37.058
12912;170676;34.76;228;03.39.37.058
12928;170662;34.76;229;03.39.37.058
12884;170661;34.76;230;03.39.37.058
12900;170647;34.76;231;03.39.37.058
12896;170643;34.76;232;03.39.37.058
12908;170648;34.76;233;03.39.37.135
12892;170643;34.76;234;03.39.37.135
12924;170638;34.76;235;03.39.37.135
12904;170620;34.76;236;03.39.37.135
12916;170624;34.76;237;03.39.37.135
12908;170618;34.76;238;03.39.37.135
12904;170617;34.76;239;03.39.37.135
12924;170613;34.76;240;03.39.37.135
12920;170607;34.76;241;03.39.37.135
12908;170605;34.76;242;03.39.37.146
12900;170600;34.76;243;03.39.37.146
12892;170600;34.76;244;03.39.37.146
12928;170589;34.76;245;03.39.37.146
12884;170585;34.76;246;03.39.37.146
12924;170579;34.76;247;03.39.37.146
12904;170588;34.76;248;03.39.37.146
12940;170588;34.76;249;03.39.37.146
12896;170581;34.76;250;03.39.37.179
12876;170573;34.76;251;03.39.37.179
12912;170582;34.76;252;03.39.37.179
12904;170578;34.76;253;03.39.37.179
12908;170579;34.76;254;03.39.37.179
12920;170572;34.76;255;03.39.37.179
12928;170577;34.76;256;03.39.37.179
12928;170569;34.76;257;03.39.37.189
12892;170575;34.76;258;03.39.37.189
12908;170581;34.76;259;03.39.37.189
12904;170574;34.76;260;03.39.37.189
12908;170573;34.76;261;03.39.37.189
12896;170572;34.76;262;03.39.37.189
12908;170575;34.76;263;03.39.37.189
12960;170581;34.76;264;03.39.37.189
12936;170579;34.76;265;03.39.37.189
12912;170583;34.76;266;03.39.37.200
12920;170577;34.76;267;03.39.37.200
12888;170584;34.76;268;03.39.37.200
12904;170585;34.76;269;03.39.37.200
12892;170580;34.76;270;03.39.37.200
12900;170586;34.76;271;03.39.37.200
12896;170587;34.76;272;03.39.37.200
12920;170593;34.76;273;03.39.37.200
12936;170587;34.76;274;03.39.37.200
12912;170595;34.80;275;03.39.37.299
12908;170593;34.80;276;03.39.37.299
12876;170601;34.80;277;03.39.37.299
12900;170599;34.80;278;03.39.37.299
12888;170603;34.80;279;03.39.37.310
12904;170603;34.80;280;03.39.37.310
12884;170601;34.80;281;03.39.37.310
12900;170603;34.80;282;03.39.37.310
12908;170608;34.80;283;03.39.37.310
12884;170605;34.80;284;03.39.37.310
12896;170614;34.80;285;03.39.37.310
12900;170617;34.80;286;03.39.37.310
12932;170616;34.80;287;03.39.37.310
12912;170612;34.80;288;03.39.37.310
12908;170614;34.80;289;03.39.37.310
12912;170617;34.80;290;03.39.37.310
12908;170615;34.80;291;03.39.37.321
12892;170617;34.80;292;03.39.37.321
12880;170620;34.80;293;03.39.37.321
12912;170622;34.80;294;03.39.37.321
12912;170619;34.80;295;03.39.37.321
12916;170614;34.80;296;03.39.37.332
12884;170612;34.80;297;03.39.37.332
12888;170608;34.80;298;03.39.37.332
12928;170617;34.80;299;03.39.37.332
12872;170622;34.80;300;03.39.37.431
12924;170626;34.80;301;03.39.37.431
12928;170622;34.80;302;03.39.37.431
12904;170625;34.80;303;03.39.37.431
12928;170626;34.80;304;03.39.37.431
12884;170624;34.80;305;03.39.37.431
12892;170635;34.80;306;03.39.37.431
12904;170630;34.80;307;03.39.37.431
12912;170639;34.80;308;03.39.37.453
12888;170637;34.80;309;03.39.37.453
12920;170630;34.80;310;03.39.37.453
12928;170649;34.80;311;03.39.37.453
12924;170640;34.80;312;03.39.37.453
12900;170638;34.80;313;03.39.37.453
12908;170642;34.80;314;03.39.37.453
12920;170646;34.80;315;03.39.37.453
12896;170654;34.80;316;03.39.37.453
12928;170645;34.80;317;03.39.37.453
12916;170657;34.80;318;03.39.37.453
12960;170661;34.80;319;03.39.37.453
12920;170659;34.80;320;03.39.37.464
12920;170655;34.80;321;03.39.37.464
12928;170666;34.80;322;03.39.37.464
12916;170666;34.80;323;03.39.37.464
12908;170660;34.80;324;03.39.37.464
12892;170667;34.76;325;03.39.37.552
12924;170669;34.76;326;03.39.37.552
12892;170667;34.76;327;03.39.37.552
12892;170670;34.76;328;03.39.37.552
12916;170672;34.76;329;03.39.37.552
12892;170675;34.76;330;03.39.37.552
12944;170674;34.76;331;03.39.37.552
12896;170680;34.76;332;03.39.37.552
12928;170679;34.76;333;03.39.37.552
12928;170685;34.76;334;03.39.37.562
12928;170691;34.76;335;03.39.37.562
12928;170688;34.76;336;03.39.37.562
12880;170684;34.76;337;03.39.37.562
12876;170697;34.76;338;03.39.37.562
12912;170696;34.76;339;03.39.37.562
12932;170704;34.76;340;03.39.37.562
12896;170699;34.76;341;03.39.37.562
12912;170709;34.76;342;03.39.37.584
12888;170703;34.76;343;03.39.37.584
12904;170698;34.76;344;03.39.37.584
12928;170712;34.76;345;03.39.37.584
12904;170705;34.76;346;03.39.37.584
12916;170708;34.76;347;03.39.37.584
12928;170719;34.76;348;03.39.37.584
12932;170728;34.76;349;03.39.37.584
12912;170725;34.76;350;03.39.37.672
12928;170718;34.76;351;03.39.37.672
12908;170728;34.76;352;03.39.37.672
12884;170726;34.76;353;03.39.37.672
12888;170721;34.76;354;03.39.37.672
12904;170719;34.76;355;03.39.37.683
12888;170727;34.76;356;03.39.37.683
12912;170723;34.76;357;03.39.37.683
12900;170730;34.76;358;03.39.37.683
12912;170714;34.76;359;03.39.37.683
12932;170719;34.76;360;03.39.37.683
12916;170709;34.76;361;03.39.37.683
12860;170709;34.76;362;03.39.37.683
12916;170706;34.76;363;03.39.37.683
12908;170703;34.76;364;03.39.37.683
12912;170690;34.76;365;03.39.37.683
12908;170689;34.76;366;03.39.37.683
12892;170694;34.76;367;03.39.37.683
12932;170687;34.76;368;03.39.37.694
12892;170687;34.76;369;03.39.37.694
12916;170677;34.76;370;03.39.37.694
12912;170679;34.76;371;03.39.37.694
12928;170674;34.76;372;03.39.37.694
12920;170677;34.76;373;03.39.37.694
12904;170675;34.76;374;03.39.37.694
12904;170669;34.76;375;03.39.37.803
12892;170675;34.76;376;03.39.37.814
12892;170664;34.76;377;03.39.37.814
12904;170682;34.76;378;03.39.37.814
12920;170672;34.76;379;03.39.37.814
12928;170666;34.76;380;03.39.37.814
12928;170665;34.76;381;03.39.37.814
12908;170659;34.76;382;03.39.37.814
12900;170663;34.76;383;03.39.37.814
12940;170673;34.76;384;03.39.37.814
12884;170667;34.76;385;03.39.37.814
12888;170674;34.76;386;03.39.37.814
12924;170673;34.76;387;03.39.37.814
12888;170662;34.76;388;03.39.37.814
12908;170667;34.76;389;03.39.37.825
12908;170666;34.76;390;03.39.37.825
12892;170666;34.76;391;03.39.37.825
12884;170675;34.76;392;03.39.37.825
12948;170677;34.76;393;03.39.37.825
12908;170684;34.76;394;03.39.37.825
12892;170682;34.76;395;03.39.37.825
12932;170686;34.76;396;03.39.37.825
12904;170687;34.76;397;03.39.37.825
12912;170683;34.76;398;03.39.37.825
12916;170684;34.76;399;03.39.37.825
12924;170690;34.76;400;03.39.37.946
12928;170677;34.76;401;03.39.37.946
12916;170681;34.76;402;03.39.37.946
12916;170687;34.76;403;03.39.37.946
12936;170692;34.76;404;03.39.37.946
12884;170696;34.76;405;03.39.37.946
12912;170701;34.76;406;03.39.37.946
12892;170693;34.76;407;03.39.37.946
12928;170697;34.76;408;03.39.37.946
12928;170697;34.76;409;03.39.37.956
12912;170700;34.76;410;03.39.37.956
12900;170689;34.76;411;03.39.37.956
12912;170702;34.76;412;03.39.37.956
12884;170701;34.76;413;03.39.37.956
12896;170698;34.76;414;03.39.37.956
12892;170696;34.76;415;03.39.37.956
12920;170696;34.76;416;03.39.37.956
12892;170700;34.76;417;03.39.37.956
12892;170702;34.76;418;03.39.37.956
12936;170713;34.76;419;03.39.37.956
12928;170710;34.76;420;03.39.37.956
12908;170710;34.76;421;03.39.37.956
12904;170705;34.76;422;03.39.37.967
12920;170703;34.76;423;03.39.37.967
12920;170713;34.76;424;03.39.37.967
12900;170701;34.80;425;03.39.38.055
12896;170705;34.80;426;03.39.38.055
12888;170703;34.80;427;03.39.38.055
12904;170702;34.80;428;03.39.38.055
12908;170701;34.80;429;03.39.38.055
12916;170704;34.80;430;03.39.38.055
12904;170710;34.80;431;03.39.38.066
12896;170709;34.80;432;03.39.38.066
12900;170711;34.80;433;03.39.38.077
12904;170702;34.80;434;03.39.38.077
12928;170709;34.80;435;03.39.38.077
12892;170716;34.80;436;03.39.38.077
12912;170714;34.80;437;03.39.38.077
12904;170715;34.80;438;03.39.38.077
12896;170719;34.80;439;03.39.38.087
12928;170722;34.80;440;03.39.38.087
12924;170717;34.80;441;03.39.38.087
12880;170725;34.80;442;03.39.38.087
12916;170722;34.80;443;03.39.38.087
12916;170726;34.80;444;03.39.38.087
12908;170730;34.80;445;03.39.38.087
12904;170728;34.80;446;03.39.38.087
12936;170725;34.80;447;03.39.38.087
12928;170733;34.80;448;03.39.38.087
12928;170739;34.80;449;03.39.38.087
12908;170732;34.80;450;03.39.38.186
12928;170735;34.80;451;03.39.38.186
12924;170736;34.80;452;03.39.38.186
12908;170737;34.80;453;03.39.38.186
12904;170743;34.80;454;03.39.38.186
12932;170744;34.80;455;03.39.38.186
12892;170745;34.80;456;03.39.38.186
12932;170747;34.80;457;03.39.38.186
12892;170747;34.80;458;03.39.38.186
12928;170749;34.80;459;03.39.38.186
12924;170751;34.80;460;03.39.38.186
12908;170756;34.80;461;03.39.38.197
12920;170763;34.80;462;03.39.38.197
12912;170764;34.80;463;03.39.38.197
12904;170770;34.80;464;03.39.38.197
12924;170761;34.80;465;03.39.38.197
12932;170769;34.80;466;03.39.38.197
12928;170772;34.80;467;03.39.38.219
12924;170781;34.80;468;03.39.38.230
12888;170779;34.80;469;03.39.38.230
12924;170789;34.80;470;03.39.38.230
12932;170784;34.80;471;03.39.38.230
12916;170787;34.80;472;03.39.38.230
12908;170784;34.80;473;03.39.38.230
12924;170790;34.80;474;03.39.38.230
12916;170800;34.80;475;03.39.38.307
12916;170793;34.80;476;03.39.38.307
12884;170796;34.80;477;03.39.38.307
12928;170801;34.80;478;03.39.38.307
12920;170807;34.80;479;03.39.38.307
12896;170802;34.80;480;03.39.38.307
12908;170796;34.80;481;03.39.38.307
12896;170799;34.80;482;03.39.38.307
12920;170795;34.80;483;03.39.38.307
12916;170787;34.80;484;03.39.38.307
12896;170785;34.80;485;03.39.38.307
12928;170785;34.80;486;03.39.38.318
12912;170774;34.80;487;03.39.38.318
12916;170773;34.80;488;03.39.38.318
12908;170769;34.80;489;03.39.38.318
12892;170762;34.80;490;03.39.38.318
12912;170757;34.80;491;03.39.38.318
12904;170752;34.80;492;03.39.38.318
12912;170753;34.80;493;03.39.38.318
12928;170743;34.80;494;03.39.38.318
12876;170738;34.80;495;03.39.38.318
12928;170740;34.80;496;03.39.38.318
12896;170742;34.80;497;03.39.38.318
12880;170734;34.80;498;03.39.38.318
12936;170725;34.80;499;03.39.38.329
12920;170733;34.80;500;03.39.38.450
12928;170731;34.80;501;03.39.38.450
12912;170729;34.80;502;03.39.38.450
12900;170723;34.80;503;03.39.38.450
12928;170732;34.80;504;03.39.38.450
12876;170732;34.80;505;03.39.38.450
12908;170725;34.80;506;03.39.38.450
12912;170721;34.80;507;03.39.38.460
12900;170720;34.80;508;03.39.38.460
12888;170732;34.80;509;03.39.38.460
12916;170739;34.80;510;03.39.38.460
12904;170731;34.80;511;03.39.38.460
12884;170729;34.80;512;03.39.38.460
12908;170730;34.80;513;03.39.38.460
12912;170727;34.80;514;03.39.38.460
12900;170736;34.80;515;03.39.38.460
12892;170741;34.80;516;03.39.38.460
12888;170737;34.80;517;03.39.38.460
12860;170729;34.80;518;03.39.38.460
12920;170745;34.80;519;03.39.38.460
12924;170747;34.80;520;03.39.38.471
12900;170749;34.80;521;03.39.38.471
12920;170752;34.80;522;03.39.38.471
12924;170757;34.80;523;03.39.38.471
12940;170763;34.80;524;03.39.38.471
12892;170769;34.72;525;03.39.38.570
12904;170764;34.72;526;03.39.38.570
12912;170771;34.72;527;03.39.38.581
12928;170774;34.72;528;03.39.38.581
12908;170779;34.72;529;03.39.38.581
12908;170770;34.72;530;03.39.38.581
12904;170775;34.72;531;03.39.38.581
12892;170774;34.72;532;03.39.38.581
12900;170781;34.72;533;03.39.38.581
12908;170785;34.72;534;03.39.38.581
12928;170779;34.72;535;03.39.38.581
12904;170790;34.72;536;03.39.38.581
12928;170790;34.72;537;03.39.38.581
12916;170790;34.72;538;03.39.38.581
12916;170800;34.72;539;03.39.38.581
12912;170799;34.72;540;03.39.38.581
12892;170789;34.72;541;03.39.38.592
12892;170792;34.72;542;03.39.38.592
12920;170799;34.72;543;03.39.38.592
12900;170794;34.72;544;03.39.38.592
12928;170781;34.72;545;03.39.38.592
12912;170782;34.72;546;03.39.38.592
12928;170786;34.72;547;03.39.38.592
12900;170788;34.72;548;03.39.38.592
12928;170797;34.72;549;03.39.38.592
12920;170791;34.72;550;03.39.38.680
12920;170788;34.72;551;03.39.38.680
12900;170799;34.72;552;03.39.38.680
12884;170794;34.72;553;03.39.38.680
12888;170791;34.72;554;03.39.38.680
12908;170795;34.72;555;03.39.38.680
12928;170798;34.72;556;03.39.38.680
12904;170795;34.72;557;03.39.38.680
12924;170795;34.72;558;03.39.38.680
12944;170801;34.72;559;03.39.38.680
12916;170802;34.72;560;03.39.38.680
12900;170800;34.72;561;03.39.38.680
12904;170801;34.72;562;03.39.38.680
12896;170804;34.72;563;03.39.38.691
12900;170807;34.72;564;03.39.38.691
12928;170807;34.72;565;03.39.38.691
12876;170813;34.72;566;03.39.38.691
12892;170812;34.72;567;03.39.38.691
12876;170814;34.72;568;03.39.38.691
12928;170815;34.72;569;03.39.38.691
12908;170823;34.72;570;03.39.38.691
12892;170831;34.72;571;03.39.38.691
12924;170831;34.72;572;03.39.38.691
12892;170842;34.72;573;03.39.38.691
12896;170837;34.72;574;03.39.38.691
12892;170838;34.76;575;03.39.38.801
12892;170846;34.76;576;03.39.38.801
12920;170838;34.76;577;03.39.38.801
12888;170847;34.76;578;03.39.38.801
12924;170836;34.76;579;03.39.38.801
12904;170850;34.76;580;03.39.38.801
12916;170853;34.76;581;03.39.38.801
12928;170855;34.76;582;03.39.38.801
12888;170854;34.76;583;03.39.38.801
12908;170854;34.76;584;03.39.38.801
12928;170858;34.76;585;03.39.38.812
12904;170868;34.76;586;03.39.38.812
12924;170863;34.76;587;03.39.38.812
12908;170862;34.76;588;03.39.38.812
12888;170869;34.76;589;03.39.38.812
12928;170877;34.76;590;03.39.38.812
12908;170875;34.76;591;03.39.38.812
12936;170878;34.76;592;03.39.38.812
12908;170885;34.76;593;03.39.38.812
12920;170886;34.76;594;03.39.38.812
12936;170882;34.76;595;03.39.38.812
12892;170880;34.76;596;03.39.38.812
12888;170886;34.76;597;03.39.38.823
12920;170900;34.76;598;03.39.38.823
12904;170892;34.76;599;03.39.38.823
12904;170896;34.76;600;03.39.38.932
12908;170896;34.76;601;03.39.38.932
12892;170895;34.76;602;03.39.38.932
12908;170899;34.76;603;03.39.38.932
12904;170909;34.76;604;03.39.38.932
12884;170907;34.76;605;03.39.38.943
12896;170914;34.76;606;03.39.38.943
12936;170912;34.76;607;03.39.38.943
12916;170916;34.76;608;03.39.38.943
12928;170915;34.76;609;03.39.38.943
12916;170916;34.76;610;03.39.38.943
12892;170916;34.76;611;03.39.38.943
12908;170912;34.76;612;03.39.38.943
12912;170902;34.76;613;03.39.38.943
12908;170896;34.76;614;03.39.38.943
12916;170898;34.76;615;03.39.38.943
12908;170902;34.76;616;03.39.38.943
12908;170899;34.76;617;03.39.38.943
12916;170901;34.76;618;03.39.38.954
12900;170897;34.76;619;03.39.38.954
12936;170888;34.76;620;03.39.38.954
12884;170895;34.76;621;03.39.38.954
12908;170887;34.76;622;03.39.38.954
12944;170888;34.76;623;03.39.38.954
12920;170889;34.76;624;03.39.38.954
12920;170880;34.76;625;03.39.39.064
12920;170881;34.76;626;03.39.39.064
12944;170880;34.76;627;03.39.39.075
12904;170883;34.76;628;03.39.39.075
12876;170876;34.76;629;03.39.39.075
12908;170875;34.76;630;03.39.39.075
12936;170879;34.76;631;03.39.39.075
12912;170877;34.76;632;03.39.39.075
12936;170879;34.76;633;03.39.39.075
12900;170881;34.76;634;03.39.39.075
12928;170871;34.76;635;03.39.39.075
12908;170880;34.76;636;03.39.39.075
12892;170890;34.76;637;03.39.39.075
12908;170888;34.76;638;03.39.39.075
12912;170895;34.76;639;03.39.39.075
12916;170883;34.76;640;03.39.39.086
12924;170891;34.76;641;03.39.39.086
12908;170891;34.76;642;03.39.39.086
12924;170900;34.76;643;03.39.39.086
12892;170894;34.76;644;03.39.39.086
12900;170895;34.76;645;03.39.39.086
12900;170902;34.76;646;03.39.39.086
12928;170902;34.76;647;03.39.39.086
12916;170916;34.76;648;03.39.39.086
12928;170916;34.76;649;03.39.39.086
12904;170911;34.76;650;03.39.39.185
12928;170911;34.76;651;03.39.39.185
12924;170919;34.76;652;03.39.39.185
12936;170910;34.76;653;03.39.39.185
12928;170924;34.76;654;03.39.39.185
12908;170924;34.76;655;03.39.39.185
12912;170925;34.76;656;03.39.39.185
12920;170923;34.76;657;03.39.39.185
12896;170926;34.76;658;03.39.39.206
12908;170926;34.76;659;03.39.39.206
12916;170929;34.76;660;03.39.39.206
12912;170926;34.76;661;03.39.39.206
12928;170933;34.76;662;03.39.39.206
12948;170930;34.76;663;03.39.39.206
12908;170933;34.76;664;03.39.39.206
12904;170932;34.76;665;03.39.39.206
12928;170927;34.76;666;03.39.39.206
12908;170926;34.76;667;03.39.39.217
12904;170926;34.76;668;03.39.39.217
12908;170926;34.76;669;03.39.39.217
12900;170916;34.76;670;03.39.39.217
12928;170925;34.76;671;03.39.39.217
12916;170916;34.76;672;03.39.39.217
12912;170906;34.76;673;03.39.39.217
12976;170913;34.76;674;03.39.39.217
12944;170918;34.76;675;03.39.39.305
12928;170915;34.76;676;03.39.39.305
12900;170922;34.76;677;03.39.39.305
12944;170914;34.76;678;03.39.39.305
12920;170915;34.76;679;03.39.39.305
12928;170914;34.76;680;03.39.39.305
12928;170917;34.76;681;03.39.39.305
12916;170913;34.76;682;03.39.39.305
12928;170915;34.76;683;03.39.39.316
12916;170913;34.76;684;03.39.39.316
12912;170924;34.76;685;03.39.39.316
12928;170924;34.76;686;03.39.39.316
12916;170916;34.76;687;03.39.39.316
12908;170922;34.76;688;03.39.39.316
12904;170925;34.76;689;03.39.39.316
12924;170930;34.76;690;03.39.39.316
12928;170937;34.76;691;03.39.39.316
12916;170926;34.76;692;03.39.39.316
12896;170926;34.76;693;03.39.39.316
12884;170929;34.76;694;03.39.39.316
12892;170928;34.76;695;03.39.39.316
12884;170928;34.76;696;03.39.39.327
12892;170939;34.76;697;03.39.39.327
12912;170938;34.76;698;03.39.39.327
12908;170933;34.76;699;03.39.39.327
12904;170941;34.76;700;03.39.39.427
12900;170946;34.76;701;03.39.39.427
12920;170954;34.76;702;03.39.39.427
12916;170940;34.76;703;03.39.39.427
12908;170950;34.76;704;03.39.39.427
12896;170953;34.76;705;03.39.39.438
12900;170947;34.76;706;03.39.39.438
12924;170961;34.76;707;03.39.39.438
12908;170960;34.76;708;03.39.39.438
12912;170957;34.76;709;03.39.39.438
12920;170963;34.76;710;03.39.39.438
12916;170966;34.76;711;03.39.39.438
12888;170965;34.76;712;03.39.39.438
12912;170962;34.76;713;03.39.39.438
12924;170975;34.76;714;03.39.39.438
12912;170971;34.76;715;03.39.39.438
12916;170974;34.76;716;03.39.39.438
12876;170981;34.76;717;03.39.39.449
12928;170981;34.76;718;03.39.39.449
12916;170982;34.76;719;03.39.39.449
12924;170988;34.76;720;03.39.39.449
12928;170989;34.76;721;03.39.39.449
12912;170994;34.76;722;03.39.39.449
12916;170987;34.76;723;03.39.39.449
12924;170991;34.76;724;03.39.39.449
12912;170988;34.76;725;03.39.39.569
12928;170999;34.76;726;03.39.39.569
12928;170986;34.76;727;03.39.39.569
12904;170987;34.76;728;03.39.39.569
12912;170971;34.76;729;03.39.39.569
12892;170976;34.76;730;03.39.39.569
12928;170975;34.76;731;03.39.39.569
12912;170972;34.76;732;03.39.39.569
12932;170968;34.76;733;03.39.39.569
12932;170963;34.76;734;03.39.39.569
12928;170953;34.76;735;03.39.39.569
12908;170947;34.76;736;03.39.39.569
12928;170946;34.76;737;03.39.39.569
12932;170941;34.76;738;03.39.39.570
12920;170937;34.76;739;03.39.39.581
12912;170937;34.76;740;03.39.39.581
12908;170928;34.76;741;03.39.39.581
12900;170927;34.76;742;03.39.39.581
12936;170928;34.76;743;03.39.39.581
12916;170926;34.76;744;03.39.39.581
12940;170921;34.76;745;03.39.39.581
12892;170919;34.76;746;03.39.39.581
12900;170916;34.76;747;03.39.39.581
12920;170913;34.76;748;03.39.39.581
12904;170917;34.76;749;03.39.39.581
12908;170919;34.76;750;03.39.39.680
12936;170917;34.76;751;03.39.39.680
12912;170917;34.76;752;03.39.39.680
12912;170917;34.76;753;03.39.39.680
12896;170920;34.76;754;03.39.39.680
12892;170915;34.76;755;03.39.39.680
12900;170909;34.76;756;03.39.39.680
12920;170921;34.76;757;03.39.39.680
12936;170919;34.76;758;03.39.39.701
12928;170921;34.76;759;03.39.39.701
12904;170917;34.76;760;03.39.39.701
12916;170921;34.76;761;03.39.39.701
12924;170921;34.76;762;03.39.39.701
12896;170928;34.76;763;03.39.39.701
12932;170926;34.76;764;03.39.39.701
12904;170938;34.76;765;03.39.39.701
12876;170925;34.76;766;03.39.39.701
12928;170938;34.76;767;03.39.39.701
12912;170941;34.76;768;03.39.39.701
12908;170946;34.76;769;03.39.39.701
12900;170946;34.76;770;03.39.39.712
12928;170953;34.76;771;03.39.39.712
12912;170947;34.76;772;03.39.39.712
12908;170951;34.76;773;03.39.39.712
12920;170950;34.76;774;03.39.39.712
12912;170948;34.76;775;03.39.39.833
12908;170956;34.76;776;03.39.39.833
12884;170949;34.76;777;03.39.39.833
12900;170960;34.76;778;03.39.39.833
12888;170953;34.76;779;03.39.39.833
12892;170962;34.76;780;03.39.39.833
12928;170960;34.76;781;03.39.39.833
12928;170961;34.76;782;03.39.39.833
12924;170966;34.76;783;03.39.39.844
12892;170968;34.76;784;03.39.39.844
12896;170969;34.76;785;03.39.39.844
12912;170963;34.76;786;03.39.39.844
12896;170971;34.76;787;03.39.39.844
12912;170963;34.76;788;03.39.39.844
12892;170959;34.76;789;03.39.39.844
12888;170955;34.76;790;03.39.39.844
12892;170959;34.76;791;03.39.39.844
12908;170956;34.76;792;03.39.39.855
12924;170960;34.76;793;03.39.39.855
12924;170959;34.76;794;03.39.39.855
12892;170957;34.76;795;03.39.39.855
12904;170961;34.76;796;03.39.39.855
12892;170965;34.76;797;03.39.39.855
12916;170954;34.76;798;03.39.39.855
12932;170962;34.76;799;03.39.39.866
12900;170953;34.76;800;03.39.39.921
12920;170953;34.76;801;03.39.39.921
12908;170955;34.76;802;03.39.39.921
12908;170954;34.76;803;03.39.39.921
12912;170960;34.76;804;03.39.39.932
12916;170965;34.76;805;03.39.39.932
12912;170962;34.76;806;03.39.39.932
12916;170977;34.76;807;03.39.39.932
12908;170965;34.76;808;03.39.39.932
12928;170964;34.76;809;03.39.39.932
12892;170973;34.76;810;03.39.39.932
12908;170961;34.76;811;03.39.39.932
12960;170972;34.76;812;03.39.39.932
12900;170970;34.76;813;03.39.39.932
12912;170966;34.76;814;03.39.39.932
12916;170975;34.76;815;03.39.39.932
12928;170973;34.76;816;03.39.39.943
12932;170978;34.76;817;03.39.39.943
12892;170980;34.76;818;03.39.39.943
12908;170978;34.76;819;03.39.39.943
12892;170981;34.76;820;03.39.39.943
12920;170983;34.76;821;03.39.39.943
12908;170988;34.76;822;03.39.39.943
12944;170990;34.76;823;03.39.39.943
12944;170990;34.76;824;03.39.39.943
12920;171002;34.76;825;03.39.40.074
12928;170988;34.76;826;03.39.40.074
12916;170997;34.76;827;03.39.40.074
12892;170994;34.76;828;03.39.40.074
12904;171000;34.76;829;03.39.40.074
12892;171002;34.76;830;03.39.40.074
12908;171009;34.76;831;03.39.40.074
12928;171007;34.76;832;03.39.40.074
12908;170999;34.76;833;03.39.40.074
12932;171008;34.76;834;03.39.40.074
12936;171016;34.76;835;03.39.40.074
12932;171014;34.76;836;03.39.40.074
12928;171022;34.76;837;03.39.40.074
12928;171021;34.76;838;03.39.40.085
12912;171025;34.76;839;03.39.40.085
12916;171018;34.76;840;03.39.40.085
12928;171022;34.76;841;03.39.40.085
12896;171028;34.76;842;03.39.40.085
12936;171024;34.76;843;03.39.40.085
12892;171015;34.76;844;03.39.40.085
12928;171017;34.76;845;03.39.40.085
12892;171005;34.76;846;03.39.40.085
12896;171004;34.76;847;03.39.40.085
12908;170990;34.76;848;03.39.40.085
12908;170992;34.76;849;03.39.40.085
12888;170985;34.76;850;03.39.40.250
12928;170981;34.76;851;03.39.40.250
12920;170977;34.76;852;03.39.40.250
12892;170980;34.76;853;03.39.40.250
12912;170967;34.76;854;03.39.40.250
12928;170959;34.76;855;03.39.40.250
12908;170964;34.76;856;03.39.40.250
12908;170966;34.76;857;03.39.40.250
12888;170963;34.76;858;03.39.40.261
12928;170951;34.76;859;03.39.40.261
12928;170946;34.76;860;03.39.40.261
12892;170949;34.76;861;03.39.40.261
12908;170946;34.76;862;03.39.40.261
12924;170945;34.76;863;03.39.40.261
12912;170941;34.76;864;03.39.40.261
12936;170931;34.76;865;03.39.40.261
12884;170937;34.76;866;03.39.40.261
12916;170941;34.76;867;03.39.40.272
12920;170935;34.76;868;03.39.40.272
12904;170942;34.76;869;03.39.40.272
12924;170932;34.76;870;03.39.40.272
12900;170931;34.76;871;03.39.40.272
12908;170929;34.76;872;03.39.40.272
12904;170933;34.76;873;03.39.40.272
12928;170937;34.76;874;03.39.40.272
12896;170934;34.76;875;03.39.40.305
12932;170929;34.76;876;03.39.40.305
12908;170932;34.76;877;03.39.40.305
12928;170939;34.76;878;03.39.40.305
12920;170934;34.76;879;03.39.40.305
12912;170941;34.76;880;03.39.40.305
12904;170932;34.76;881;03.39.40.316
12920;170938;34.76;882;03.39.40.316
12884;170941;34.76;883;03.39.40.338
12920;170939;34.76;884;03.39.40.338
12928;170941;34.76;885;03.39.40.338
12892;170942;34.76;886;03.39.40.338
12928;170947;34.76;887;03.39.40.338
12920;170953;34.76;888;03.39.40.351
12908;170948;34.76;889;03.39.40.351
12892;170949;34.76;890;03.39.40.351
12916;170957;34.76;891;03.39.40.351
12884;170959;34.76;892;03.39.40.351
12936;170961;34.76;893;03.39.40.351
12912;170958;34.76;894;03.39.40.351
12888;170971;34.76;895;03.39.40.351
12928;170969;34.76;896;03.39.40.351
12916;170969;34.76;897;03.39.40.351
12892;170970;34.76;898;03.39.40.351
12892;170962;34.76;899;03.39.40.351
12936;170971;34.76;900;03.39.40.438
12928;170976;34.76;901;03.39.40.438
12932;170976;34.76;902;03.39.40.438
12912;170965;34.76;903;03.39.40.438
12904;170972;34.76;904;03.39.40.449
12916;170968;34.76;905;03.39.40.449
12912;170974;34.76;906;03.39.40.449
12892;170966;34.76;907;03.39.40.449
12928;170975;34.76;908;03.39.40.449
12896;170969;34.76;909;03.39.40.449
12892;170969;34.76;910;03.39.40.449
12920;170974;34.76;911;03.39.40.449
12928;170968;34.76;912;03.39.40.449
12928;170974;34.76;913;03.39.40.449
12912;170965;34.76;914;03.39.40.449
12908;170971;34.76;915;03.39.40.449
12892;170968;34.76;916;03.39.40.449
12912;170977;34.76;917;03.39.40.471
12940;170970;34.76;918;03.39.40.471
12924;170972;34.76;919;03.39.40.471
12928;170971;34.76;920;03.39.40.471
12892;170971;34.76;921;03.39.40.482
12912;170976;34.76;922;03.39.40.482
12928;170973;34.76;923;03.39.40.482
12928;170977;34.76;924;03.39.40.482
12892;170964;34.76;925;03.39.40.581
12908;170979;34.76;926;03.39.40.581
12908;170975;34.76;927;03.39.40.581
12904;170977;34.76;928;03.39.40.581
12944;170976;34.76;929;03.39.40.581
12896;170978;34.76;930;03.39.40.581
12896;170980;34.76;931;03.39.40.581
12904;170982;34.76;932;03.39.40.581
12908;170981;34.76;933;03.39.40.581
12904;170976;34.76;934;03.39.40.581
12912;170982;34.76;935;03.39.40.581
12928;170986;34.76;936;03.39.40.581
12928;170981;34.76;937;03.39.40.592
12912;170985;34.76;938;03.39.40.592
12908;170981;34.76;939;03.39.40.592
12888;170982;34.76;940;03.39.40.592
12920;170988;34.76;941;03.39.40.592
12908;170995;34.76;942;03.39.40.592
12912;170984;34.76;943;03.39.40.592
12932;170993;34.76;944;03.39.40.592
12912;170993;34.76;945;03.39.40.592
12908;170997;34.76;946;03.39.40.592
12896;171006;34.76;947;03.39.40.592
12928;171002;34.76;948;03.39.40.592
12928;171006;34.76;949;03.39.40.592
12928;171001;34.76;950;03.39.40.701
12928;171020;34.76;951;03.39.40.701
12920;171013;34.76;952;03.39.40.701
12892;171018;34.76;953;03.39.40.701
12892;171012;34.76;954;03.39.40.701
12912;171017;34.76;955;03.39.40.701
12912;171019;34.76;956;03.39.40.701
12892;171019;34.76;957;03.39.40.701
12920;171021;34.76;958;03.39.40.701
12908;171018;34.76;959;03.39.40.701
12876;171021;34.76;960;03.39.40.712
12888;171018;34.76;961;03.39.40.712
12928;171014;34.76;962;03.39.40.712
12900;171002;34.76;963;03.39.40.712
12932;171000;34.76;964;03.39.40.712
12944;171000;34.76;965;03.39.40.712
12912;170999;34.76;966;03.39.40.712
12928;170988;34.76;967;03.39.40.723
12924;170989;34.76;968;03.39.40.723
12928;170979;34.76;969;03.39.40.723
12892;170982;34.76;970;03.39.40.723
12916;170975;34.76;971;03.39.40.723
12920;170968;34.76;972;03.39.40.723
12896;170958;34.76;973;03.39.40.723
12920;170958;34.76;974;03.39.40.723
12896;170950;34.76;975;03.39.40.800
12888;170949;34.76;976;03.39.40.800
12932;170948;34.76;977;03.39.40.800
12892;170948;34.76;978;03.39.40.800
12928;170948;34.76;979;03.39.40.800
12908;170948;34.76;980;03.39.40.800
12884;170937;34.76;981;03.39.40.811
12928;170936;34.76;982;03.39.40.811
12920;170934;34.76;983;03.39.40.811
12904;170924;34.76;984;03.39.40.811
12892;170925;34.76;985;03.39.40.811
12912;170927;34.76;986;03.39.40.811
12924;170927;34.76;987;03.39.40.811
12912;170927;34.76;988;03.39.40.811
12920;170927;34.76;989;03.39.40.811
12904;170925;34.76;990;03.39.40.822
12920;170924;34.76;991;03.39.40.822
12912;170922;34.76;992;03.39.40.844
12928;170922;34.76;993;03.39.40.844
12916;170925;34.76;994;03.39.40.844
12916;170929;34.76;995;03.39.40.844
12900;170927;34.76;996;03.39.40.844
12920;170921;34.76;997;03.39.40.855
12860;170936;34.76;998;03.39.40.855
12936;170926;34.76;999;03.39.40.855
12920;170928;34.76;000;03.39.40.921
12900;170929;34.76;001;03.39.40.932
12908;170926;34.76;002;03.39.40.932
12888;170940;34.76;003;03.39.40.932
12896;170934;34.76;004;03.39.40.932
12928;170930;34.76;005;03.39.40.932
12904;170935;34.76;006;03.39.40.932
12916;170930;34.76;007;03.39.40.932
12896;170936;34.76;008;03.39.40.932
12900;170938;34.76;009;03.39.40.932
12924;170938;34.76;010;03.39.40.932
12920;170934;34.76;011;03.39.40.932
12916;170943;34.76;012;03.39.40.932
12892;170951;34.76;013;03.39.40.932
12904;170941;34.76;014;03.39.40.943
12944;170938;34.76;015;03.39.40.943
12912;170939;34.76;016;03.39.40.943
12892;170933;34.76;017;03.39.40.943
12916;170932;34.76;018;03.39.40.943
12916;170936;34.76;019;03.39.40.943
12900;170939;34.76;020;03.39.40.943
12932;170936;34.76;021;03.39.40.943
12896;170939;34.76;022;03.39.40.943
12936;170941;34.76;023;03.39.40.943
12928;170935;34.76;024;03.39.40.943
12904;170945;34.76;025;03.39.41.063
12912;170938;34.76;026;03.39.41.063
12940;170945;34.76;027;03.39.41.063
12884;170936;34.76;028;03.39.41.063
12916;170941;34.76;029;03.39.41.063
12908;170946;34.76;030;03.39.41.063
12876;170946;34.76;031;03.39.41.063
12928;170940;34.76;032;03.39.41.063
12896;170947;34.76;033;03.39.41.074
12928;170946;34.76;034;03.39.41.074
12920;170951;34.76;035;03.39.41.074
12912;170945;34.76;036;03.39.41.074
12892;170953;34.76;037;03.39.41.074
12916;170935;34.76;038;03.39.41.074
12904;170943;34.76;039;03.39.41.074
12876;170944;34.76;040;03.39.41.074
12896;170949;34.76;041;03.39.41.074
12904;170957;34.76;042;03.39.41.074
12928;170960;34.76;043;03.39.41.074
12908;170960;34.76;044;03.39.41.074
12892;170964;34.76;045;03.39.41.086
12900;170958;34.76;046;03.39.41.086
12908;170955;34.76;047;03.39.41.086
12916;170952;34.76;048;03.39.41.086
12888;170955;34.76;049;03.39.41.086
12900;170955;34.76;050;03.39.41.196
12884;170957;34.76;051;03.39.41.196
12916;170957;34.76;052;03.39.41.196
12904;170960;34.76;053;03.39.41.196
12904;170961;34.76;054;03.39.41.196
12908;170966;34.76;055;03.39.41.196
12900;170973;34.76;056;03.39.41.196
12904;170975;34.76;057;03.39.41.196
12884;170968;34.76;058;03.39.41.207
12920;170977;34.76;059;03.39.41.207
12908;170979;34.76;060;03.39.41.207
12896;170980;34.76;061;03.39.41.207
12928;170980;34.76;062;03.39.41.207
12920;170977;34.76;063;03.39.41.207
12900;170982;34.76;064;03.39.41.207
12876;170994;34.76;065;03.39.41.207
12888;170989;34.76;066;03.39.41.207
12904;170991;34.76;067;03.39.41.207
12896;170985;34.76;068;03.39.41.207
12928;171000;34.76;069;03.39.41.207
12916;171001;34.76;070;03.39.41.207
12888;170993;34.76;071;03.39.41.218
12912;171001;34.76;072;03.39.41.218
12912;171006;34.76;073;03.39.41.218
12928;171003;34.76;074;03.39.41.218
12912;171000;34.76;075;03.39.41.328
12892;170991;34.76;076;03.39.41.328
12912;170995;34.76;077;03.39.41.328
12904;170992;34.76;078;03.39.41.328
12928;170986;34.76;079;03.39.41.328
12928;170995;34.76;080;03.39.41.339
12892;170991;34.76;081;03.39.41.339
12908;170984;34.76;082;03.39.41.339
12928;170982;34.76;083;03.39.41.339
12892;170978;34.76;084;03.39.41.339
12928;170975;34.76;085;03.39.41.339
12916;170960;34.76;086;03.39.41.339
12896;170958;34.76;087;03.39.41.339
12908;170961;34.76;088;03.39.41.339
12880;170959;34.76;089;03.39.41.339
12920;170940;34.76;090;03.39.41.339
12932;170940;34.76;091;03.39.41.339
12924;170947;34.76;092;03.39.41.339
12900;170938;34.76;093;03.39.41.350
12900;170939;34.76;094;03.39.41.350
12884;170934;34.76;095;03.39.41.350
12924;170930;34.76;096;03.39.41.350
12912;170927;34.76;097;03.39.41.350
12920;170924;34.76;098;03.39.41.350
12908;170924;34.76;099;03.39.41.350
12916;170918;34.76;100;03.39.41.427
12900;170921;34.76;101;03.39.41.427
12904;170912;34.76;102;03.39.41.437
12916;170914;34.76;103;03.39.41.437
12936;170920;34.76;104;03.39.41.437
12892;170909;34.76;105;03.39.41.437
12904;170909;34.76;106;03.39.41.437
12908;170911;34.76;107;03.39.41.437
12892;170912;34.76;108;03.39.41.437
12912;170921;34.76;109;03.39.41.437
12880;170911;34.76;110;03.39.41.437
12892;170916;34.76;111;03.39.41.437
12928;170924;34.76;112;03.39.41.437
12908;170911;34.76;113;03.39.41.437
12932;170919;34.76;114;03.39.41.448
12900;170923;34.76;115;03.39.41.448
12900;170915;34.76;116;03.39.41.448
12892;170921;34.76;117;03.39.41.448
12916;170930;34.76;118;03.39.41.448
12904;170926;34.76;119;03.39.41.448
12912;170933;34.76;120;03.39.41.448
12880;170937;34.76;121;03.39.41.448
12908;170926;34.76;122;03.39.41.448
12912;170933;34.76;123;03.39.41.448
12960;170936;34.76;124;03.39.41.448
12900;170936;34.76;125;03.39.41.580
12920;170942;34.76;126;03.39.41.580
12916;170943;34.76;127;03.39.41.580
12920;170937;34.76;128;03.39.41.580
12900;170938;34.76;129;03.39.41.580
12928;170938;34.76;130;03.39.41.580
12920;170945;34.76;131;03.39.41.580
12892;170942;34.76;132;03.39.41.580
12916;170949;34.76;133;03.39.41.602
12932;170944;34.76;134;03.39.41.602
12904;170946;34.76;135;03.39.41.602
12904;170948;34.76;136;03.39.41.602
12920;170948;34.76;137;03.39.41.602
12916;170942;34.76;138;03.39.41.602
12944;170939;34.76;139;03.39.41.602
12904;170935;34.76;140;03.39.41.602
12888;170937;34.76;141;03.39.41.602
12892;170935;34.76;142;03.39.41.624
12924;170938;34.76;143;03.39.41.624
12884;170946;34.76;144;03.39.41.624
12928;170935;34.76;145;03.39.41.624
12896;170944;34.76;146;03.39.41.624
12908;170953;34.76;147;03.39.41.624
12892;170948;34.76;148;03.39.41.624
12920;170944;34.76;149;03.39.41.624
12892;170943;34.76;150;03.39.41.690
12860;170940;34.76;151;03.39.41.690
12896;170943;34.76;152;03.39.41.690
12892;170945;34.76;153;03.39.41.690
12912;170951;34.76;154;03.39.41.690
12904;170953;34.76;155;03.39.41.690
12928;170946;34.76;156;03.39.41.690
12868;170947;34.76;157;03.39.41.701
12928;170948;34.76;158;03.39.41.701
12892;170952;34.76;159;03.39.41.701
12888;170948;34.76;160;03.39.41.701
12912;170947;34.76;161;03.39.41.701
12916;170950;34.76;162;03.39.41.701
12916;170951;34.76;163;03.39.41.701
12936;170955;34.76;164;03.39.41.701
12900;170958;34.76;165;03.39.41.701
12888;170962;34.76;166;03.39.41.701
12928;170958;34.76;167;03.39.41.701
12908;170954;34.76;168;03.39.41.701
12892;170955;34.76;169;03.39.41.701
12876;170963;34.76;170;03.39.41.712
12896;170966;34.76;171;03.39.41.712
12928;170957;34.76;172;03.39.41.712
12912;170962;34.76;173;03.39.41.712
12944;170968;34.76;174;03.39.41.712
12892;170974;34.76;175;03.39.41.821
12892;170970;34.76;176;03.39.41.821
12884;170973;34.76;177;03.39.41.821
12944;170974;34.76;178;03.39.41.832
12952;170973;34.76;179;03.39.41.832
12912;170979;34.76;180;03.39.41.832
12908;170979;34.76;181;03.39.41.832
12908;170979;34.76;182;03.39.41.832
12908;170980;34.76;183;03.39.41.832
12904;170987;34.76;184;03.39.41.832
12888;170988;34.76;185;03.39.41.832
12912;170991;34.76;186;03.39.41.832
12920;170994;34.76;187;03.39.41.832
12928;170997;34.76;188;03.39.41.832
12912;170995;34.76;189;03.39.41.832
12884;170990;34.76;190;03.39.41.832
12928;171001;34.76;191;03.39.41.843
12912;170998;34.76;192;03.39.41.843
12896;170999;34.76;193;03.39.41.843
12932;170994;34.76;194;03.39.41.843
12928;170998;34.76;195;03.39.41.843
12920;171000;34.76;196;03.39.41.843
12920;170988;34.76;197;03.39.41.843
12928;170985;34.76;198;03.39.41.843
12912;170984;34.76;199;03.39.41.843
12916;170976;34.76;200;03.39.41.931
12896;170971;34.76;201;03.39.41.931
12888;170971;34.76;202;03.39.41.931
12912;170968;34.76;203;03.39.41.931
12904;170963;34.76;204;03.39.41.931
12916;170953;34.76;205;03.39.41.931
12928;170959;34.76;206;03.39.41.931
12916;170950;34.76;207;03.39.41.931
12904;170945;34.76;208;03.39.41.931
12892;170944;34.76;209;03.39.41.931
12904;170945;34.76;210;03.39.41.931
12928;170938;34.76;211;03.39.41.931
12896;170938;34.76;212;03.39.41.942
12900;170935;34.76;213;03.39.41.942
12912;170932;34.76;214;03.39.41.942
12924;170935;34.76;215;03.39.41.942
12896;170928;34.76;216;03.39.41.942
12900;170937;34.76;217;03.39.41.942
12932;170926;34.76;218;03.39.41.942
12932;170931;34.76;219;03.39.41.942
12908;170924;34.76;220;03.39.41.942
12884;170931;34.76;221;03.39.41.942
12896;170936;34.76;222;03.39.41.942
12904;170924;34.76;223;03.39.41.942
12912;170929;34.76;224;03.39.41.942
12900;170938;34.76;225;03.39.42.052
12900;170932;34.76;226;03.39.42.052
12904;170935;34.76;227;03.39.42.052
12892;170925;34.76;228;03.39.42.052
12928;170940;34.76;229;03.39.42.052
12916;170934;34.76;230;03.39.42.052
12912;170938;34.76;231;03.39.42.052
12904;170936;34.76;232;03.39.42.052
12912;170946;34.76;233;03.39.42.063
12892;170948;34.76;234;03.39.42.063
12920;170953;34.76;235;03.39.42.063
12912;170949;34.76;236;03.39.42.063
12888;170954;34.76;237;03.39.42.063
12916;170952;34.76;238;03.39.42.063
12928;170957;34.76;239;03.39.42.063
12928;170960;34.76;240;03.39.42.063
12928;170963;34.76;241;03.39.42.063
12892;170960;34.76;242;03.39.42.063
12928;170965;34.76;243;03.39.42.063
12900;170967;34.76;244;03.39.42.074
12908;170965;34.76;245;03.39.42.074
12892;170956;34.76;246;03.39.42.074
12892;170961;34.76;247;03.39.42.074
12896;170968;34.76;248;03.39.42.074
12904;170966;34.76;249;03.39.42.074
12896;170961;34.76;250;03.39.42.194
12944;170962;34.76;251;03.39.42.194
12900;170969;34.76;252;03.39.42.194
12928;170972;34.76;253;03.39.42.194
12928;170973;34.76;254;03.39.42.194
12920;170970;34.76;255;03.39.42.205
12920;170958;34.76;256;03.39.42.205
12920;170966;34.76;257;03.39.42.205
12932;170957;34.76;258;03.39.42.205
12908;170959;34.76;259;03.39.42.205
12896;170961;34.76;260;03.39.42.205
12916;170974;34.76;261;03.39.42.205
12908;170964;34.76;262;03.39.42.205
12924;170966;34.76;263;03.39.42.205
12904;170960;34.76;264;03.39.42.205
12892;170958;34.76;265;03.39.42.205
12904;170961;34.76;266;03.39.42.205
12932;170966;34.76;267;03.39.42.227
12916;170968;34.76;268;03.39.42.227
12900;170964;34.76;269;03.39.42.227
12900;170963;34.76;270;03.39.42.227
12936;170970;34.76;271;03.39.42.227
12884;170975;34.76;272;03.39.42.238
12908;170968;34.76;273;03.39.42.238
12928;170974;34.76;274;03.39.42.238
12920;170972;34.76;275;03.39.42.325
12896;170970;34.76;276;03.39.42.325
12904;170976;34.76;277;03.39.42.325
12908;170974;34.76;278;03.39.42.325
12944;170978;34.76;279;03.39.42.325
12892;170977;34.76;280;03.39.42.325
12908;170981;34.76;281;03.39.42.325
12916;170988;34.76;282;03.39.42.325
12916;170979;34.76;283;03.39.42.325
12884;170985;34.76;284;03.39.42.325
12892;170989;34.76;285;03.39.42.325
12928;170987;34.76;286;03.39.42.325
12892;170998;34.76;287;03.39.42.325
12916;170988;34.76;288;03.39.42.336
12928;170989;34.76;289;03.39.42.336
12932;170989;34.76;290;03.39.42.336
12888;170998;34.76;291;03.39.42.336
12912;170998;34.76;292;03.39.42.336
12892;170991;34.76;293;03.39.42.336
12892;171000;34.76;294;03.39.42.336
12920;171002;34.76;295;03.39.42.336
12896;170999;34.76;296;03.39.42.336
12928;171002;34.76;297;03.39.42.336
12916;171011;34.76;298;03.39.42.336
12904;171014;34.76;299;03.39.42.336
12924;171013;34.76;300;03.39.42.434
12908;171008;34.76;301;03.39.42.434
12908;171017;34.76;302;03.39.42.434
12916;171012;34.76;303;03.39.42.434
12928;171020;34.76;304;03.39.42.434
12904;171024;34.76;305;03.39.42.434
12904;171016;34.76;306;03.39.42.434
12904;171024;34.76;307;03.39.42.434
12928;171028;34.76;308;03.39.42.456
12908;171025;34.76;309;03.39.42.456
12900;171026;34.76;310;03.39.42.456
12892;171030;34.76;311;03.39.42.456
12928;171026;34.76;312;03.39.42.456
12928;171019;34.76;313;03.39.42.456
12888;171021;34.76;314;03.39.42.456
12904;171022;34.76;315;03.39.42.456
12928;171015;34.76;316;03.39.42.456
12904;171001;34.76;317;03.39.42.467
12924;171004;34.76;318;03.39.42.467
12916;171002;34.76;319;03.39.42.467
12924;171001;34.76;320;03.39.42.467
12908;170989;34.76;321;03.39.42.467
12888;170995;34.76;322;03.39.42.467
12904;170991;34.76;323;03.39.42.467
12952;170986;34.76;324;03.39.42.467
12928;170985;34.76;325;03.39.42.555
12912;170977;34.76;326;03.39.42.555
12912;170979;34.76;327;03.39.42.555
12916;170961;34.76;328;03.39.42.555
12936;170962;34.76;329;03.39.42.555
12888;170955;34.76;330;03.39.42.555
12916;170958;34.76;331;03.39.42.555
12944;170960;34.76;332;03.39.42.567
12932;170953;34.76;333;03.39.42.567
12936;170950;34.76;334;03.39.42.567
12928;170953;34.76;335;03.39.42.567
12936;170956;34.76;336;03.39.42.567
12912;170947;34.76;337;03.39.42.567
12932;170956;34.76;338;03.39.42.567
12892;170956;34.76;339;03.39.42.567
12904;170952;34.76;340;03.39.42.567
12900;170950;34.76;341;03.39.42.567
12912;170960;34.76;342;03.39.42.567
12924;170958;34.76;343;03.39.42.567
12928;170964;34.76;344;03.39.42.567
12900;170955;34.76;345;03.39.42.578
12904;170950;34.76;346;03.39.42.578
12928;170962;34.76;347;03.39.42.578
12908;170958;34.76;348;03.39.42.578
12920;170965;34.76;349;03.39.42.578
12892;170966;34.76;350;03.39.42.676
12908;170969;34.76;351;03.39.42.676
12920;170972;34.76;352;03.39.42.676
12944;170970;34.76;353;03.39.42.687
12928;170977;34.76;354;03.39.42.687
12944;170987;34.76;355;03.39.42.687
12908;170988;34.76;356;03.39.42.687
12920;170978;34.76;357;03.39.42.687
12892;170987;34.76;358;03.39.42.687
12904;170983;34.76;359;03.39.42.687
12884;170983;34.76;360;03.39.42.687
12908;170985;34.76;361;03.39.42.687
12904;170988;34.76;362;03.39.42.687
12896;170989;34.76;363;03.39.42.687
12908;170996;34.76;364;03.39.42.687
12888;170999;34.76;365;03.39.42.687
12920;170993;34.76;366;03.39.42.698
12904;170987;34.76;367;03.39.42.698
12900;170992;34.76;368;03.39.42.698
12892;170993;34.76;369;03.39.42.698
12904;170989;34.76;370;03.39.42.698
12908;170986;34.76;371;03.39.42.698
12896;170990;34.76;372;03.39.42.698
12904;170990;34.76;373;03.39.42.698
12908;170991;34.76;374;03.39.42.698
12916;170982;34.76;375;03.39.42.808
12940;170988;34.76;376;03.39.42.808
12884;170981;34.76;377;03.39.42.808
12920;170988;34.76;378;03.39.42.808
12920;170994;34.76;379;03.39.42.808
12928;170989;34.76;380;03.39.42.808
12912;170992;34.76;381;03.39.42.808
12928;170993;34.76;382;03.39.42.808
12916;170989;34.76;383;03.39.42.808
12908;170989;34.76;384;03.39.42.808
12908;170979;34.76;385;03.39.42.808
12936;170985;34.76;386;03.39.42.819
12904;170989;34.76;387;03.39.42.819
12904;170985;34.76;388;03.39.42.819
12912;170985;34.76;389;03.39.42.819
12888;170992;34.76;390;03.39.42.819
12932;170992;34.76;391;03.39.42.819
12928;171003;34.76;392;03.39.42.819
12884;170999;34.76;393;03.39.42.819
12892;170990;34.76;394;03.39.42.819
12924;170990;34.76;395;03.39.42.819
12900;170998;34.76;396;03.39.42.819
12896;170997;34.76;397;03.39.42.819
12892;171003;34.76;398;03.39.42.819
12928;170998;34.76;399;03.39.42.830
12904;171002;34.76;400;03.39.42.950
12912;171004;34.76;401;03.39.42.950
12924;171006;34.76;402;03.39.42.950
12916;171006;34.76;403;03.39.42.950
12916;171003;34.76;404;03.39.42.950
12900;171006;34.76;405;03.39.42.950
12912;171005;34.76;406;03.39.42.950
12908;171014;34.76;407;03.39.42.950
12908;171005;34.76;408;03.39.42.950
12892;171016;34.76;409;03.39.42.961
12900;171009;34.76;410;03.39.42.961
12908;171019;34.76;411;03.39.42.961
12944;171016;34.76;412;03.39.42.961
12928;171022;34.76;413;03.39.42.961
12928;171021;34.76;414;03.39.42.961
12892;171016;34.76;415;03.39.42.961
12908;171022;34.76;416;03.39.42.961
12904;171029;34.76;417;03.39.42.961
12928;171029;34.76;418;03.39.42.961
12860;171030;34.76;419;03.39.42.961
12920;171028;34.76;420;03.39.42.961
12900;171032;34.76;421;03.39.42.972
12900;171040;34.76;422;03.39.42.972
12908;171041;34.76;423;03.39.42.972
12908;171042;34.76;424;03.39.42.972
12920;171034;34.76;425;03.39.43.049
12888;171030;34.76;426;03.39.43.049
12924;171044;34.76;427;03.39.43.049
12928;171043;34.76;428;03.39.43.049
12928;171044;34.76;429;03.39.43.049
12944;171038;34.76;430;03.39.43.060
12872;171032;34.76;431;03.39.43.060
12916;171034;34.76;432;03.39.43.060
12924;171030;34.76;433;03.39.43.060
12920;171020;34.76;434;03.39.43.060
12932;171021;34.76;435;03.39.43.060
12912;171017;34.76;436;03.39.43.060
12896;171012;34.76;437;03.39.43.060
12928;171015;34.76;438;03.39.43.060
12908;170998;34.76;439;03.39.43.060
12932;170991;34.76;440;03.39.43.060
12892;170984;34.76;441;03.39.43.060
12916;170983;34.76;442;03.39.43.060
12912;170981;34.76;443;03.39.43.071
12904;170968;34.76;444;03.39.43.071
12916;170970;34.76;445;03.39.43.071
12904;170967;34.76;446;03.39.43.071
12892;170972;34.76;447;03.39.43.071
12880;170969;34.76;448;03.39.43.071
12908;170969;34.76;449;03.39.43.071
12912;170961;34.76;450;03.39.43.181
12892;170969;34.76;451;03.39.43.192
12928;170961;34.76;452;03.39.43.192
12920;170966;34.76;453;03.39.43.192
12912;170967;34.76;454;03.39.43.192
12912;170975;34.76;455;03.39.43.192
12944;170965;34.76;456;03.39.43.192
12944;170971;34.76;457;03.39.43.192
12908;170963;34.76;458;03.39.43.192
12932;170968;34.76;459;03.39.43.192
12904;170965;34.76;460;03.39.43.192
12892;170970;34.76;461;03.39.43.192
12908;170967;34.76;462;03.39.43.192
12916;170968;34.76;463;03.39.43.192
12928;170971;34.76;464;03.39.43.203
12904;170971;34.76;465;03.39.43.203
12932;170970;34.76;466;03.39.43.203
12936;170969;34.76;467;03.39.43.203
12924;170963;34.76;468;03.39.43.203
12928;170976;34.76;469;03.39.43.203
12908;170962;34.76;470;03.39.43.203
12920;170972;34.76;471;03.39.43.203
12928;170979;34.76;472;03.39.43.203
12928;170979;34.76;473;03.39.43.203
12928;170976;34.76;474;03.39.43.203
12912;170981;34.76;475;03.39.43.321
12896;170977;34.76;476;03.39.43.321
12928;170974;34.76;477;03.39.43.321
12908;170987;34.76;478;03.39.43.321
12900;170990;34.76;479;03.39.43.321
12908;170982;34.76;480;03.39.43.321
12888;170986;34.76;481;03.39.43.321
12924;170987;34.76;482;03.39.43.321
12936;170993;34.76;483;03.39.43.332
12916;170990;34.76;484;03.39.43.332
12928;170987;34.76;485;03.39.43.332
12924;170992;34.76;486;03.39.43.332
12916;170984;34.76;487;03.39.43.332
12892;170984;34.76;488;03.39.43.332
12904;170985;34.76;489;03.39.43.332
12928;170978;34.76;490;03.39.43.332
12896;170984;34.76;491;03.39.43.332
12896;170986;34.76;492;03.39.43.343
12944;170980;34.76;493;03.39.43.343
12896;170984;34.76;494;03.39.43.343
12916;170979;34.76;495;03.39.43.343
12908;170977;34.76;496;03.39.43.343
12920;170976;34.76;497;03.39.43.343
12908;170977;34.76;498;03.39.43.343
12936;170976;34.76;499;03.39.43.343
12916;170970;34.76;500;03.39.43.431
12892;170972;34.76;501;03.39.43.431
12908;170977;34.76;502;03.39.43.431
12912;170969;34.76;503;03.39.43.431
12892;170973;34.76;504;03.39.43.431
12908;170976;34.76;505;03.39.43.442
12892;170982;34.76;506;03.39.43.442
12908;170972;34.76;507;03.39.43.442
12912;170976;34.76;508;03.39.43.464
12920;170987;34.76;509;03.39.43.464
12916;170991;34.76;510;03.39.43.464
12904;170983;34.76;511;03.39.43.464
12920;170978;34.76;512;03.39.43.464
12936;170977;34.76;513;03.39.43.475
12908;170987;34.76;514;03.39.43.475
12944;170980;34.76;515;03.39.43.475
12928;170977;34.76;516;03.39.43.475
12888;170984;34.76;517;03.39.43.475
12924;170983;34.76;518;03.39.43.475
12908;170989;34.76;519;03.39.43.475
12884;170983;34.76;520;03.39.43.475
12928;170983;34.76;521;03.39.43.475
12916;170993;34.76;522;03.39.43.475
12908;170990;34.76;523;03.39.43.475
12936;170994;34.76;524;03.39.43.475
12936;171002;34.76;525;03.39.43.563
12916;171002;34.76;526;03.39.43.563
12900;170989;34.76;527;03.39.43.563
12884;170996;34.76;528;03.39.43.563
12908;170998;34.76;529;03.39.43.563
12924;171007;34.76;530;03.39.43.563
12908;171004;34.76;531;03.39.43.563
12928;171004;34.76;532;03.39.43.563
12900;171000;34.76;533;03.39.43.563
12936;171002;34.76;534;03.39.43.563
12908;171007;34.76;535;03.39.43.574
12944;171002;34.76;536;03.39.43.574
12928;171007;34.76;537;03.39.43.574
12924;171003;34.76;538;03.39.43.574
12892;171011;34.76;539;03.39.43.574
12904;171011;34.76;540;03.39.43.574
12920;171011;34.76;541;03.39.43.574
12896;171007;34.76;542;03.39.43.596
12912;171008;34.76;543;03.39.43.596
12900;171003;34.76;544;03.39.43.596
12928;170998;34.76;545;03.39.43.596
12904;170999;34.76;546;03.39.43.596
12896;170992;34.76;547;03.39.43.596
12908;170985;34.76;548;03.39.43.596
12944;170990;34.76;549;03.39.43.596
12924;170981;34.76;550;03.39.43.683
12944;170975;34.76;551;03.39.43.683
12904;170974;34.76;552;03.39.43.683
12908;170964;34.76;553;03.39.43.683
12908;170958;34.76;554;03.39.43.683
12932;170949;34.76;555;03.39.43.683
12924;170951;34.76;556;03.39.43.683
12924;170948;34.76;557;03.39.43.683
12908;170938;34.76;558;03.39.43.683
12916;170943;34.76;559;03.39.43.683
12904;170938;34.76;560;03.39.43.694
12908;170932;34.76;561;03.39.43.694
12936;170937;34.76;562;03.39.43.694
12896;170924;34.76;563;03.39.43.694
12924;170929;34.76;564;03.39.43.694
12936;170927;34.76;565;03.39.43.694
12928;170927;34.76;566;03.39.43.694
12928;170916;34.76;567;03.39.43.694
12900;170915;34.76;568;03.39.43.694
12892;170923;34.76;569;03.39.43.694
12940;170917;34.76;570;03.39.43.694
12928;170917;34.76;571;03.39.43.705
12916;170913;34.76;572;03.39.43.705
12924;170914;34.76;573;03.39.43.705
12892;170917;34.76;574;03.39.43.705
12920;170909;34.76;575;03.39.43.814
12936;170915;34.76;576;03.39.43.814
12908;170919;34.76;577;03.39.43.814
12884;170911;34.76;578;03.39.43.814
12928;170916;34.76;579;03.39.43.825
12928;170915;34.76;580;03.39.43.825
12916;170928;34.76;581;03.39.43.825
12904;170922;34.76;582;03.39.43.825
12904;170920;34.76;583;03.39.43.825
12932;170914;34.76;584;03.39.43.825
12888;170919;34.76;585;03.39.43.825
12944;170917;34.76;586;03.39.43.825
12896;170926;34.76;587;03.39.43.825
12928;170922;34.76;588;03.39.43.825
12892;170925;34.76;589;03.39.43.825
12936;170925;34.76;590;03.39.43.825
12908;170929;34.76;591;03.39.43.825
12904;170932;34.76;592;03.39.43.825
12928;170930;34.76;593;03.39.43.836
12928;170924;34.76;594;03.39.43.836
12916;170925;34.76;595;03.39.43.836
12932;170925;34.76;596;03.39.43.836
12920;170934;34.76;597;03.39.43.836
12892;170930;34.76;598;03.39.43.836
12960;170933;34.76;599;03.39.43.836
12928;170924;34.76;600;03.39.43.945
12892;170928;34.76;601;03.39.43.945
12908;170932;34.76;602;03.39.43.945
12940;170927;34.76;603;03.39.43.945
12928;170925;34.76;604;03.39.43.945
12908;170924;34.76;605;03.39.43.945
12928;170931;34.76;606;03.39.43.945
12928;170927;34.76;607;03.39.43.945
12896;170928;34.76;608;03.39.43.978
12920;170930;34.76;609;03.39.43.978
12912;170928;34.76;610;03.39.43.978
12920;170926;34.76;611;03.39.43.978
12928;170929;34.76;612;03.39.43.978
12900;170930;34.76;613;03.39.43.978
12908;170922;34.76;614;03.39.43.978
12904;170916;34.76;615;03.39.43.978
12912;170919;34.76;616;03.39.43.978
12928;170923;34.76;617;03.39.44.000
12928;170923;34.76;618;03.39.44.000
12904;170921;34.76;619;03.39.44.000
12928;170925;34.76;620;03.39.44.000
12944;170921;34.76;621;03.39.44.000
12928;170917;34.76;622;03.39.44.000
12908;170925;34.76;623;03.39.44.000
12924;170923;34.76;624;03.39.44.000
12912;170924;34.76;625;03.39.44.055
12900;170934;34.76;626;03.39.44.055
12928;170930;34.76;627;03.39.44.055
12908;170925;34.76;628;03.39.44.055
12892;170922;34.76;629;03.39.44.055
12872;170933;34.76;630;03.39.44.055
12916;170931;34.76;631;03.39.44.055
12892;170930;34.76;632;03.39.44.055
12892;170927;34.76;633;03.39.44.055
12912;170929;34.76;634;03.39.44.055
12936;170930;34.76;635;03.39.44.055
12912;170937;34.76;636;03.39.44.066
12884;170929;34.76;637;03.39.44.066
12912;170936;34.76;638;03.39.44.066
12920;170929;34.76;639;03.39.44.066
12924;170931;34.76;640;03.39.44.066
12900;170933;34.76;641;03.39.44.066
12920;170943;34.76;642;03.39.44.088
12924;170944;34.76;643;03.39.44.088
12892;170940;34.76;644;03.39.44.088
12920;170945;34.76;645;03.39.44.088
12908;170956;34.76;646;03.39.44.088
12920;170948;34.76;647;03.39.44.088
12892;170947;34.76;648;03.39.44.088
12936;170944;34.76;649;03.39.44.088
12928;170944;34.76;650;03.39.44.174
12916;170949;34.76;651;03.39.44.174
12900;170953;34.76;652;03.39.44.174
12896;170954;34.76;653;03.39.44.174
12928;170944;34.76;654;03.39.44.174
12908;170947;34.76;655;03.39.44.174
12912;170942;34.76;656;03.39.44.175
12932;170954;34.76;657;03.39.44.187
12948;170954;34.76;658;03.39.44.187
12912;170949;34.76;659;03.39.44.187
12912;170952;34.76;660;03.39.44.187
12928;170944;34.76;661;03.39.44.187
12944;170940;34.76;662;03.39.44.187
12916;170937;34.76;663;03.39.44.187
12880;170939;34.76;664;03.39.44.187
12920;170931;34.76;665;03.39.44.187
12924;170927;34.76;666;03.39.44.187
12928;170922;34.76;667;03.39.44.187
12916;170915;34.76;668;03.39.44.187
12896;170911;34.76;669;03.39.44.187
12932;170908;34.76;670;03.39.44.187
12912;170904;34.76;671;03.39.44.198
12896;170890;34.76;672;03.39.44.198
12916;170885;34.76;673;03.39.44.198
12924;170892;34.76;674;03.39.44.198
12920;170883;34.76;675;03.39.44.308
12936;170877;34.76;676;03.39.44.308
12892;170878;34.76;677;03.39.44.308
12908;170878;34.76;678;03.39.44.319
12924;170870;34.76;679;03.39.44.319
12944;170866;34.76;680;03.39.44.319
12928;170868;34.76;681;03.39.44.319
12916;170875;34.76;682;03.39.44.319
12924;170865;34.76;683;03.39.44.319
12928;170871;34.76;684;03.39.44.319
12928;170868;34.76;685;03.39.44.319
12920;170874;34.76;686;03.39.44.319
12908;170866;34.76;687;03.39.44.319
12932;170865;34.76;688;03.39.44.319
12936;170872;34.76;689;03.39.44.319
12912;170865;34.76;690;03.39.44.319
12928;170874;34.76;691;03.39.44.330
12928;170866;34.76;692;03.39.44.330
12900;170870;34.76;693;03.39.44.330
12908;170875;34.76;694;03.39.44.330
12908;170872;34.76;695;03.39.44.330
12904;170871;34.76;696;03.39.44.330
12928;170873;34.76;697;03.39.44.330
12892;170875;34.76;698;03.39.44.330
12936;170880;34.76;699;03.39.44.330
12924;170873;34.76;700;03.39.44.471
12908;170887;34.76;701;03.39.44.471
12912;170887;34.76;702;03.39.44.471
12916;170884;34.76;703;03.39.44.471
12908;170885;34.76;704;03.39.44.471
12908;170884;34.76;705;03.39.44.471
12904;170882;34.76;706;03.39.44.471
12928;170888;34.76;707;03.39.44.471
12892;170888;34.76;708;03.39.44.482
12904;170887;34.76;709;03.39.44.482
12896;170890;34.76;710;03.39.44.482
12916;170891;34.76;711;03.39.44.482
12936;170887;34.76;712;03.39.44.482
12912;170892;34.76;713;03.39.44.482
12892;170895;34.76;714;03.39.44.482
12920;170892;34.76;715;03.39.44.482
12896;170890;34.76;716;03.39.44.482
12912;170889;34.76;717;03.39.44.482
12916;170891;34.76;718;03.39.44.493
12924;170889;34.76;719;03.39.44.493
12928;170894;34.76;720;03.39.44.493
12888;170888;34.76;721;03.39.44.493
12924;170895;34.76;722;03.39.44.493
12920;170887;34.76;723;03.39.44.493
12936;170885;34.76;724;03.39.44.493
12888;170892;34.76;725;03.39.44.559
12892;170886;34.76;726;03.39.44.559
12900;170891;34.76;727;03.39.44.559
12900;170885;34.76;728;03.39.44.559
12912;170891;34.76;729;03.39.44.559
12892;170891;34.76;730;03.39.44.559
12920;170884;34.76;731;03.39.44.559
12892;170886;34.76;732;03.39.44.559
12908;170894;34.76;733;03.39.44.581
12920;170886;34.76;734;03.39.44.581
12904;170892;34.76;735;03.39.44.581
12928;170884;34.76;736;03.39.44.581
12920;170894;34.76;737;03.39.44.581
12928;170896;34.76;738;03.39.44.581
12916;170896;34.76;739;03.39.44.581
12928;170896;34.76;740;03.39.44.592
12904;170895;34.76;741;03.39.44.592
12908;170901;34.76;742;03.39.44.592
12904;170903;34.76;743;03.39.44.592
12920;170909;34.76;744;03.39.44.592
12896;170907;34.76;745;03.39.44.592
12892;170908;34.76;746;03.39.44.592
12924;170908;34.76;747;03.39.44.592
12904;170911;34.76;748;03.39.44.592
12888;170903;34.76;749;03.39.44.592
12892;170913;34.76;750;03.39.44.679
12892;170906;34.76;751;03.39.44.679
12888;170898;34.76;752;03.39.44.679
12928;170906;34.76;753;03.39.44.690
12924;170908;34.76;754;03.39.44.690
12900;170910;34.76;755;03.39.44.690
12880;170908;34.76;756;03.39.44.690
12936;170918;34.76;757;03.39.44.690
12868;170914;34.76;758;03.39.44.690
12900;170918;34.76;759;03.39.44.690
12896;170914;34.76;760;03.39.44.690
12860;170907;34.76;761;03.39.44.690
12912;170913;34.76;762;03.39.44.690
12916;170912;34.76;763;03.39.44.690
12884;170910;34.76;764;03.39.44.690
12928;170912;34.76;765;03.39.44.690
12908;170923;34.76;766;03.39.44.701
12908;170916;34.76;767;03.39.44.712
12920;170925;34.76;768;03.39.44.712
12912;170918;34.76;769;03.39.44.712
12900;170912;34.76;770;03.39.44.723
12908;170917;34.76;771;03.39.44.723
12920;170911;34.76;772;03.39.44.723
12888;170912;34.76;773;03.39.44.723
12920;170908;34.76;774;03.39.44.723
12928;170908;34.76;775;03.39.44.810
12916;170898;34.76;776;03.39.44.810
12920;170899;34.76;777;03.39.44.810
12892;170893;34.76;778;03.39.44.810
12928;170893;34.76;779;03.39.44.810
12908;170878;34.76;780;03.39.44.810
12888;170880;34.76;781;03.39.44.810
12924;170873;34.76;782;03.39.44.810
12948;170865;34.76;783;03.39.44.821
12920;170860;34.76;784;03.39.44.821
12928;170857;34.76;785;03.39.44.821
12928;170851;34.76;786;03.39.44.821
12892;170853;34.76;787;03.39.44.821
12912;170846;34.76;788;03.39.44.821
12892;170848;34.76;789;03.39.44.821
12884;170840;34.76;790;03.39.44.821
12928;170839;34.76;791;03.39.44.821
12944;170839;34.76;792;03.39.44.832
12888;170836;34.76;793;03.39.44.832
12928;170829;34.76;794;03.39.44.832
12924;170831;34.76;795;03.39.44.832
12904;170828;34.76;796;03.39.44.832
12916;170827;34.76;797;03.39.44.832
12892;170822;34.76;798;03.39.44.832
12908;170824;34.76;799;03.39.44.832
12884;170825;34.76;800;03.39.44.953
12888;170828;34.76;801;03.39.44.953
12928;170830;34.76;802;03.39.44.953
12920;170820;34.76;803;03.39.44.953
12900;170832;34.76;804;03.39.44.953
12924;170828;34.76;805;03.39.44.953
12932;170824;34.76;806;03.39.44.953
12904;170834;34.76;807;03.39.44.953
12928;170826;34.76;808;03.39.44.953
12912;170839;34.76;809;03.39.44.964
12900;170827;34.76;810;03.39.44.964
12912;170832;34.76;811;03.39.44.964
12900;170833;34.76;812;03.39.44.964
12888;170832;34.76;813;03.39.44.964
12912;170836;34.76;814;03.39.44.964
12928;170833;34.76;815;03.39.44.964
12928;170843;34.76;816;03.39.44.964
12912;170834;34.76;817;03.39.44.964
12920;170843;34.76;818;03.39.44.964
12904;170835;34.76;819;03.39.44.964
12904;170840;34.76;820;03.39.44.964
12904;170847;34.76;821;03.39.44.964
12920;170839;34.76;822;03.39.44.976
12896;170836;34.76;823;03.39.44.976
12920;170843;34.76;824;03.39.44.976
12916;170842;34.76;825;03.39.45.053
12928;170843;34.76;826;03.39.45.053
12936;170837;34.76;827;03.39.45.053
12920;170836;34.76;828;03.39.45.053
12884;170845;34.76;829;03.39.45.053
12904;170841;34.76;830;03.39.45.053
12924;170840;34.76;831;03.39.45.064
12892;170840;34.76;832;03.39.45.064
12904;170840;34.76;833;03.39.45.075
12916;170844;34.76;834;03.39.45.075
12892;170842;34.76;835;03.39.45.075
12884;170843;34.76;836;03.39.45.075
12892;170843;34.76;837;03.39.45.075
12892;170850;34.76;838;03.39.45.075
12904;170848;34.76;839;03.39.45.075
12892;170841;34.76;840;03.39.45.086
12912;170841;34.76;841;03.39.45.086
12900;170841;34.76;842;03.39.45.086
12912;170844;34.76;843;03.39.45.086
12908;170841;34.76;844;03.39.45.086
12916;170844;34.76;845;03.39.45.086
12900;170850;34.76;846;03.39.45.086
12936;170842;34.76;847;03.39.45.086
12924;170853;34.76;848;03.39.45.097
12920;170849;34.76;849;03.39.45.097
12908;170847;34.76;850;03.39.45.173
12892;170845;34.76;851;03.39.45.173
12928;170854;34.76;852;03.39.45.173
12936;170852;34.76;853;03.39.45.184
12884;170848;34.76;854;03.39.45.184
12904;170861;34.76;855;03.39.45.184
12916;170849;34.76;856;03.39.45.184
12896;170855;34.76;857;03.39.45.184
12900;170851;34.76;858;03.39.45.184
12904;170857;34.76;859;03.39.45.184
12912;170858;34.76;860;03.39.45.184
12892;170861;34.76;861;03.39.45.184
12892;170866;34.76;862;03.39.45.184
12920;170862;34.76;863;03.39.45.184
12944;170860;34.76;864;03.39.45.184
12912;170865;34.76;865;03.39.45.184
12908;170865;34.76;866;03.39.45.195
12900;170862;34.76;867;03.39.45.195
12916;170868;34.76;868;03.39.45.195
12904;170871;34.76;869;03.39.45.195
12924;170865;34.76;870;03.39.45.195
12932;170875;34.76;871;03.39.45.195
12904;170875;34.76;872;03.39.45.195
12908;170881;34.76;873;03.39.45.195
12928;170878;34.76;874;03.39.45.195
12928;170877;34.76;875;03.39.45.305
12884;170884;34.76;876;03.39.45.305
12892;170880;34.76;877;03.39.45.305
12912;170879;34.76;878;03.39.45.305
12940;170891;34.76;879;03.39.45.305
12912;170884;34.76;880;03.39.45.305
12908;170887;34.76;881;03.39.45.305
12924;170887;34.76;882;03.39.45.305
12940;170896;34.76;883;03.39.45.305
12908;170903;34.76;884;03.39.45.305
12916;170896;34.76;885;03.39.45.305
12900;170890;34.76;886;03.39.45.305
12928;170894;34.76;887;03.39.45.316
12928;170892;34.76;888;03.39.45.316
12892;170891;34.76;889;03.39.45.316
12900;170891;34.76;890;03.39.45.316
12924;170882;34.76;891;03.39.45.316
12908;170885;34.76;892;03.39.45.316
12904;170880;34.76;893;03.39.45.316
12892;170880;34.76;894;03.39.45.316
12928;170863;34.76;895;03.39.45.316
12932;170862;34.76;896;03.39.45.316
12924;170863;34.76;897;03.39.45.316
12900;170863;34.76;898;03.39.45.316
12924;170859;34.76;899;03.39.45.327
12896;170860;34.76;900;03.39.45.436
12892;170850;34.76;901;03.39.45.436
12920;170853;34.76;902;03.39.45.436
12876;170840;34.76;903;03.39.45.436
12880;170841;34.76;904;03.39.45.436
12920;170832;34.76;905;03.39.45.436
12912;170827;34.76;906;03.39.45.436
12912;170831;34.76;907;03.39.45.436
12904;170822;34.76;908;03.39.45.447
12892;170817;34.76;909;03.39.45.447
12908;170811;34.76;910;03.39.45.447
12912;170805;34.76;911;03.39.45.447
12928;170808;34.76;912;03.39.45.447
12916;170804;34.76;913;03.39.45.447
12920;170806;34.76;914;03.39.45.447
12908;170802;34.76;915;03.39.45.447
12892;170811;34.76;916;03.39.45.447
12912;170811;34.76;917;03.39.45.447
12900;170801;34.76;918;03.39.45.447
12908;170805;34.76;919;03.39.45.447
12904;170806;34.76;920;03.39.45.458
12892;170808;34.76;921;03.39.45.458
12928;170804;34.76;922;03.39.45.458
12928;170804;34.76;923;03.39.45.458
12932;170806;34.76;924;03.39.45.458
12896;170802;34.76;925;03.39.45.568
12896;170802;34.76;926;03.39.45.568
12888;170801;34.76;927;03.39.45.568
12892;170806;34.76;928;03.39.45.568
12904;170802;34.76;929;03.39.45.579
12900;170804;34.76;930;03.39.45.579
12932;170803;34.76;931;03.39.45.579
12892;170804;34.76;932;03.39.45.579
12912;170807;34.76;933;03.39.45.579
12916;170812;34.76;934;03.39.45.579
12932;170809;34.76;935;03.39.45.579
12900;170812;34.76;936;03.39.45.579
12916;170817;34.76;937;03.39.45.579
12908;170814;34.76;938;03.39.45.579
12896;170820;34.76;939;03.39.45.579
12920;170822;34.76;940;03.39.45.579
12932;170821;34.76;941;03.39.45.590
12920;170822;34.76;942;03.39.45.590
12916;170822;34.76;943;03.39.45.590
12912;170820;34.76;944;03.39.45.590
12924;170827;34.76;945;03.39.45.590
12916;170823;34.76;946;03.39.45.590
12904;170829;34.76;947;03.39.45.590
12912;170823;34.76;948;03.39.45.590
12924;170822;34.76;949;03.39.45.590
12928;170822;34.76;950;03.39.45.722
12888;170818;34.76;951;03.39.45.722
12892;170824;34.76;952;03.39.45.722
12920;170821;34.76;953;03.39.45.722
12900;170819;34.76;954;03.39.45.722
12904;170821;34.76;955;03.39.45.722
12892;170823;34.76;956;03.39.45.722
12908;170823;34.76;957;03.39.45.722
12908;170824;34.76;958;03.39.45.722
12932;170816;34.76;959;03.39.45.722
12868;170823;34.76;960;03.39.45.722
12932;170821;34.76;961;03.39.45.722
12880;170822;34.76;962;03.39.45.733
12924;170817;34.76;963;03.39.45.733
12896;170814;34.76;964;03.39.45.733
12944;170821;34.76;965;03.39.45.733
12884;170820;34.76;966;03.39.45.733
12896;170820;34.76;967;03.39.45.754
12900;170820;34.76;968;03.39.45.754
12888;170820;34.76;969;03.39.45.754
12928;170821;34.76;970;03.39.45.754
12912;170826;34.76;971;03.39.45.754
12884;170825;34.76;972;03.39.45.754
12928;170818;34.76;973;03.39.45.754
12936;170822;34.76;974;03.39.45.754
12920;170820;34.76;975;03.39.45.809
12912;170823;34.76;976;03.39.45.809
12928;170826;34.76;977;03.39.45.809
12928;170829;34.76;978;03.39.45.809
12908;170838;34.76;979;03.39.45.809
12896;170828;34.76;980;03.39.45.809
12924;170834;34.76;981;03.39.45.809
12892;170839;34.76;982;03.39.45.809
12900;170836;34.76;983;03.39.45.809
12896;170840;34.76;984;03.39.45.820
12892;170844;34.76;985;03.39.45.820
12900;170836;34.76;986;03.39.45.820
12900;170838;34.76;987;03.39.45.820
12912;170835;34.76;988;03.39.45.820
12912;170835;34.76;989;03.39.45.820
12900;170846;34.76;990;03.39.45.820
12944;170846;34.76;991;03.39.45.820
12896;170849;34.76;992;03.39.45.842
12928;170847;34.76;993;03.39.45.842
12900;170851;34.76;994;03.39.45.842
12900;170855;34.76;995;03.39.45.842
12896;170860;34.76;996;03.39.45.842
12904;170859;34.76;997;03.39.45.842
12944;170867;34.76;998;03.39.45.842
12928;170869;34.76;999;03.39.45.842
12900;170858;34.76;000;03.39.45.929
12908;170866;34.76;001;03.39.45.929
12932;170873;34.76;002;03.39.45.929
12924;170864;34.76;003;03.39.45.929
12900;170876;34.76;004;03.39.45.929
12916;170872;34.76;005;03.39.45.940
12928;170877;34.76;006;03.39.45.940
12928;170879;34.76;007;03.39.45.940
12908;170872;34.76;008;03.39.45.940
12920;170877;34.76;009;03.39.45.940
12896;170869;34.76;010;03.39.45.940
12908;170889;34.76;011;03.39.45.940
12900;170883;34.76;012;03.39.45.940
12928;170883;34.76;013;03.39.45.940
12916;170877;34.76;014;03.39.45.940
12920;170884;34.76;015;03.39.45.940
12900;170875;34.76;016;03.39.45.940
12896;170886;34.76;017;03.39.45.951
12928;170876;34.76;018;03.39.45.951
12916;170872;34.76;019;03.39.45.951
12960;170866;34.76;020;03.39.45.951
12888;170862;34.76;021;03.39.45.951
12904;170858;34.76;022;03.39.45.951
12912;170848;34.76;023;03.39.45.951
12940;170851;34.76;024;03.39.45.951
12928;170843;34.76;025;03.39.46.060
12920;170836;34.76;026;03.39.46.060
12920;170839;34.76;027;03.39.46.060
12908;170830;34.76;028;03.39.46.060
12912;170828;34.76;029;03.39.46.060
12908;170818;34.76;030;03.39.46.060
12928;170817;34.76;031;03.39.46.060
12892;170817;34.76;032;03.39.46.060
12892;170808;34.76;033;03.39.46.060
12932;170809;34.76;034;03.39.46.060
12904;170803;34.76;035;03.39.46.060
12892;170795;34.76;036;03.39.46.060
12936;170792;34.76;037;03.39.46.071
12892;170796;34.76;038;03.39.46.071
12928;170793;34.76;039;03.39.46.071
12896;170790;34.76;040;03.39.46.071
12924;170794;34.76;041;03.39.46.071
12928;170789;34.76;042;03.39.46.071
12904;170787;34.76;043;03.39.46.071
12916;170780;34.76;044;03.39.46.071
12912;170790;34.76;045;03.39.46.071
12928;170790;34.76;046;03.39.46.071
12904;170788;34.76;047;03.39.46.071
12916;170795;34.76;048;03.39.46.071
12920;170793;34.76;049;03.39.46.071
12892;170797;34.76;050;03.39.46.181
12908;170797;34.76;051;03.39.46.181
12908;170791;34.76;052;03.39.46.181
12892;170789;34.76;053;03.39.46.181
12892;170789;34.76;054;03.39.46.181
12892;170788;34.76;055;03.39.46.181
12904;170794;34.76;056;03.39.46.181
12884;170793;34.76;057;03.39.46.181
12932;170791;34.76;058;03.39.46.215
12920;170788;34.76;059;03.39.46.215
12908;170802;34.76;060;03.39.46.215
12908;170801;34.76;061;03.39.46.215
12924;170802;34.76;062;03.39.46.215
12924;170803;34.76;063;03.39.46.215
12908;170805;34.76;064;03.39.46.215
12920;170807;34.76;065;03.39.46.215
12928;170805;34.76;066;03.39.46.215
12920;170808;34.76;067;03.39.46.215
12896;170810;34.76;068;03.39.46.215
12932;170815;34.76;069;03.39.46.215
12896;170803;34.76;070;03.39.46.227
12916;170813;34.76;071;03.39.46.227
12900;170812;34.76;072;03.39.46.227
12916;170812;34.76;073;03.39.46.227
12908;170814;34.76;074;03.39.46.227
12920;170806;34.80;075;03.39.46.304
12920;170808;34.80;076;03.39.46.304
12900;170804;34.80;077;03.39.46.304
12928;170804;34.80;078;03.39.46.304
12908;170810;34.80;079;03.39.46.304
12928;170814;34.80;080;03.39.46.304
12876;170817;34.80;081;03.39.46.304
12912;170808;34.80;082;03.39.46.304
12920;170814;34.80;083;03.39.46.304
12908;170815;34.80;084;03.39.46.315
12888;170818;34.80;085;03.39.46.315
12888;170821;34.80;086;03.39.46.315
12892;170817;34.80;087;03.39.46.315
12928;170821;34.80;088;03.39.46.315
12916;170824;34.80;089;03.39.46.315
12876;170829;34.80;090;03.39.46.315
12912;170822;34.80;091;03.39.46.315
12920;170822;34.80;092;03.39.46.315
12928;170814;34.80;093;03.39.46.315
12904;170829;34.80;094;03.39.46.315
12904;170831;34.80;095;03.39.46.315
12912;170834;34.80;096;03.39.46.315
12936;170824;34.80;097;03.39.46.326
12916;170830;34.80;098;03.39.46.326
12932;170835;34.80;099;03.39.46.326
12916;170849;34.80;100;03.39.46.435
12928;170841;34.80;101;03.39.46.435
12900;170833;34.80;102;03.39.46.435
12900;170846;34.80;103;03.39.46.435
12904;170847;34.80;104;03.39.46.435
12900;170852;34.80;105;03.39.46.446
12900;170847;34.80;106;03.39.46.446
12924;170848;34.80;107;03.39.46.446
12924;170848;34.80;108;03.39.46.446
12908;170844;34.80;109;03.39.46.446
12892;170845;34.80;110;03.39.46.446
12908;170852;34.80;111;03.39.46.446
12884;170850;34.80;112;03.39.46.446
12928;170861;34.80;113;03.39.46.446
12884;170842;34.80;114;03.39.46.446
12920;170851;34.80;115;03.39.46.446
12904;170846;34.80;116;03.39.46.446
12928;170844;34.80;117;03.39.46.479
12932;170850;34.80;118;03.39.46.479
12912;170856;34.80;119;03.39.46.479
12920;170864;34.80;120;03.39.46.479
12908;170857;34.80;121;03.39.46.479
12892;170863;34.80;122;03.39.46.490
12896;170872;34.80;123;03.39.46.490
12924;170863;34.80;124;03.39.46.490
12928;170861;34.76;125;03.39.46.567
12908;170870;34.76;126;03.39.46.578
12904;170875;34.76;127;03.39.46.578
12908;170870;34.76;128;03.39.46.578
12896;170878;34.76;129;03.39.46.578
12928;170878;34.76;130;03.39.46.578
12924;170882;34.76;131;03.39.46.578
12928;170885;34.76;132;03.39.46.578
12892;170885;34.76;133;03.39.46.578
12912;170887;34.76;134;03.39.46.578
12908;170886;34.76;135;03.39.46.578
12908;170876;34.76;136;03.39.46.578
12908;170888;34.76;137;03.39.46.578
12936;170888;34.76;138;03.39.46.578
12876;170893;34.76;139;03.39.46.589
12900;170896;34.76;140;03.39.46.589
12904;170901;34.76;141;03.39.46.589
12904;170902;34.76;142;03.39.46.589
12912;170899;34.76;143;03.39.46.589
12928;170901;34.76;144;03.39.46.589
12920;170903;34.76;145;03.39.46.589
12928;170893;34.76;146;03.39.46.589
12904;170890;34.76;147;03.39.46.589
12928;170894;34.76;148;03.39.46.589
12892;170890;34.76;149;03.39.46.589
12880;170889;34.76;150;03.39.46.688
12908;170884;34.76;151;03.39.46.688
12884;170883;34.76;152;03.39.46.688
12928;170873;34.76;153;03.39.46.688
12936;170869;34.76;154;03.39.46.688
12900;170859;34.76;155;03.39.46.688
12892;170860;34.76;156;03.39.46.688
12892;170857;34.76;157;03.39.46.688
12916;170851;34.76;158;03.39.46.710
12928;170848;34.76;159;03.39.46.710
12932;170834;34.76;160;03.39.46.710
12904;170834;34.76;161;03.39.46.710
12888;170832;34.76;162;03.39.46.710
12912;170825;34.76;163;03.39.46.710
12904;170833;34.76;164;03.39.46.710
12904;170820;34.76;165;03.39.46.710
12912;170832;34.76;166;03.39.46.710
12928;170822;34.76;167;03.39.46.721
12892;170819;34.76;168;03.39.46.721
12904;170820;34.76;169;03.39.46.721
12920;170822;34.76;170;03.39.46.721
12912;170819;34.76;171;03.39.46.721
12892;170811;34.76;172;03.39.46.721
12924;170812;34.76;173;03.39.46.721
12920;170818;34.76;174;03.39.46.721
12904;170815;34.76;175;03.39.46.808
12892;170812;34.76;176;03.39.46.808
12884;170812;34.76;177;03.39.46.808
12908;170822;34.76;178;03.39.46.808
12900;170813;34.76;179;03.39.46.808
12908;170811;34.76;180;03.39.46.808
12904;170808;34.76;181;03.39.46.808
12928;170818;34.76;182;03.39.46.819
12916;170818;34.76;183;03.39.46.819
12892;170817;34.76;184;03.39.46.819
12928;170817;34.76;185;03.39.46.819
12904;170816;34.76;186;03.39.46.819
12892;170810;34.76;187;03.39.46.819
12904;170825;34.76;188;03.39.46.819
12908;170825;34.76;189;03.39.46.819
12916;170818;34.76;190;03.39.46.830
12892;170825;34.76;191;03.39.46.830
12904;170826;34.76;192;03.39.46.852
12912;170830;34.76;193;03.39.46.852
12908;170834;34.76;194;03.39.46.852
12932;170825;34.76;195;03.39.46.852
12916;170830;34.76;196;03.39.46.852
12936;170829;34.76;197;03.39.46.852
12916;170830;34.76;198;03.39.46.863
12928;170839;34.76;199;03.39.46.863
12896;170834;34.76;200;03.39.46.929
12884;170841;34.76;201;03.39.46.929
12876;170842;34.76;202;03.39.46.929
12920;170843;34.76;203;03.39.46.940
12888;170848;34.76;204;03.39.46.940
12900;170836;34.76;205;03.39.46.940
12896;170845;34.76;206;03.39.46.940
12932;170836;34.76;207;03.39.46.940
12912;170844;34.76;208;03.39.46.940
12892;170831;34.76;209;03.39.46.940
12928;170839;34.76;210;03.39.46.940
12908;170836;34.76;211;03.39.46.940
12888;170830;34.76;212;03.39.46.940
12900;170833;34.76;213;03.39.46.940
12916;170826;34.76;214;03.39.46.940
12896;170836;34.76;215;03.39.46.951
12892;170839;34.76;216;03.39.46.951
12912;170839;34.76;217;03.39.46.951
12920;170830;34.76;218;03.39.46.951
12928;170847;34.76;219;03.39.46.951
12904;170838;34.76;220;03.39.46.951
12924;170839;34.76;221;03.39.46.951
12904;170844;34.76;222;03.39.46.951
12928;170848;34.76;223;03.39.46.951
12944;170839;34.76;224;03.39.46.951
12884;170840;34.76;225;03.39.47.126
12924;170839;34.76;226;03.39.47.126
12916;170847;34.76;227;03.39.47.126
12908;170845;34.76;228;03.39.47.126
12916;170842;34.76;229;03.39.47.126
12920;170853;34.76;230;03.39.47.126
12928;170843;34.76;231;03.39.47.126
12924;170847;34.76;232;03.39.47.126
12900;170851;34.76;233;03.39.47.126
12900;170847;34.76;234;03.39.47.126
12928;170850;34.76;235;03.39.47.137
12908;170856;34.76;236;03.39.47.137
12912;170850;34.76;237;03.39.47.137
12892;170850;34.76;238;03.39.47.137
12912;170859;34.76;239;03.39.47.137
12936;170858;34.76;240;03.39.47.137
12904;170861;34.76;241;03.39.47.137
12896;170851;34.76;242;03.39.47.159
12888;170854;34.76;243;03.39.47.159
12920;170857;34.76;244;03.39.47.159
12904;170862;34.76;245;03.39.47.159
12920;170863;34.76;246;03.39.47.159
12896;170854;34.76;247;03.39.47.159
12884;170869;34.76;248;03.39.47.159
12928;170862;34.76;249;03.39.47.159
12912;170872;34.76;250;03.39.47.181
12928;170867;34.76;251;03.39.47.181
12932;170874;34.76;252;03.39.47.181
12904;170881;34.76;253;03.39.47.181
12924;170871;34.76;254;03.39.47.181
12896;170872;34.76;255;03.39.47.181
12892;170884;34.76;256;03.39.47.181
12896;170879;34.76;257;03.39.47.181
12892;170891;34.76;258;03.39.47.214
12900;170879;34.76;259;03.39.47.214
12904;170888;34.76;260;03.39.47.214
12892;170889;34.76;261;03.39.47.214
12892;170893;34.76;262;03.39.47.214
12928;170885;34.76;263;03.39.47.214
12912;170891;34.76;264;03.39.47.214
12912;170900;34.76;265;03.39.47.225
12940;170900;34.76;266;03.39.47.225
12884;170895;34.76;267;03.39.47.225
12912;170897;34.76;268;03.39.47.225
12924;170900;34.76;269;03.39.47.225
12936;170901;34.76;270;03.39.47.225
12908;170906;34.76;271;03.39.47.225
12904;170905;34.76;272;03.39.47.225
12892;170904;34.76;273;03.39.47.225
12908;170906;34.76;274;03.39.47.225
12928;170901;34.80;275;03.39.47.301
12916;170906;34.80;276;03.39.47.301
12908;170908;34.80;277;03.39.47.301
12928;170904;34.80;278;03.39.47.301
12928;170894;34.80;279;03.39.47.301
12956;170896;34.80;280;03.39.47.312
12892;170877;34.80;281;03.39.47.312
12916;170881;34.80;282;03.39.47.312
12892;170875;34.80;283;03.39.47.335
12908;170869;34.80;284;03.39.47.335
12900;170863;34.80;285;03.39.47.335
12920;170858;34.80;286;03.39.47.335
12892;170852;34.80;287;03.39.47.335
12928;170857;34.80;288;03.39.47.335
12924;170844;34.80;289;03.39.47.335
12912;170841;34.80;290;03.39.47.346
12884;170833;34.80;291;03.39.47.346
12904;170829;34.80;292;03.39.47.346
12900;170824;34.80;293;03.39.47.346
12908;170827;34.80;294;03.39.47.346
12908;170824;34.80;295;03.39.47.346
12892;170821;34.80;296;03.39.47.346
12892;170828;34.80;297;03.39.47.346
12896;170828;34.80;298;03.39.47.346
12904;170821;34.80;299;03.39.47.346
12912;170824;34.80;300;03.39.47.423
12924;170826;34.80;301;03.39.47.434
12920;170825;34.80;302;03.39.47.434
12920;170825;34.80;303;03.39.47.434
12876;170827;34.80;304;03.39.47.434
12924;170832;34.80;305;03.39.47.434
12908;170824;34.80;306;03.39.47.434
12908;170831;34.80;307;03.39.47.434
12888;170834;34.80;308;03.39.47.434
12928;170830;34.80;309;03.39.47.434
12888;170834;34.80;310;03.39.47.434
12912;170837;34.80;311;03.39.47.445
12920;170841;34.80;312;03.39.47.445
12924;170842;34.80;313;03.39.47.445
12936;170841;34.80;314;03.39.47.445
12928;170845;34.80;315;03.39.47.445
12876;170842;34.80;316;03.39.47.445
12932;170842;34.80;317;03.39.47.445
12928;170839;34.80;318;03.39.47.445
12928;170843;34.80;319;03.39.47.445
12908;170855;34.80;320;03.39.47.445
12928;170856;34.80;321;03.39.47.445
12932;170853;34.80;322;03.39.47.445
12932;170864;34.80;323;03.39.47.445
12928;170859;34.80;324;03.39.47.456
12900;170865;34.76;325;03.39.47.565
12912;170868;34.76;326;03.39.47.565
12920;170864;34.76;327;03.39.47.565
12920;170869;34.76;328;03.39.47.565
12920;170872;34.76;329;03.39.47.565
12920;170874;34.76;330;03.39.47.565
12936;170878;34.76;331;03.39.47.565
12940;170875;34.76;332;03.39.47.565
12920;170880;34.76;333;03.39.47.576
12928;170883;34.76;334;03.39.47.576
12916;170885;34.76;335;03.39.47.576
12936;170894;34.76;336;03.39.47.576
12920;170887;34.76;337;03.39.47.576
12928;170879;34.76;338;03.39.47.576
12892;170884;34.76;339;03.39.47.576
12892;170887;34.76;340;03.39.47.576
12860;170886;34.76;341;03.39.47.576
12960;170890;34.76;342;03.39.47.576
12908;170893;34.76;343;03.39.47.576
12892;170890;34.76;344;03.39.47.587
12920;170890;34.76;345;03.39.47.587
12928;170886;34.76;346;03.39.47.587
12912;170884;34.76;347;03.39.47.587
12920;170887;34.76;348;03.39.47.587
12924;170887;34.76;349;03.39.47.587
12884;170884;34.76;350;03.39.47.719
12916;170893;34.76;351;03.39.47.719
12924;170892;34.76;352;03.39.47.719
12892;170886;34.76;353;03.39.47.719
12912;170887;34.76;354;03.39.47.719
12892;170897;34.76;355;03.39.47.719
12912;170884;34.76;356;03.39.47.730
12892;170893;34.76;357;03.39.47.730
12908;170894;34.76;358;03.39.47.741
12920;170896;34.76;359;03.39.47.741
12916;170895;34.76;360;03.39.47.741
12908;170898;34.76;361;03.39.47.741
12932;170906;34.76;362;03.39.47.741
12916;170910;34.76;363;03.39.47.741
12908;170903;34.76;364;03.39.47.752
12888;170906;34.76;365;03.39.47.752
12916;170901;34.76;366;03.39.47.752
12920;170913;34.76;367;03.39.47.752
12912;170908;34.76;368;03.39.47.752
12904;170912;34.76;369;03.39.47.752
12920;170916;34.76;370;03.39.47.752
12928;170919;34.76;371;03.39.47.752
12912;170921;34.76;372;03.39.47.752
12888;170923;34.76;373;03.39.47.752
12912;170920;34.76;374;03.39.47.752
12904;170926;34.80;375;03.39.47.807
12884;170921;34.80;376;03.39.47.807
12908;170929;34.80;377;03.39.47.807
12876;170931;34.80;378;03.39.47.817
12900;170922;34.80;379;03.39.47.817
12904;170936;34.80;380;03.39.47.817
12888;170934;34.80;381;03.39.47.817
12888;170938;34.80;382;03.39.47.817
12908;170932;34.80;383;03.39.47.828
12892;170942;34.80;384;03.39.47.828
12900;170937;34.80;385;03.39.47.828
12932;170945;34.80;386;03.39.47.839
12908;170938;34.80;387;03.39.47.839
12928;170949;34.80;388;03.39.47.839
12920;170946;34.80;389;03.39.47.839
12908;170953;34.80;390;03.39.47.839
12892;170958;34.80;391;03.39.47.839
12908;170952;34.80;392;03.39.47.839
12896;170956;34.80;393;03.39.47.839
12908;170956;34.80;394;03.39.47.839
12912;170954;34.80;395;03.39.47.839
12928;170961;34.80;396;03.39.47.839
12928;170961;34.80;397;03.39.47.839
12904;170967;34.80;398;03.39.47.839
12916;170966;34.80;399;03.39.47.840
12912;170965;34.80;400;03.39.47.938
12916;170962;34.80;401;03.39.47.938
12884;170963;34.80;402;03.39.47.938
12944;170974;34.80;403;03.39.47.938
12912;170970;34.80;404;03.39.47.938
12892;170974;34.80;405;03.39.47.938
12888;170978;34.80;406;03.39.47.938
12892;170976;34.80;407;03.39.47.938
12884;170971;34.80;408;03.39.47.949
12904;170961;34.80;409;03.39.47.949
12908;170964;34.80;410;03.39.47.949
12884;170969;34.80;411;03.39.47.949
12892;170962;34.80;412;03.39.47.949
12892;170950;34.80;413;03.39.47.949
12892;170953;34.80;414;03.39.47.949
12928;170945;34.80;415;03.39.47.949
12908;170941;34.80;416;03.39.47.949
12888;170930;34.80;417;03.39.47.982
12912;170932;34.80;418;03.39.47.982
12896;170925;34.80;419;03.39.47.982
12900;170922;34.80;420;03.39.47.982
12908;170919;34.80;421;03.39.47.982
12900;170924;34.80;422;03.39.47.982
12928;170920;34.80;423;03.39.47.982
12916;170918;34.80;424;03.39.47.982
12908;170900;34.76;425;03.39.48.062
12932;170912;34.76;426;03.39.48.062
12960;170906;34.76;427;03.39.48.062
12900;170904;34.76;428;03.39.48.062
12900;170902;34.76;429;03.39.48.062
12892;170903;34.76;430;03.39.48.062
12912;170894;34.76;431;03.39.48.062
12928;170900;34.76;432;03.39.48.062
12904;170905;34.76;433;03.39.48.062
12872;170900;34.76;434;03.39.48.062
12896;170900;34.76;435;03.39.48.062
12888;170906;34.76;436;03.39.48.073
12928;170910;34.76;437;03.39.48.073
12920;170912;34.76;438;03.39.48.073
12912;170905;34.76;439;03.39.48.073
12892;170914;34.76;440;03.39.48.073
12924;170914;34.76;441;03.39.48.073
12932;170920;34.76;442;03.39.48.073
12928;170914;34.76;443;03.39.48.073
12928;170918;34.76;444;03.39.48.073
12952;170923;34.76;445;03.39.48.073
12888;170923;34.76;446;03.39.48.073
12908;170926;34.76;447;03.39.48.073
12904;170937;34.76;448;03.39.48.073
12936;170929;34.76;449;03.39.48.073
12896;170937;34.76;450;03.39.48.193
12924;170935;34.76;451;03.39.48.193
12892;170926;34.76;452;03.39.48.193
12928;170931;34.76;453;03.39.48.193
12920;170939;34.76;454;03.39.48.193
12912;170944;34.76;455;03.39.48.193
12896;170942;34.76;456;03.39.48.193
12912;170946;34.76;457;03.39.48.193
12928;170947;34.76;458;03.39.48.193
12892;170943;34.76;459;03.39.48.204
12920;170947;34.76;460;03.39.48.204
12912;170957;34.76;461;03.39.48.204
12912;170951;34.76;462;03.39.48.204
12892;170956;34.76;463;03.39.48.204
12928;170958;34.76;464;03.39.48.204
12896;170953;34.76;465;03.39.48.204
12900;170957;34.76;466;03.39.48.204
12932;170955;34.76;467;03.39.48.204
12888;170960;34.76;468;03.39.48.204
12908;170957;34.76;469;03.39.48.204
12912;170963;34.76;470;03.39.48.204
12904;170964;34.76;471;03.39.48.204
12892;170963;34.76;472;03.39.48.214
12924;170954;34.76;473;03.39.48.214
12928;170953;34.76;474;03.39.48.214
12928;170953;34.76;475;03.39.48.302
12908;170959;34.76;476;03.39.48.302
12896;170968;34.76;477;03.39.48.302
12920;170961;34.76;478;03.39.48.302
12916;170969;34.76;479;03.39.48.313
12932;170968;34.76;480;03.39.48.313
12924;170957;34.76;481;03.39.48.313
12944;170966;34.76;482;03.39.48.313
12936;170980;34.76;483;03.39.48.313
12884;170973;34.76;484;03.39.48.313
12916;170966;34.76;485;03.39.48.313
12888;170982;34.76;486;03.39.48.313
12908;170974;34.76;487;03.39.48.313
12884;170986;34.76;488;03.39.48.313
12892;170982;34.76;489;03.39.48.324
12908;170979;34.76;490;03.39.48.324
12932;170984;34.76;491;03.39.48.324
12928;170980;34.76;492;03.39.48.335
12928;170981;34.76;493;03.39.48.335
12908;170982;34.76;494;03.39.48.335
12920;170984;34.76;495;03.39.48.335
12928;170988;34.76;496;03.39.48.346
12928;170986;34.76;497;03.39.48.346
12908;170997;34.76;498;03.39.48.346
12904;170985;34.76;499;03.39.48.346
12900;170998;34.76;500;03.39.48.423
12892;170997;34.76;501;03.39.48.434
12908;170998;34.76;502;03.39.48.434
12900;170999;34.76;503;03.39.48.434
12912;171001;34.76;504;03.39.48.434
12888;170997;34.76;505;03.39.48.434
12904;170997;34.76;506;03.39.48.434
12904;171010;34.76;507;03.39.48.434
12900;171008;34.76;508;03.39.48.434
12940;171007;34.76;509;03.39.48.434
12928;171005;34.76;510;03.39.48.434
12916;171018;34.76;511;03.39.48.434
12872;171008;34.76;512;03.39.48.434
12892;171014;34.76;513;03.39.48.445
12928;171007;34.76;514;03.39.48.445
12892;171012;34.76;515;03.39.48.445
12912;171015;34.76;516;03.39.48.445
12912;171011;34.76;517;03.39.48.445
12912;171013;34.76;518;03.39.48.445
12904;171024;34.76;519;03.39.48.445
12928;171025;34.76;520;03.39.48.445
12880;171022;34.76;521;03.39.48.445
12892;171016;34.76;522;03.39.48.445
12884;171034;34.76;523;03.39.48.445
12920;171024;34.76;524;03.39.48.445
12928;171026;34.76;525;03.39.48.555
12916;171024;34.76;526;03.39.48.555
12892;171029;34.76;527;03.39.48.555
12924;171026;34.76;528;03.39.48.555
12932;171024;34.76;529;03.39.48.555
12900;171012;34.76;530;03.39.48.555
12900;171017;34.76;531;03.39.48.555
12912;171019;34.76;532;03.39.48.555
12904;171009;34.76;533;03.39.48.555
12900;171012;34.76;534;03.39.48.555
12928;171006;34.76;535;03.39.48.565
12900;171008;34.76;536;03.39.48.565
12932;171002;34.76;537;03.39.48.565
12924;170997;34.76;538;03.39.48.565
12924;170991;34.76;539;03.39.48.565
12912;170988;34.76;540;03.39.48.565
12904;170985;34.76;541;03.39.48.565
12876;170982;34.76;542;03.39.48.565
12892;170971;34.76;543;03.39.48.565
12908;170967;34.76;544;03.39.48.565
12900;170969;34.76;545;03.39.48.565
12888;170951;34.76;546;03.39.48.565
12936;170967;34.76;547;03.39.48.565
12920;170960;34.76;548;03.39.48.576
12908;170952;34.76;549;03.39.48.576
12888;170962;34.76;550;03.39.48.686
12908;170955;34.76;551;03.39.48.686
12928;170959;34.76;552;03.39.48.686
12928;170952;34.76;553;03.39.48.686
12912;170944;34.76;554;03.39.48.686
12908;170947;34.76;555;03.39.48.686
12888;170949;34.76;556;03.39.48.697
