gsr; bvp; skt; skt2; Cont; time
12928;001377;34.68;725;03.34.26.499
12924;057554;34.68;726;03.34.26.499
12892;073923;34.68;727;03.34.26.499
12916;090320;34.68;728;03.34.26.499
12928;106692;34.68;729;03.34.26.499
12924;123107;34.68;730;03.34.26.499
12920;139451;34.68;731;03.34.26.499
12896;155902;34.68;732;03.34.26.499
12892;172255;34.68;733;03.34.26.510
12932;171997;34.68;734;03.34.26.510
12916;171994;34.68;735;03.34.26.510
12908;171987;34.68;736;03.34.26.510
12916;171985;34.68;737;03.34.26.510
12900;171983;34.68;738;03.34.26.510
12904;171982;34.68;739;03.34.26.521
12920;171975;34.68;740;03.34.26.521
12916;171980;34.68;741;03.34.26.521
12928;171981;34.68;742;03.34.26.521
12884;171977;34.68;743;03.34.26.521
12916;171968;34.68;744;03.34.26.521
12932;171969;34.68;745;03.34.26.521
12916;171958;34.68;746;03.34.26.521
12916;171961;34.68;747;03.34.26.521
12880;171954;34.68;748;03.34.26.521
12928;171952;34.68;749;03.34.26.521
12892;171947;34.68;750;03.34.26.619
12892;171951;34.68;751;03.34.26.619
12904;171948;34.68;752;03.34.26.619
12924;171937;34.68;753;03.34.26.619
12944;171935;34.68;754;03.34.26.630
12896;171931;34.68;755;03.34.26.630
12916;171931;34.68;756;03.34.26.630
12916;171935;34.68;757;03.34.26.630
12896;171929;34.68;758;03.34.26.630
12924;171920;34.68;759;03.34.26.630
12920;171919;34.68;760;03.34.26.630
12928;171917;34.68;761;03.34.26.630
12916;171925;34.68;762;03.34.26.630
12884;171918;34.68;763;03.34.26.630
12916;171927;34.68;764;03.34.26.630
12948;171919;34.68;765;03.34.26.630
12908;171918;34.68;766;03.34.26.630
12916;171924;34.68;767;03.34.26.641
12900;171917;34.68;768;03.34.26.641
12900;171914;34.68;769;03.34.26.641
12928;171915;34.68;770;03.34.26.641
12928;171913;34.68;771;03.34.26.641
12900;171910;34.68;772;03.34.26.641
12904;171912;34.68;773;03.34.26.641
12948;171918;34.68;774;03.34.26.641
12936;171919;34.68;775;03.34.26.750
12872;171900;34.68;776;03.34.26.750
12960;171910;34.68;777;03.34.26.750
12908;171907;34.68;778;03.34.26.750
12904;171908;34.68;779;03.34.26.750
12908;171909;34.68;780;03.34.26.750
12904;171906;34.68;781;03.34.26.750
12920;171909;34.68;782;03.34.26.750
12940;171900;34.68;783;03.34.26.750
12924;171897;34.68;784;03.34.26.750
12916;171899;34.68;785;03.34.26.750
12916;171901;34.68;786;03.34.26.750
12916;171890;34.68;787;03.34.26.750
12936;171893;34.68;788;03.34.26.761
12892;171897;34.68;789;03.34.26.761
12896;171891;34.68;790;03.34.26.761
12924;171891;34.68;791;03.34.26.761
12928;171900;34.68;792;03.34.26.761
12928;171899;34.68;793;03.34.26.761
12932;171894;34.68;794;03.34.26.761
12912;171889;34.68;795;03.34.26.761
12916;171892;34.68;796;03.34.26.761
12912;171887;34.68;797;03.34.26.761
12920;171891;34.68;798;03.34.26.761
12912;171886;34.68;799;03.34.26.761
12892;171905;34.68;800;03.34.26.882
12928;171896;34.68;801;03.34.26.882
12896;171896;34.68;802;03.34.26.882
12912;171896;34.68;803;03.34.26.882
12916;171893;34.68;804;03.34.26.882
12892;171898;34.68;805;03.34.26.882
12912;171889;34.68;806;03.34.26.882
12900;171883;34.68;807;03.34.26.882
12940;171898;34.68;808;03.34.26.882
12928;171889;34.68;809;03.34.26.882
12944;171893;34.68;810;03.34.26.893
12908;171897;34.68;811;03.34.26.893
12896;171890;34.68;812;03.34.26.893
12924;171887;34.68;813;03.34.26.893
12900;171893;34.68;814;03.34.26.893
12928;171894;34.68;815;03.34.26.893
12928;171891;34.68;816;03.34.26.893
12928;171887;34.68;817;03.34.26.893
12928;171877;34.68;818;03.34.26.893
12896;171883;34.68;819;03.34.26.893
12900;171891;34.68;820;03.34.26.893
12912;171888;34.68;821;03.34.26.893
12900;171894;34.68;822;03.34.26.904
12928;171889;34.68;823;03.34.26.904
12936;171890;34.68;824;03.34.26.904
12920;171886;34.64;825;03.34.26.992
12916;171891;34.64;826;03.34.26.992
12908;171888;34.64;827;03.34.26.992
12912;171889;34.64;828;03.34.26.992
12912;171893;34.64;829;03.34.26.992
12932;171887;34.64;830;03.34.26.992
12928;171898;34.64;831;03.34.27.003
12912;171885;34.64;832;03.34.27.003
12936;171887;34.64;833;03.34.27.025
12908;171891;34.64;834;03.34.27.025
12936;171892;34.64;835;03.34.27.025
12928;171892;34.64;836;03.34.27.025
12900;171889;34.64;837;03.34.27.025
12916;171886;34.64;838;03.34.27.025
12928;171893;34.64;839;03.34.27.036
12908;171888;34.64;840;03.34.27.036
12908;171890;34.64;841;03.34.27.036
12892;171888;34.64;842;03.34.27.036
12916;171891;34.64;843;03.34.27.036
12924;171895;34.64;844;03.34.27.036
12916;171892;34.64;845;03.34.27.036
12952;171894;34.64;846;03.34.27.036
12896;171896;34.64;847;03.34.27.036
12892;171894;34.64;848;03.34.27.036
12932;171902;34.64;849;03.34.27.036
12888;171898;34.64;850;03.34.27.113
12928;171904;34.64;851;03.34.27.113
12912;171910;34.64;852;03.34.27.123
12928;171912;34.64;853;03.34.27.123
12892;171913;34.64;854;03.34.27.123
12884;171912;34.64;855;03.34.27.123
12920;171916;34.64;856;03.34.27.123
12964;171917;34.64;857;03.34.27.123
12900;171914;34.64;858;03.34.27.123
12912;171912;34.64;859;03.34.27.123
12924;171902;34.64;860;03.34.27.123
12892;171890;34.64;861;03.34.27.134
12908;171899;34.64;862;03.34.27.134
12896;171896;34.64;863;03.34.27.134
12904;171889;34.64;864;03.34.27.134
12912;171889;34.64;865;03.34.27.134
12912;171870;34.64;866;03.34.27.134
12912;171861;34.64;867;03.34.27.145
12892;171858;34.64;868;03.34.27.145
12912;171865;34.64;869;03.34.27.156
12940;171864;34.64;870;03.34.27.156
12924;171852;34.64;871;03.34.27.156
12936;171847;34.64;872;03.34.27.156
12920;171840;34.64;873;03.34.27.156
12936;171842;34.64;874;03.34.27.156
12892;171842;34.64;875;03.34.27.244
12932;171838;34.64;876;03.34.27.244
12916;171832;34.64;877;03.34.27.244
12932;171825;34.64;878;03.34.27.244
12924;171819;34.64;879;03.34.27.244
12920;171818;34.64;880;03.34.27.244
12920;171806;34.64;881;03.34.27.244
12912;171809;34.64;882;03.34.27.244
12912;171807;34.64;883;03.34.27.255
12896;171804;34.64;884;03.34.27.255
12928;171808;34.64;885;03.34.27.255
12916;171802;34.64;886;03.34.27.255
12928;171802;34.64;887;03.34.27.255
12912;171807;34.64;888;03.34.27.255
12912;171791;34.64;889;03.34.27.255
12924;171794;34.64;890;03.34.27.255
12920;171796;34.64;891;03.34.27.255
12908;171794;34.64;892;03.34.27.266
12936;171795;34.64;893;03.34.27.266
12920;171793;34.64;894;03.34.27.266
12924;171797;34.64;895;03.34.27.266
12928;171800;34.64;896;03.34.27.266
12892;171797;34.64;897;03.34.27.266
12932;171802;34.64;898;03.34.27.266
12924;171804;34.64;899;03.34.27.266
12920;171812;34.64;900;03.34.27.376
12932;171804;34.64;901;03.34.27.376
12908;171815;34.64;902;03.34.27.376
12924;171812;34.64;903;03.34.27.376
12944;171809;34.64;904;03.34.27.376
12928;171813;34.64;905;03.34.27.376
12892;171807;34.64;906;03.34.27.376
12892;171808;34.64;907;03.34.27.376
12904;171807;34.64;908;03.34.27.387
12924;171813;34.64;909;03.34.27.387
12936;171808;34.64;910;03.34.27.387
12916;171810;34.64;911;03.34.27.387
12932;171806;34.64;912;03.34.27.387
12928;171804;34.64;913;03.34.27.387
12904;171799;34.64;914;03.34.27.387
12924;171802;34.64;915;03.34.27.387
12924;171801;34.64;916;03.34.27.387
12928;171802;34.64;917;03.34.27.398
12960;171794;34.64;918;03.34.27.398
12928;171798;34.64;919;03.34.27.398
12920;171801;34.64;920;03.34.27.398
12944;171791;34.64;921;03.34.27.398
12900;171800;34.64;922;03.34.27.398
12928;171797;34.64;923;03.34.27.398
12916;171802;34.64;924;03.34.27.398
12916;171791;34.64;925;03.34.27.506
12928;171799;34.64;926;03.34.27.506
12936;171790;34.64;927;03.34.27.517
12928;171795;34.64;928;03.34.27.517
12916;171791;34.64;929;03.34.27.517
12920;171790;34.64;930;03.34.27.517
12924;171782;34.64;931;03.34.27.517
12920;171779;34.64;932;03.34.27.517
12892;171783;34.64;933;03.34.27.517
12916;171790;34.64;934;03.34.27.517
12900;171788;34.64;935;03.34.27.517
12928;171784;34.64;936;03.34.27.517
12936;171776;34.64;937;03.34.27.517
12896;171776;34.64;938;03.34.27.517
12936;171779;34.64;939;03.34.27.517
12912;171780;34.64;940;03.34.27.528
12892;171783;34.64;941;03.34.27.528
12896;171781;34.64;942;03.34.27.528
12932;171787;34.64;943;03.34.27.528
12904;171789;34.64;944;03.34.27.528
12884;171778;34.64;945;03.34.27.528
12940;171786;34.64;946;03.34.27.528
12924;171777;34.64;947;03.34.27.528
12924;171776;34.64;948;03.34.27.528
12932;171776;34.64;949;03.34.27.528
12916;171776;34.64;950;03.34.27.627
12908;171776;34.64;951;03.34.27.627
12900;171790;34.64;952;03.34.27.627
12900;171786;34.64;953;03.34.27.627
12924;171784;34.64;954;03.34.27.627
12908;171794;34.64;955;03.34.27.627
12900;171786;34.64;956;03.34.27.627
12912;171783;34.64;957;03.34.27.627
12908;171782;34.64;958;03.34.27.638
12916;171782;34.64;959;03.34.27.638
12928;171784;34.64;960;03.34.27.638
12892;171781;34.64;961;03.34.27.638
12936;171788;34.64;962;03.34.27.638
12916;171788;34.64;963;03.34.27.638
12876;171781;34.64;964;03.34.27.638
12928;171787;34.64;965;03.34.27.638
12900;171787;34.64;966;03.34.27.638
12876;171791;34.64;967;03.34.27.649
12900;171789;34.64;968;03.34.27.649
12928;171793;34.64;969;03.34.27.649
12908;171783;34.64;970;03.34.27.649
12892;171774;34.64;971;03.34.27.649
12944;171779;34.64;972;03.34.27.649
12944;171782;34.64;973;03.34.27.649
12952;171778;34.64;974;03.34.27.649
12924;171782;34.64;975;03.34.27.747
12908;171781;34.64;976;03.34.27.747
12928;171775;34.64;977;03.34.27.747
12928;171785;34.64;978;03.34.27.747
12924;171787;34.64;979;03.34.27.747
12908;171797;34.64;980;03.34.27.747
12912;171798;34.64;981;03.34.27.747
12928;171800;34.64;982;03.34.27.747
12892;171793;34.64;983;03.34.27.758
12896;171797;34.64;984;03.34.27.758
12912;171798;34.64;985;03.34.27.758
12920;171804;34.64;986;03.34.27.758
12908;171811;34.64;987;03.34.27.758
12932;171807;34.64;988;03.34.27.758
12916;171808;34.64;989;03.34.27.758
12932;171809;34.64;990;03.34.27.758
12928;171819;34.64;991;03.34.27.758
12908;171819;34.64;992;03.34.27.758
12908;171828;34.64;993;03.34.27.758
12908;171834;34.64;994;03.34.27.758
12904;171835;34.64;995;03.34.27.758
12944;171841;34.64;996;03.34.27.769
12876;171843;34.64;997;03.34.27.769
12900;171858;34.64;998;03.34.27.769
12892;171859;34.64;999;03.34.27.769
12892;171868;34.64;000;03.34.27.868
12908;171866;34.64;001;03.34.27.868
12924;171865;34.64;002;03.34.27.868
12944;171874;34.64;003;03.34.27.868
12904;171879;34.64;004;03.34.27.879
12904;171886;34.64;005;03.34.27.879
12920;171886;34.64;006;03.34.27.879
12916;171897;34.64;007;03.34.27.879
12928;171900;34.64;008;03.34.27.879
12928;171897;34.64;009;03.34.27.879
12920;171914;34.64;010;03.34.27.879
12912;171912;34.64;011;03.34.27.879
12932;171922;34.64;012;03.34.27.879
12924;171913;34.64;013;03.34.27.879
12928;171921;34.64;014;03.34.27.879
12928;171923;34.64;015;03.34.27.879
12896;171929;34.64;016;03.34.27.879
12908;171926;34.64;017;03.34.27.890
12948;171928;34.64;018;03.34.27.890
12936;171928;34.64;019;03.34.27.890
12928;171946;34.64;020;03.34.27.890
12932;171938;34.64;021;03.34.27.901
12948;171945;34.64;022;03.34.27.901
12892;171952;34.64;023;03.34.27.901
12928;171929;34.64;024;03.34.27.901
12912;171943;34.64;025;03.34.28.009
12932;171941;34.64;026;03.34.28.009
12924;171945;34.64;027;03.34.28.009
12892;171942;34.64;028;03.34.28.009
12908;171958;34.64;029;03.34.28.009
12924;171940;34.64;030;03.34.28.009
12920;171951;34.64;031;03.34.28.009
12908;171940;34.64;032;03.34.28.009
12920;171933;34.64;033;03.34.28.009
12936;171937;34.64;034;03.34.28.009
12924;171930;34.64;035;03.34.28.009
12916;171920;34.64;036;03.34.28.009
12908;171914;34.64;037;03.34.28.009
12928;171907;34.64;038;03.34.28.020
12920;171899;34.64;039;03.34.28.020
12928;171892;34.64;040;03.34.28.020
12944;171888;34.64;041;03.34.28.020
12932;171881;34.64;042;03.34.28.031
12944;171881;34.64;043;03.34.28.031
12920;171872;34.64;044;03.34.28.031
12892;171877;34.64;045;03.34.28.031
12916;171856;34.64;046;03.34.28.031
12928;171854;34.64;047;03.34.28.031
12936;171850;34.64;048;03.34.28.031
12944;171846;34.64;049;03.34.28.031
12896;171852;34.64;050;03.34.28.119
12904;171836;34.64;051;03.34.28.119
12940;171836;34.64;052;03.34.28.119
12944;171825;34.64;053;03.34.28.119
12920;171833;34.64;054;03.34.28.119
12928;171828;34.64;055;03.34.28.119
12912;171817;34.64;056;03.34.28.119
12940;171817;34.64;057;03.34.28.119
12944;171805;34.64;058;03.34.28.130
12908;171817;34.64;059;03.34.28.130
12928;171806;34.64;060;03.34.28.130
12936;171802;34.64;061;03.34.28.130
12940;171801;34.64;062;03.34.28.130
12904;171800;34.64;063;03.34.28.130
12944;171806;34.64;064;03.34.28.130
12920;171796;34.64;065;03.34.28.130
12932;171815;34.64;066;03.34.28.141
12908;171794;34.64;067;03.34.28.141
12892;171802;34.64;068;03.34.28.141
12928;171799;34.64;069;03.34.28.141
12936;171793;34.64;070;03.34.28.141
12900;171787;34.64;071;03.34.28.141
12928;171785;34.64;072;03.34.28.141
12892;171786;34.64;073;03.34.28.141
12928;171780;34.64;074;03.34.28.141
12912;171783;34.64;075;03.34.28.251
12916;171783;34.64;076;03.34.28.251
12924;171782;34.64;077;03.34.28.251
12928;171780;34.64;078;03.34.28.251
12932;171774;34.64;079;03.34.28.251
12928;171779;34.64;080;03.34.28.262
12892;171782;34.64;081;03.34.28.262
12904;171777;34.64;082;03.34.28.262
12912;171779;34.64;083;03.34.28.273
12928;171773;34.64;084;03.34.28.273
12928;171766;34.64;085;03.34.28.273
12920;171772;34.64;086;03.34.28.273
12928;171771;34.64;087;03.34.28.273
12908;171761;34.64;088;03.34.28.284
12916;171768;34.64;089;03.34.28.284
12904;171759;34.64;090;03.34.28.284
12908;171754;34.64;091;03.34.28.284
12904;171747;34.64;092;03.34.28.284
12912;171746;34.64;093;03.34.28.284
12896;171742;34.64;094;03.34.28.284
12920;171747;34.64;095;03.34.28.284
12928;171734;34.64;096;03.34.28.284
12892;171729;34.64;097;03.34.28.284
12900;171735;34.64;098;03.34.28.284
12908;171733;34.64;099;03.34.28.284
12900;171720;34.64;100;03.34.28.382
12940;171728;34.64;101;03.34.28.393
12916;171720;34.64;102;03.34.28.393
12924;171723;34.64;103;03.34.28.393
12908;171719;34.64;104;03.34.28.393
12908;171715;34.64;105;03.34.28.393
12928;171713;34.64;106;03.34.28.393
12908;171717;34.64;107;03.34.28.393
12900;171717;34.64;108;03.34.28.426
12900;171727;34.64;109;03.34.28.426
12928;171734;34.64;110;03.34.28.426
12924;171740;34.64;111;03.34.28.426
12916;171734;34.64;112;03.34.28.426
12888;171732;34.64;113;03.34.28.426
12920;171742;34.64;114;03.34.28.426
12904;171757;34.64;115;03.34.28.426
12876;171741;34.64;116;03.34.28.426
12916;171748;34.64;117;03.34.28.426
12908;171753;34.64;118;03.34.28.426
12904;171765;34.64;119;03.34.28.426
12904;171766;34.64;120;03.34.28.426
12940;171763;34.64;121;03.34.28.437
12928;171769;34.64;122;03.34.28.437
12908;171771;34.64;123;03.34.28.437
12940;171773;34.64;124;03.34.28.437
12932;171772;34.64;125;03.34.28.514
12900;171774;34.64;126;03.34.28.514
12892;171777;34.64;127;03.34.28.514
12936;171788;34.64;128;03.34.28.514
12924;171799;34.64;129;03.34.28.514
12916;171798;34.64;130;03.34.28.514
12940;171796;34.64;131;03.34.28.514
12908;171806;34.64;132;03.34.28.514
12912;171807;34.64;133;03.34.28.514
12960;171809;34.64;134;03.34.28.525
12928;171823;34.64;135;03.34.28.525
12928;171811;34.64;136;03.34.28.525
12912;171827;34.64;137;03.34.28.525
12932;171825;34.64;138;03.34.28.525
12916;171829;34.64;139;03.34.28.525
12932;171814;34.64;140;03.34.28.525
12944;171836;34.64;141;03.34.28.525
12912;171829;34.64;142;03.34.28.525
12936;171828;34.64;143;03.34.28.525
12900;171834;34.64;144;03.34.28.525
12904;171835;34.64;145;03.34.28.525
12904;171842;34.64;146;03.34.28.525
12916;171836;34.64;147;03.34.28.536
12924;171844;34.64;148;03.34.28.536
12928;171842;34.64;149;03.34.28.536
12912;171843;34.64;150;03.34.28.646
12900;171843;34.64;151;03.34.28.646
12936;171842;34.64;152;03.34.28.646
12952;171852;34.64;153;03.34.28.646
12920;171844;34.64;154;03.34.28.646
12900;171838;34.64;155;03.34.28.646
12904;171848;34.64;156;03.34.28.657
12896;171854;34.64;157;03.34.28.657
12924;171850;34.64;158;03.34.28.657
12928;171857;34.64;159;03.34.28.657
12932;171861;34.64;160;03.34.28.657
12916;171853;34.64;161;03.34.28.657
12900;171869;34.64;162;03.34.28.657
12932;171864;34.64;163;03.34.28.657
12920;171859;34.64;164;03.34.28.657
12908;171867;34.64;165;03.34.28.657
12888;171869;34.64;166;03.34.28.657
12928;171874;34.64;167;03.34.28.657
12912;171866;34.64;168;03.34.28.657
12912;171875;34.64;169;03.34.28.668
12908;171885;34.64;170;03.34.28.668
12900;171879;34.64;171;03.34.28.668
12916;171874;34.64;172;03.34.28.668
12928;171876;34.64;173;03.34.28.668
12960;171880;34.64;174;03.34.28.668
12928;171881;34.64;175;03.34.28.744
12920;171883;34.64;176;03.34.28.744
12908;171888;34.64;177;03.34.28.744
12892;171889;34.64;178;03.34.28.755
12908;171895;34.64;179;03.34.28.755
12960;171904;34.64;180;03.34.28.755
12912;171895;34.64;181;03.34.28.755
12928;171902;34.64;182;03.34.28.755
12920;171902;34.64;183;03.34.28.755
12928;171910;34.64;184;03.34.28.755
12912;171906;34.64;185;03.34.28.755
12908;171906;34.64;186;03.34.28.755
12908;171906;34.64;187;03.34.28.755
12912;171912;34.64;188;03.34.28.755
12936;171920;34.64;189;03.34.28.755
12900;171925;34.64;190;03.34.28.755
12900;171913;34.64;191;03.34.28.766
12896;171918;34.64;192;03.34.28.766
12928;171928;34.64;193;03.34.28.766
12920;171932;34.64;194;03.34.28.766
12904;171935;34.64;195;03.34.28.766
12936;171933;34.64;196;03.34.28.766
12892;171930;34.64;197;03.34.28.766
12908;171938;34.64;198;03.34.28.766
12912;171931;34.64;199;03.34.28.766
12892;171920;34.64;200;03.34.28.876
12896;171922;34.64;201;03.34.28.876
12936;171913;34.64;202;03.34.28.876
12900;171911;34.64;203;03.34.28.876
12932;171907;34.64;204;03.34.28.876
12904;171903;34.64;205;03.34.28.876
12928;171893;34.64;206;03.34.28.876
12900;171893;34.64;207;03.34.28.876
12916;171889;34.64;208;03.34.28.876
12900;171887;34.64;209;03.34.28.876
12912;171896;34.64;210;03.34.28.876
12912;171883;34.64;211;03.34.28.876
12896;171888;34.64;212;03.34.28.887
12880;171888;34.64;213;03.34.28.887
12908;171881;34.64;214;03.34.28.887
12944;171886;34.64;215;03.34.28.887
12928;171881;34.64;216;03.34.28.887
12912;171877;34.64;217;03.34.28.887
12896;171881;34.64;218;03.34.28.887
12928;171870;34.64;219;03.34.28.887
12888;171873;34.64;220;03.34.28.887
12928;171862;34.64;221;03.34.28.887
12912;171855;34.64;222;03.34.28.887
12916;171860;34.64;223;03.34.28.887
12928;171861;34.64;224;03.34.28.887
12892;171854;34.64;225;03.34.29.008
12924;171851;34.64;226;03.34.29.008
12892;171862;34.64;227;03.34.29.008
12900;171857;34.64;228;03.34.29.008
12884;171868;34.64;229;03.34.29.008
12908;171859;34.64;230;03.34.29.008
12944;171855;34.64;231;03.34.29.008
12908;171867;34.64;232;03.34.29.008
12912;171853;34.64;233;03.34.29.008
12908;171856;34.64;234;03.34.29.019
12908;171855;34.64;235;03.34.29.019
12928;171855;34.64;236;03.34.29.019
12920;171852;34.64;237;03.34.29.019
12912;171844;34.64;238;03.34.29.019
12904;171853;34.64;239;03.34.29.019
12940;171852;34.64;240;03.34.29.019
12916;171852;34.64;241;03.34.29.019
12908;171847;34.64;242;03.34.29.019
12912;171837;34.64;243;03.34.29.019
12908;171850;34.64;244;03.34.29.019
12916;171849;34.64;245;03.34.29.019
12944;171855;34.64;246;03.34.29.030
12900;171854;34.64;247;03.34.29.030
12900;171862;34.64;248;03.34.29.030
12924;171857;34.64;249;03.34.29.030
12944;171859;34.64;250;03.34.29.139
12892;171856;34.64;251;03.34.29.139
12892;171864;34.64;252;03.34.29.139
12912;171862;34.64;253;03.34.29.139
12928;171863;34.64;254;03.34.29.150
12916;171870;34.64;255;03.34.29.150
12908;171861;34.64;256;03.34.29.150
12900;171872;34.64;257;03.34.29.150
12908;171859;34.64;258;03.34.29.150
12892;171866;34.64;259;03.34.29.150
12928;171863;34.64;260;03.34.29.150
12908;171875;34.64;261;03.34.29.150
12928;171868;34.64;262;03.34.29.150
12904;171873;34.64;263;03.34.29.150
12896;171875;34.64;264;03.34.29.150
12876;171866;34.64;265;03.34.29.150
12920;171866;34.64;266;03.34.29.150
12892;171870;34.64;267;03.34.29.161
12908;171863;34.64;268;03.34.29.161
12928;171873;34.64;269;03.34.29.161
12896;171869;34.64;270;03.34.29.161
12916;171865;34.64;271;03.34.29.161
12928;171857;34.64;272;03.34.29.161
12904;171863;34.64;273;03.34.29.161
12932;171865;34.64;274;03.34.29.161
12924;171866;34.64;275;03.34.29.249
12896;171863;34.64;276;03.34.29.260
12908;171872;34.64;277;03.34.29.260
12928;171860;34.64;278;03.34.29.260
12900;171857;34.64;279;03.34.29.260
12908;171865;34.64;280;03.34.29.260
12920;171863;34.64;281;03.34.29.260
12896;171868;34.64;282;03.34.29.260
12924;171865;34.64;283;03.34.29.282
12912;171864;34.64;284;03.34.29.282
12876;171860;34.64;285;03.34.29.282
12936;171855;34.64;286;03.34.29.282
12920;171848;34.64;287;03.34.29.282
12896;171844;34.64;288;03.34.29.282
12936;171843;34.64;289;03.34.29.282
12940;171832;34.64;290;03.34.29.282
12928;171825;34.64;291;03.34.29.282
12908;171830;34.64;292;03.34.29.326
12888;171823;34.64;293;03.34.29.326
12936;171813;34.64;294;03.34.29.326
12936;171805;34.64;295;03.34.29.326
12928;171794;34.64;296;03.34.29.326
12916;171797;34.64;297;03.34.29.326
12892;171786;34.64;298;03.34.29.326
12928;171787;34.64;299;03.34.29.326
12892;171782;34.64;300;03.34.29.369
12932;171782;34.64;301;03.34.29.369
12900;171768;34.64;302;03.34.29.369
12928;171763;34.64;303;03.34.29.369
12916;171749;34.64;304;03.34.29.369
12928;171744;34.64;305;03.34.29.369
12924;171743;34.64;306;03.34.29.369
12892;171754;34.64;307;03.34.29.369
12908;171745;34.64;308;03.34.29.369
12928;171739;34.64;309;03.34.29.369
12900;171744;34.64;310;03.34.29.369
12908;171730;34.64;311;03.34.29.380
12912;171735;34.64;312;03.34.29.380
12924;171727;34.64;313;03.34.29.380
12916;171726;34.64;314;03.34.29.380
12916;171729;34.64;315;03.34.29.380
12908;171730;34.64;316;03.34.29.380
12920;171731;34.64;317;03.34.29.380
12896;171729;34.64;318;03.34.29.380
12932;171745;34.64;319;03.34.29.380
12880;171737;34.64;320;03.34.29.380
12916;171747;34.64;321;03.34.29.380
12912;171745;34.64;322;03.34.29.380
12944;171752;34.64;323;03.34.29.380
12960;171752;34.64;324;03.34.29.391
12892;171757;34.64;325;03.34.29.511
12924;171762;34.64;326;03.34.29.511
12932;171768;34.64;327;03.34.29.511
12932;171768;34.64;328;03.34.29.511
12940;171777;34.64;329;03.34.29.511
12908;171773;34.64;330;03.34.29.522
12904;171786;34.64;331;03.34.29.522
12904;171791;34.64;332;03.34.29.522
12928;171794;34.64;333;03.34.29.522
12908;171798;34.64;334;03.34.29.522
12904;171798;34.64;335;03.34.29.522
12960;171802;34.64;336;03.34.29.522
12928;171816;34.64;337;03.34.29.522
12924;171816;34.64;338;03.34.29.522
12908;171818;34.64;339;03.34.29.522
12916;171817;34.64;340;03.34.29.533
12920;171817;34.64;341;03.34.29.533
12900;171830;34.64;342;03.34.29.555
12916;171840;34.64;343;03.34.29.555
12892;171834;34.64;344;03.34.29.555
12900;171829;34.64;345;03.34.29.555
12928;171835;34.64;346;03.34.29.566
12900;171835;34.64;347;03.34.29.566
12924;171841;34.64;348;03.34.29.566
12952;171834;34.64;349;03.34.29.566
12928;171830;34.64;350;03.34.29.642
12892;171827;34.64;351;03.34.29.642
12932;171826;34.64;352;03.34.29.642
12916;171813;34.64;353;03.34.29.642
12900;171809;34.64;354;03.34.29.642
12924;171802;34.64;355;03.34.29.642
12920;171805;34.64;356;03.34.29.642
12912;171798;34.64;357;03.34.29.642
12900;171788;34.64;358;03.34.29.642
12896;171786;34.64;359;03.34.29.642
12916;171781;34.64;360;03.34.29.642
12916;171772;34.64;361;03.34.29.642
12904;171768;34.64;362;03.34.29.642
12916;171764;34.64;363;03.34.29.653
12920;171755;34.64;364;03.34.29.653
12908;171747;34.64;365;03.34.29.653
12928;171737;34.64;366;03.34.29.653
12920;171734;34.64;367;03.34.29.653
12928;171732;34.64;368;03.34.29.653
12916;171729;34.64;369;03.34.29.653
12928;171722;34.64;370;03.34.29.653
12916;171718;34.64;371;03.34.29.653
12900;171725;34.64;372;03.34.29.653
12920;171721;34.64;373;03.34.29.653
12908;171705;34.64;374;03.34.29.653
12908;171708;34.68;375;03.34.29.752
12928;171703;34.68;376;03.34.29.752
12900;171705;34.68;377;03.34.29.752
12908;171713;34.68;378;03.34.29.752
12928;171704;34.68;379;03.34.29.752
12932;171709;34.68;380;03.34.29.752
12924;171712;34.68;381;03.34.29.752
12912;171704;34.68;382;03.34.29.752
12940;171701;34.68;383;03.34.29.752
12892;171705;34.68;384;03.34.29.752
12900;171696;34.68;385;03.34.29.763
12912;171691;34.68;386;03.34.29.763
12900;171700;34.68;387;03.34.29.763
12904;171693;34.68;388;03.34.29.763
12936;171696;34.68;389;03.34.29.763
12908;171701;34.68;390;03.34.29.763
12920;171693;34.68;391;03.34.29.763
12916;171692;34.68;392;03.34.29.774
12912;171698;34.68;393;03.34.29.774
12928;171691;34.68;394;03.34.29.774
12928;171696;34.68;395;03.34.29.774
12916;171698;34.68;396;03.34.29.774
12932;171692;34.68;397;03.34.29.774
12928;171697;34.68;398;03.34.29.774
12960;171702;34.68;399;03.34.29.774
12892;171701;34.68;400;03.34.29.873
12936;171701;34.68;401;03.34.29.873
12928;171716;34.68;402;03.34.29.873
12908;171710;34.68;403;03.34.29.873
12924;171709;34.68;404;03.34.29.873
12936;171710;34.68;405;03.34.29.873
12928;171709;34.68;406;03.34.29.873
12908;171706;34.68;407;03.34.29.884
12920;171711;34.68;408;03.34.29.884
12908;171717;34.68;409;03.34.29.884
12904;171714;34.68;410;03.34.29.884
12904;171712;34.68;411;03.34.29.884
12892;171717;34.68;412;03.34.29.884
12904;171718;34.68;413;03.34.29.884
12928;171718;34.68;414;03.34.29.884
12908;171715;34.68;415;03.34.29.884
12920;171711;34.68;416;03.34.29.895
12892;171717;34.68;417;03.34.29.906
12920;171707;34.68;418;03.34.29.906
12924;171717;34.68;419;03.34.29.906
12936;171717;34.68;420;03.34.29.906
12924;171709;34.68;421;03.34.29.906
12928;171709;34.68;422;03.34.29.906
12920;171708;34.68;423;03.34.29.906
12932;171708;34.68;424;03.34.29.917
12932;171705;34.64;425;03.34.30.004
12916;171713;34.64;426;03.34.30.004
12892;171708;34.64;427;03.34.30.015
12900;171703;34.64;428;03.34.30.015
12928;171703;34.64;429;03.34.30.015
12912;171715;34.64;430;03.34.30.015
12908;171704;34.64;431;03.34.30.015
12904;171703;34.64;432;03.34.30.015
12892;171704;34.64;433;03.34.30.015
12932;171708;34.64;434;03.34.30.015
12908;171711;34.64;435;03.34.30.015
12912;171700;34.64;436;03.34.30.015
12912;171698;34.64;437;03.34.30.026
12936;171703;34.64;438;03.34.30.026
12904;171707;34.64;439;03.34.30.026
12892;171703;34.64;440;03.34.30.026
12916;171704;34.64;441;03.34.30.026
12908;171700;34.64;442;03.34.30.037
12912;171705;34.64;443;03.34.30.037
12916;171696;34.64;444;03.34.30.037
12892;171708;34.64;445;03.34.30.048
12928;171709;34.64;446;03.34.30.048
12912;171698;34.64;447;03.34.30.048
12892;171702;34.64;448;03.34.30.048
12908;171707;34.64;449;03.34.30.048
12912;171700;34.64;450;03.34.30.136
12916;171712;34.64;451;03.34.30.136
12900;171702;34.64;452;03.34.30.136
12932;171697;34.64;453;03.34.30.136
12924;171709;34.64;454;03.34.30.136
12908;171704;34.64;455;03.34.30.136
12912;171704;34.64;456;03.34.30.136
12928;171703;34.64;457;03.34.30.136
12912;171704;34.64;458;03.34.30.136
12908;171696;34.64;459;03.34.30.136
12900;171705;34.64;460;03.34.30.136
12912;171704;34.64;461;03.34.30.136
12916;171705;34.64;462;03.34.30.147
12924;171708;34.64;463;03.34.30.147
12936;171713;34.64;464;03.34.30.147
12904;171711;34.64;465;03.34.30.147
12892;171716;34.64;466;03.34.30.147
12924;171711;34.64;467;03.34.30.147
12924;171716;34.64;468;03.34.30.147
12912;171721;34.64;469;03.34.30.147
12932;171719;34.64;470;03.34.30.147
12920;171725;34.64;471;03.34.30.147
12928;171720;34.64;472;03.34.30.147
12928;171724;34.64;473;03.34.30.147
12944;171731;34.64;474;03.34.30.147
12884;171732;34.64;475;03.34.30.246
12932;171721;34.64;476;03.34.30.246
12892;171730;34.64;477;03.34.30.246
12944;171736;34.64;478;03.34.30.246
12928;171729;34.64;479;03.34.30.246
12892;171727;34.64;480;03.34.30.246
12948;171734;34.64;481;03.34.30.246
12916;171744;34.64;482;03.34.30.246
12912;171738;34.64;483;03.34.30.257
12932;171729;34.64;484;03.34.30.257
12916;171738;34.64;485;03.34.30.257
12936;171747;34.64;486;03.34.30.257
12924;171738;34.64;487;03.34.30.257
12904;171727;34.64;488;03.34.30.257
12908;171727;34.64;489;03.34.30.257
12928;171717;34.64;490;03.34.30.257
12936;171717;34.64;491;03.34.30.268
12916;171717;34.64;492;03.34.30.268
12892;171723;34.64;493;03.34.30.268
12928;171711;34.64;494;03.34.30.268
12920;171704;34.64;495;03.34.30.268
12904;171703;34.64;496;03.34.30.268
12928;171697;34.64;497;03.34.30.268
12936;171691;34.64;498;03.34.30.268
12924;171690;34.64;499;03.34.30.268
12916;171683;34.64;500;03.34.30.366
12912;171679;34.64;501;03.34.30.366
12920;171682;34.64;502;03.34.30.366
12920;171676;34.64;503;03.34.30.366
12928;171669;34.64;504;03.34.30.366
12920;171675;34.64;505;03.34.30.377
12908;171667;34.64;506;03.34.30.377
12908;171654;34.64;507;03.34.30.377
12928;171663;34.64;508;03.34.30.377
12900;171656;34.64;509;03.34.30.377
12924;171652;34.64;510;03.34.30.377
12924;171658;34.64;511;03.34.30.377
12944;171658;34.64;512;03.34.30.377
12936;171653;34.64;513;03.34.30.377
12912;171659;34.64;514;03.34.30.377
12928;171657;34.64;515;03.34.30.377
12944;171653;34.64;516;03.34.30.377
12932;171658;34.64;517;03.34.30.377
12928;171654;34.64;518;03.34.30.388
12892;171653;34.64;519;03.34.30.388
12928;171648;34.64;520;03.34.30.388
12892;171659;34.64;521;03.34.30.388
12916;171651;34.64;522;03.34.30.388
12900;171655;34.64;523;03.34.30.388
12940;171658;34.64;524;03.34.30.388
12920;171655;34.64;525;03.34.30.487
12924;171652;34.64;526;03.34.30.487
12916;171654;34.64;527;03.34.30.498
12908;171658;34.64;528;03.34.30.498
12916;171658;34.64;529;03.34.30.498
12952;171661;34.64;530;03.34.30.498
12928;171656;34.64;531;03.34.30.498
12932;171663;34.64;532;03.34.30.498
12920;171653;34.64;533;03.34.30.498
12912;171657;34.64;534;03.34.30.498
12900;171653;34.64;535;03.34.30.498
12920;171657;34.64;536;03.34.30.498
12920;171671;34.64;537;03.34.30.498
12928;171673;34.64;538;03.34.30.498
12892;171671;34.64;539;03.34.30.509
12908;171670;34.64;540;03.34.30.509
12920;171661;34.64;541;03.34.30.509
12924;171670;34.64;542;03.34.30.509
12908;171660;34.64;543;03.34.30.509
12892;171666;34.64;544;03.34.30.509
12928;171672;34.64;545;03.34.30.509
12916;171672;34.64;546;03.34.30.509
12916;171673;34.64;547;03.34.30.509
12916;171665;34.64;548;03.34.30.509
12912;171667;34.64;549;03.34.30.509
12912;171670;34.64;550;03.34.30.652
12928;171669;34.64;551;03.34.30.652
12928;171670;34.64;552;03.34.30.652
12916;171674;34.64;553;03.34.30.652
12920;171670;34.64;554;03.34.30.652
12916;171667;34.64;555;03.34.30.652
12916;171673;34.64;556;03.34.30.652
12916;171678;34.64;557;03.34.30.652
12928;171663;34.64;558;03.34.30.652
12908;171666;34.64;559;03.34.30.652
12912;171670;34.64;560;03.34.30.663
12896;171667;34.64;561;03.34.30.663
12908;171666;34.64;562;03.34.30.663
12928;171670;34.64;563;03.34.30.663
12928;171671;34.64;564;03.34.30.663
12924;171671;34.64;565;03.34.30.663
12928;171674;34.64;566;03.34.30.663
12896;171674;34.64;567;03.34.30.674
12896;171665;34.64;568;03.34.30.674
12924;171667;34.64;569;03.34.30.674
12904;171666;34.64;570;03.34.30.674
12916;171673;34.64;571;03.34.30.674
12892;171668;34.64;572;03.34.30.674
12920;171665;34.64;573;03.34.30.674
12924;171669;34.64;574;03.34.30.674
12892;171675;34.64;575;03.34.30.761
12920;171667;34.64;576;03.34.30.761
12944;171677;34.64;577;03.34.30.761
12928;171669;34.64;578;03.34.30.761
12892;171676;34.64;579;03.34.30.761
12936;171674;34.64;580;03.34.30.761
12928;171677;34.64;581;03.34.30.761
12896;171686;34.64;582;03.34.30.772
12888;171683;34.64;583;03.34.30.783
12924;171679;34.64;584;03.34.30.783
12928;171690;34.64;585;03.34.30.783
12904;171677;34.64;586;03.34.30.783
12908;171688;34.64;587;03.34.30.783
12896;171686;34.64;588;03.34.30.783
12904;171691;34.64;589;03.34.30.783
12892;171690;34.64;590;03.34.30.783
12936;171693;34.64;591;03.34.30.794
12944;171696;34.64;592;03.34.30.805
12916;171705;34.64;593;03.34.30.805
12892;171702;34.64;594;03.34.30.805
12928;171701;34.64;595;03.34.30.805
12908;171699;34.64;596;03.34.30.805
12932;171712;34.64;597;03.34.30.805
12928;171714;34.64;598;03.34.30.816
12932;171717;34.64;599;03.34.30.816
12908;171703;34.64;600;03.34.30.871
12892;171721;34.64;601;03.34.30.871
12936;171719;34.64;602;03.34.30.871
12924;171722;34.64;603;03.34.30.882
12916;171717;34.64;604;03.34.30.882
12892;171717;34.64;605;03.34.30.882
12952;171725;34.64;606;03.34.30.882
12936;171727;34.64;607;03.34.30.882
12920;171724;34.64;608;03.34.30.882
12916;171727;34.64;609;03.34.30.882
12892;171727;34.64;610;03.34.30.882
12932;171729;34.64;611;03.34.30.893
12928;171724;34.64;612;03.34.30.893
12928;171732;34.64;613;03.34.30.893
12928;171730;34.64;614;03.34.30.893
12912;171739;34.64;615;03.34.30.893
12932;171738;34.64;616;03.34.30.893
12908;171739;34.64;617;03.34.30.893
12960;171743;34.64;618;03.34.30.893
12888;171739;34.64;619;03.34.30.893
12896;171737;34.64;620;03.34.30.893
12916;171732;34.64;621;03.34.30.893
12924;171731;34.64;622;03.34.30.893
12908;171723;34.64;623;03.34.30.904
12944;171729;34.64;624;03.34.30.904
12916;171721;34.64;625;03.34.31.003
12920;171717;34.64;626;03.34.31.003
12928;171718;34.64;627;03.34.31.003
12928;171708;34.64;628;03.34.31.003
12948;171706;34.64;629;03.34.31.003
12920;171695;34.64;630;03.34.31.003
12920;171697;34.64;631;03.34.31.003
12908;171696;34.64;632;03.34.31.003
12908;171686;34.64;633;03.34.31.003
12912;171695;34.64;634;03.34.31.003
12920;171673;34.64;635;03.34.31.003
12916;171685;34.64;636;03.34.31.003
12968;171677;34.64;637;03.34.31.014
12912;171674;34.64;638;03.34.31.014
12928;171667;34.64;639;03.34.31.014
12904;171676;34.64;640;03.34.31.014
12944;171662;34.64;641;03.34.31.014
12916;171672;34.64;642;03.34.31.014
12916;171663;34.64;643;03.34.31.014
12900;171663;34.64;644;03.34.31.014
12928;171662;34.64;645;03.34.31.014
12920;171657;34.64;646;03.34.31.014
12928;171662;34.64;647;03.34.31.014
12928;171657;34.64;648;03.34.31.014
12944;171656;34.64;649;03.34.31.014
12928;171665;34.64;650;03.34.31.123
12912;171664;34.64;651;03.34.31.123
12912;171665;34.64;652;03.34.31.123
12928;171662;34.64;653;03.34.31.123
12920;171666;34.64;654;03.34.31.123
12892;171663;34.64;655;03.34.31.123
12928;171665;34.64;656;03.34.31.123
12908;171672;34.64;657;03.34.31.123
12900;171664;34.64;658;03.34.31.134
12908;171673;34.64;659;03.34.31.134
12924;171672;34.64;660;03.34.31.134
12908;171668;34.64;661;03.34.31.134
12936;171672;34.64;662;03.34.31.134
12892;171677;34.64;663;03.34.31.134
12892;171673;34.64;664;03.34.31.134
12928;171674;34.64;665;03.34.31.134
12932;171681;34.64;666;03.34.31.134
12960;171681;34.64;667;03.34.31.134
12932;171682;34.64;668;03.34.31.134
12928;171685;34.64;669;03.34.31.134
12928;171690;34.64;670;03.34.31.145
12920;171687;34.64;671;03.34.31.145
12908;171689;34.64;672;03.34.31.145
12924;171677;34.64;673;03.34.31.145
12956;171690;34.64;674;03.34.31.145
12944;171681;34.64;675;03.34.31.254
12924;171683;34.64;676;03.34.31.254
12928;171678;34.64;677;03.34.31.254
12920;171690;34.64;678;03.34.31.254
12928;171683;34.64;679;03.34.31.265
12916;171686;34.64;680;03.34.31.265
12908;171683;34.64;681;03.34.31.265
12920;171677;34.64;682;03.34.31.265
12900;171682;34.64;683;03.34.31.265
12932;171679;34.64;684;03.34.31.265
12924;171681;34.64;685;03.34.31.265
12928;171680;34.64;686;03.34.31.265
12936;171678;34.64;687;03.34.31.265
12928;171674;34.64;688;03.34.31.265
12908;171671;34.64;689;03.34.31.265
12908;171674;34.64;690;03.34.31.265
12916;171668;34.64;691;03.34.31.265
12892;171670;34.64;692;03.34.31.276
12904;171667;34.64;693;03.34.31.276
12928;171665;34.64;694;03.34.31.276
12928;171673;34.64;695;03.34.31.276
12928;171673;34.64;696;03.34.31.276
12932;171663;34.64;697;03.34.31.276
12924;171665;34.64;698;03.34.31.276
12936;171666;34.64;699;03.34.31.276
12892;171663;34.64;700;03.34.31.364
12924;171667;34.64;701;03.34.31.375
12916;171665;34.64;702;03.34.31.375
12916;171667;34.64;703;03.34.31.375
12892;171667;34.64;704;03.34.31.375
12896;171664;34.64;705;03.34.31.375
12928;171665;34.64;706;03.34.31.375
12912;171670;34.64;707;03.34.31.375
12932;171666;34.64;708;03.34.31.386
12932;171668;34.64;709;03.34.31.386
12912;171672;34.64;710;03.34.31.386
12912;171672;34.64;711;03.34.31.386
12916;171666;34.64;712;03.34.31.386
12928;171673;34.64;713;03.34.31.386
12916;171671;34.64;714;03.34.31.386
12892;171667;34.64;715;03.34.31.386
12888;171678;34.64;716;03.34.31.386
12936;171681;34.64;717;03.34.31.386
12928;171674;34.64;718;03.34.31.397
12944;171681;34.64;719;03.34.31.397
12908;171687;34.64;720;03.34.31.397
12920;171684;34.64;721;03.34.31.397
12928;171681;34.64;722;03.34.31.397
12892;171687;34.64;723;03.34.31.397
12932;171680;34.64;724;03.34.31.397
12932;171692;34.64;725;03.34.31.496
12892;171693;34.64;726;03.34.31.496
12900;171692;34.64;727;03.34.31.496
12928;171688;34.64;728;03.34.31.496
12924;171691;34.64;729;03.34.31.496
12920;171690;34.64;730;03.34.31.496
12944;171695;34.64;731;03.34.31.496
12912;171694;34.64;732;03.34.31.496
12892;171694;34.64;733;03.34.31.496
12940;171692;34.64;734;03.34.31.496
12928;171701;34.64;735;03.34.31.496
12892;171700;34.64;736;03.34.31.507
12904;171712;34.64;737;03.34.31.507
12888;171704;34.64;738;03.34.31.507
12948;171710;34.64;739;03.34.31.507
12916;171710;34.64;740;03.34.31.507
12892;171710;34.64;741;03.34.31.507
12908;171703;34.64;742;03.34.31.507
12892;171710;34.64;743;03.34.31.507
12912;171710;34.64;744;03.34.31.507
12908;171705;34.64;745;03.34.31.507
12936;171708;34.64;746;03.34.31.507
12920;171702;34.64;747;03.34.31.507
12920;171696;34.64;748;03.34.31.518
12960;171694;34.64;749;03.34.31.518
12928;171689;34.64;750;03.34.31.615
12908;171679;34.64;751;03.34.31.615
12928;171676;34.64;752;03.34.31.615
12932;171681;34.64;753;03.34.31.615
12912;171676;34.64;754;03.34.31.615
12900;171670;34.64;755;03.34.31.615
12908;171662;34.64;756;03.34.31.626
12912;171661;34.64;757;03.34.31.626
12908;171657;34.64;758;03.34.31.626
12912;171650;34.64;759;03.34.31.626
12928;171650;34.64;760;03.34.31.626
12920;171647;34.64;761;03.34.31.626
12940;171644;34.64;762;03.34.31.626
12916;171641;34.64;763;03.34.31.626
12892;171640;34.64;764;03.34.31.626
12896;171636;34.64;765;03.34.31.626
12924;171636;34.64;766;03.34.31.626
12900;171632;34.64;767;03.34.31.626
12904;171621;34.64;768;03.34.31.637
12916;171623;34.64;769;03.34.31.637
12928;171624;34.64;770;03.34.31.637
12900;171623;34.64;771;03.34.31.637
12892;171617;34.64;772;03.34.31.637
12912;171617;34.64;773;03.34.31.637
12908;171615;34.64;774;03.34.31.637
12888;171617;34.68;775;03.34.31.747
12892;171606;34.68;776;03.34.31.747
12912;171607;34.68;777;03.34.31.758
12912;171614;34.68;778;03.34.31.758
12924;171608;34.68;779;03.34.31.758
12912;171616;34.68;780;03.34.31.758
12916;171618;34.68;781;03.34.31.758
12932;171611;34.68;782;03.34.31.758
12892;171620;34.68;783;03.34.31.758
12916;171613;34.68;784;03.34.31.758
12904;171620;34.68;785;03.34.31.758
12912;171615;34.68;786;03.34.31.758
12928;171616;34.68;787;03.34.31.758
12912;171617;34.68;788;03.34.31.758
12944;171618;34.68;789;03.34.31.758
12900;171625;34.68;790;03.34.31.769
12916;171624;34.68;791;03.34.31.769
12920;171620;34.68;792;03.34.31.769
12928;171615;34.68;793;03.34.31.769
12916;171631;34.68;794;03.34.31.769
12908;171617;34.68;795;03.34.31.769
12920;171629;34.68;796;03.34.31.769
12928;171621;34.68;797;03.34.31.769
12900;171618;34.68;798;03.34.31.769
12924;171632;34.68;799;03.34.31.769
12944;171618;34.68;800;03.34.31.890
12932;171614;34.68;801;03.34.31.890
12928;171622;34.68;802;03.34.31.890
12928;171623;34.68;803;03.34.31.890
12912;171618;34.68;804;03.34.31.890
12900;171624;34.68;805;03.34.31.890
12916;171624;34.68;806;03.34.31.890
12892;171614;34.68;807;03.34.31.890
12944;171619;34.68;808;03.34.31.890
12928;171611;34.68;809;03.34.31.890
12928;171615;34.68;810;03.34.31.890
12936;171608;34.68;811;03.34.31.901
12924;171616;34.68;812;03.34.31.901
12916;171611;34.68;813;03.34.31.901
12896;171611;34.68;814;03.34.31.901
12916;171619;34.68;815;03.34.31.901
12880;171610;34.68;816;03.34.31.901
12916;171620;34.68;817;03.34.31.901
12912;171613;34.68;818;03.34.31.901
12912;171615;34.68;819;03.34.31.901
12900;171604;34.68;820;03.34.31.901
12888;171610;34.68;821;03.34.31.901
12920;171612;34.68;822;03.34.31.901
12908;171612;34.68;823;03.34.31.912
12912;171608;34.68;824;03.34.31.912
12924;171606;34.64;825;03.34.31.999
12928;171613;34.64;826;03.34.31.999
12928;171618;34.64;827;03.34.31.999
12920;171619;34.64;828;03.34.31.999
12912;171621;34.64;829;03.34.31.999
12912;171617;34.64;830;03.34.31.999
12884;171614;34.64;831;03.34.31.999
12924;171614;34.64;832;03.34.32.010
12900;171614;34.64;833;03.34.32.021
12920;171619;34.64;834;03.34.32.021
12928;171618;34.64;835;03.34.32.021
12920;171615;34.64;836;03.34.32.021
12932;171614;34.64;837;03.34.32.021
12924;171615;34.64;838;03.34.32.021
12908;171618;34.64;839;03.34.32.021
12928;171610;34.64;840;03.34.32.021
12920;171622;34.64;841;03.34.32.032
12928;171618;34.64;842;03.34.32.032
12932;171607;34.64;843;03.34.32.032
12920;171622;34.64;844;03.34.32.032
12920;171617;34.64;845;03.34.32.032
12904;171623;34.64;846;03.34.32.032
12912;171624;34.64;847;03.34.32.032
12916;171618;34.64;848;03.34.32.032
12916;171628;34.64;849;03.34.32.032
12920;171622;34.64;850;03.34.32.120
12908;171621;34.64;851;03.34.32.120
12916;171628;34.64;852;03.34.32.120
12916;171620;34.64;853;03.34.32.131
12920;171627;34.64;854;03.34.32.131
12892;171624;34.64;855;03.34.32.131
12908;171624;34.64;856;03.34.32.131
12936;171624;34.64;857;03.34.32.131
12936;171620;34.64;858;03.34.32.131
12924;171627;34.64;859;03.34.32.131
12908;171631;34.64;860;03.34.32.131
12912;171628;34.64;861;03.34.32.131
12912;171625;34.64;862;03.34.32.131
12916;171629;34.64;863;03.34.32.131
12916;171627;34.64;864;03.34.32.131
12928;171632;34.64;865;03.34.32.131
12932;171632;34.64;866;03.34.32.142
12908;171621;34.64;867;03.34.32.142
12924;171619;34.64;868;03.34.32.142
12928;171618;34.64;869;03.34.32.142
12932;171605;34.64;870;03.34.32.142
12872;171604;34.64;871;03.34.32.142
12888;171601;34.64;872;03.34.32.142
12924;171592;34.64;873;03.34.32.142
12948;171588;34.64;874;03.34.32.142
12892;171582;34.64;875;03.34.32.263
12936;171581;34.64;876;03.34.32.263
12884;171578;34.64;877;03.34.32.263
12892;171567;34.64;878;03.34.32.263
12904;171563;34.64;879;03.34.32.263
12912;171561;34.64;880;03.34.32.263
12912;171559;34.64;881;03.34.32.263
12908;171550;34.64;882;03.34.32.263
12924;171542;34.64;883;03.34.32.263
12916;171547;34.64;884;03.34.32.263
12928;171540;34.64;885;03.34.32.263
12936;171529;34.64;886;03.34.32.263
12928;171530;34.64;887;03.34.32.274
12928;171522;34.64;888;03.34.32.274
12892;171525;34.64;889;03.34.32.274
12928;171517;34.64;890;03.34.32.274
12900;171508;34.64;891;03.34.32.274
12936;171509;34.64;892;03.34.32.274
12928;171509;34.64;893;03.34.32.274
12908;171504;34.64;894;03.34.32.274
12920;171503;34.64;895;03.34.32.274
12900;171508;34.64;896;03.34.32.274
12928;171510;34.64;897;03.34.32.274
12916;171506;34.64;898;03.34.32.274
12944;171495;34.64;899;03.34.32.274
12908;171503;34.64;900;03.34.32.394
12928;171500;34.64;901;03.34.32.394
12928;171500;34.64;902;03.34.32.394
12928;171495;34.64;903;03.34.32.394
12908;171505;34.64;904;03.34.32.394
12912;171499;34.64;905;03.34.32.394
12916;171493;34.64;906;03.34.32.394
12900;171493;34.64;907;03.34.32.394
12908;171499;34.64;908;03.34.32.394
12932;171492;34.64;909;03.34.32.405
12948;171494;34.64;910;03.34.32.405
12904;171492;34.64;911;03.34.32.405
12908;171484;34.64;912;03.34.32.405
12936;171488;34.64;913;03.34.32.405
12932;171494;34.64;914;03.34.32.405
12944;171495;34.64;915;03.34.32.405
12896;171501;34.64;916;03.34.32.405
12916;171493;34.64;917;03.34.32.405
12928;171490;34.64;918;03.34.32.405
12920;171489;34.64;919;03.34.32.405
12876;171491;34.64;920;03.34.32.405
12912;171495;34.64;921;03.34.32.405
12916;171490;34.64;922;03.34.32.416
12936;171483;34.64;923;03.34.32.416
12928;171493;34.64;924;03.34.32.416
12920;171492;34.64;925;03.34.32.526
12928;171497;34.64;926;03.34.32.526
12920;171492;34.64;927;03.34.32.526
12924;171494;34.64;928;03.34.32.526
12912;171494;34.64;929;03.34.32.526
12936;171490;34.64;930;03.34.32.537
12896;171494;34.64;931;03.34.32.537
12888;171496;34.64;932;03.34.32.537
12912;171495;34.64;933;03.34.32.537
12928;171491;34.64;934;03.34.32.537
12924;171499;34.64;935;03.34.32.537
12916;171498;34.64;936;03.34.32.537
12944;171493;34.64;937;03.34.32.537
12916;171492;34.64;938;03.34.32.537
12904;171493;34.64;939;03.34.32.537
12908;171486;34.64;940;03.34.32.537
12928;171493;34.64;941;03.34.32.537
12932;171488;34.64;942;03.34.32.537
12912;171485;34.64;943;03.34.32.548
12928;171490;34.64;944;03.34.32.548
12888;171487;34.64;945;03.34.32.548
12892;171487;34.64;946;03.34.32.548
12924;171490;34.64;947;03.34.32.548
12936;171497;34.64;948;03.34.32.548
12916;171497;34.64;949;03.34.32.548
12912;171495;34.64;950;03.34.32.625
12900;171490;34.64;951;03.34.32.625
12924;171490;34.64;952;03.34.32.636
12936;171498;34.64;953;03.34.32.636
12908;171494;34.64;954;03.34.32.636
12900;171499;34.64;955;03.34.32.636
12936;171495;34.64;956;03.34.32.636
12916;171498;34.64;957;03.34.32.636
12912;171490;34.64;958;03.34.32.636
12900;171500;34.64;959;03.34.32.636
12912;171501;34.64;960;03.34.32.636
12932;171499;34.64;961;03.34.32.636
12892;171502;34.64;962;03.34.32.636
12924;171495;34.64;963;03.34.32.636
12960;171500;34.64;964;03.34.32.636
12908;171505;34.64;965;03.34.32.647
12928;171494;34.64;966;03.34.32.647
12928;171500;34.64;967;03.34.32.647
12908;171494;34.64;968;03.34.32.647
12920;171491;34.64;969;03.34.32.647
12924;171506;34.64;970;03.34.32.647
12908;171506;34.64;971;03.34.32.647
12884;171507;34.64;972;03.34.32.647
12928;171505;34.64;973;03.34.32.647
12932;171510;34.64;974;03.34.32.647
12888;171507;34.64;975;03.34.32.756
12932;171517;34.64;976;03.34.32.756
12920;171509;34.64;977;03.34.32.756
12928;171514;34.64;978;03.34.32.756
12908;171517;34.64;979;03.34.32.756
12928;171511;34.64;980;03.34.32.756
12928;171507;34.64;981;03.34.32.756
12912;171511;34.64;982;03.34.32.756
12900;171509;34.64;983;03.34.32.756
12892;171521;34.64;984;03.34.32.756
12908;171520;34.64;985;03.34.32.756
12936;171527;34.64;986;03.34.32.767
12928;171518;34.64;987;03.34.32.767
12912;171521;34.64;988;03.34.32.767
12908;171529;34.64;989;03.34.32.767
12892;171519;34.64;990;03.34.32.767
12924;171525;34.64;991;03.34.32.767
12928;171522;34.64;992;03.34.32.767
12932;171524;34.64;993;03.34.32.767
12908;171514;34.64;994;03.34.32.767
12904;171520;34.64;995;03.34.32.767
12944;171514;34.64;996;03.34.32.767
12892;171508;34.64;997;03.34.32.767
12908;171506;34.64;998;03.34.32.767
12932;171505;34.64;999;03.34.32.778
12908;171494;34.64;000;03.34.32.888
12904;171492;34.64;001;03.34.32.888
12916;171483;34.64;002;03.34.32.888
12916;171488;34.64;003;03.34.32.888
12928;171476;34.64;004;03.34.32.888
12928;171477;34.64;005;03.34.32.888
12928;171466;34.64;006;03.34.32.899
12900;171460;34.64;007;03.34.32.899
12912;171460;34.64;008;03.34.32.899
12908;171459;34.64;009;03.34.32.899
12928;171461;34.64;010;03.34.32.899
12916;171459;34.64;011;03.34.32.899
12900;171456;34.64;012;03.34.32.899
12904;171439;34.64;013;03.34.32.899
12936;171448;34.64;014;03.34.32.899
12928;171442;34.64;015;03.34.32.899
12928;171438;34.64;016;03.34.32.899
12928;171429;34.64;017;03.34.32.899
12928;171427;34.64;018;03.34.32.899
12924;171424;34.64;019;03.34.32.910
12924;171426;34.64;020;03.34.32.910
12932;171429;34.64;021;03.34.32.910
12912;171422;34.64;022;03.34.32.910
12908;171420;34.64;023;03.34.32.910
12932;171420;34.64;024;03.34.32.910
12900;171414;34.64;025;03.34.33.020
12908;171411;34.64;026;03.34.33.020
12912;171412;34.64;027;03.34.33.020
12928;171412;34.64;028;03.34.33.020
12944;171412;34.64;029;03.34.33.031
12892;171406;34.64;030;03.34.33.031
12916;171422;34.64;031;03.34.33.031
12932;171411;34.64;032;03.34.33.031
12944;171407;34.64;033;03.34.33.031
12928;171411;34.64;034;03.34.33.031
12924;171412;34.64;035;03.34.33.031
12920;171412;34.64;036;03.34.33.031
12924;171409;34.64;037;03.34.33.031
12924;171407;34.64;038;03.34.33.031
12928;171409;34.64;039;03.34.33.031
12928;171410;34.64;040;03.34.33.031
12932;171410;34.64;041;03.34.33.031
12888;171415;34.64;042;03.34.33.041
12916;171420;34.64;043;03.34.33.041
12928;171424;34.64;044;03.34.33.041
12932;171420;34.64;045;03.34.33.041
12884;171413;34.64;046;03.34.33.041
12928;171414;34.64;047;03.34.33.041
12916;171420;34.64;048;03.34.33.041
12920;171415;34.64;049;03.34.33.041
12884;171414;34.64;050;03.34.33.129
12944;171421;34.64;051;03.34.33.129
12904;171423;34.64;052;03.34.33.129
12928;171417;34.64;053;03.34.33.129
12884;171423;34.64;054;03.34.33.129
12944;171422;34.64;055;03.34.33.129
12892;171420;34.64;056;03.34.33.129
12916;171421;34.64;057;03.34.33.129
12936;171419;34.64;058;03.34.33.140
12912;171421;34.64;059;03.34.33.140
12916;171420;34.64;060;03.34.33.140
12896;171432;34.64;061;03.34.33.140
12928;171430;34.64;062;03.34.33.140
12928;171418;34.64;063;03.34.33.140
12920;171419;34.64;064;03.34.33.140
12908;171423;34.64;065;03.34.33.140
12900;171422;34.64;066;03.34.33.140
12928;171423;34.64;067;03.34.33.162
12908;171423;34.64;068;03.34.33.162
12928;171420;34.64;069;03.34.33.162
12916;171419;34.64;070;03.34.33.162
12936;171420;34.64;071;03.34.33.162
12928;171427;34.64;072;03.34.33.162
12908;171435;34.64;073;03.34.33.162
12916;171429;34.64;074;03.34.33.162
12928;171424;34.64;075;03.34.33.250
12916;171423;34.64;076;03.34.33.250
12932;171428;34.64;077;03.34.33.250
12928;171422;34.64;078;03.34.33.250
12892;171423;34.64;079;03.34.33.250
12904;171426;34.64;080;03.34.33.250
12936;171424;34.64;081;03.34.33.250
12924;171432;34.64;082;03.34.33.250
12928;171439;34.64;083;03.34.33.261
12916;171438;34.64;084;03.34.33.261
12936;171428;34.64;085;03.34.33.261
12916;171441;34.64;086;03.34.33.261
12916;171440;34.64;087;03.34.33.261
12912;171433;34.64;088;03.34.33.261
12916;171438;34.64;089;03.34.33.261
12920;171441;34.64;090;03.34.33.261
12876;171440;34.64;091;03.34.33.261
12900;171448;34.64;092;03.34.33.294
12904;171445;34.64;093;03.34.33.294
12936;171445;34.64;094;03.34.33.294
12936;171452;34.64;095;03.34.33.294
12928;171461;34.64;096;03.34.33.294
12920;171451;34.64;097;03.34.33.294
12916;171462;34.64;098;03.34.33.294
12932;171458;34.64;099;03.34.33.294
12932;171463;34.64;100;03.34.33.382
12912;171463;34.64;101;03.34.33.382
12892;171464;34.64;102;03.34.33.382
12892;171465;34.64;103;03.34.33.382
12900;171472;34.64;104;03.34.33.382
12940;171478;34.64;105;03.34.33.382
12916;171478;34.64;106;03.34.33.393
12908;171473;34.64;107;03.34.33.393
12892;171471;34.64;108;03.34.33.393
12936;171474;34.64;109;03.34.33.393
12896;171473;34.64;110;03.34.33.393
12920;171483;34.64;111;03.34.33.393
12928;171486;34.64;112;03.34.33.393
12900;171489;34.64;113;03.34.33.393
12908;171484;34.64;114;03.34.33.393
12900;171482;34.64;115;03.34.33.393
12916;171487;34.64;116;03.34.33.393
12904;171501;34.64;117;03.34.33.404
12908;171497;34.64;118;03.34.33.404
12944;171502;34.64;119;03.34.33.404
12936;171498;34.64;120;03.34.33.404
12892;171511;34.64;121;03.34.33.404
12928;171507;34.64;122;03.34.33.414
12908;171501;34.64;123;03.34.33.414
12932;171506;34.64;124;03.34.33.414
12932;171508;34.64;125;03.34.33.491
12904;171514;34.64;126;03.34.33.491
12884;171515;34.64;127;03.34.33.502
12924;171513;34.64;128;03.34.33.502
12924;171505;34.64;129;03.34.33.502
12908;171520;34.64;130;03.34.33.502
12920;171516;34.64;131;03.34.33.502
12936;171518;34.64;132;03.34.33.502
12892;171524;34.64;133;03.34.33.513
12912;171523;34.64;134;03.34.33.513
12920;171527;34.64;135;03.34.33.524
12904;171529;34.64;136;03.34.33.524
12924;171524;34.64;137;03.34.33.524
12928;171526;34.64;138;03.34.33.524
12928;171524;34.64;139;03.34.33.524
12924;171530;34.64;140;03.34.33.524
12928;171520;34.64;141;03.34.33.524
12924;171520;34.64;142;03.34.33.524
12928;171513;34.64;143;03.34.33.524
12916;171510;34.64;144;03.34.33.524
12920;171503;34.64;145;03.34.33.524
12900;171499;34.64;146;03.34.33.524
12904;171499;34.64;147;03.34.33.524
12884;171488;34.64;148;03.34.33.535
12924;171487;34.64;149;03.34.33.535
12892;171482;34.64;150;03.34.33.623
12916;171475;34.64;151;03.34.33.623
12920;171472;34.64;152;03.34.33.623
12912;171473;34.64;153;03.34.33.623
12912;171463;34.64;154;03.34.33.623
12932;171460;34.64;155;03.34.33.623
12944;171461;34.64;156;03.34.33.623
12924;171449;34.64;157;03.34.33.623
12928;171452;34.64;158;03.34.33.655
12892;171452;34.64;159;03.34.33.655
12944;171446;34.64;160;03.34.33.655
12892;171445;34.64;161;03.34.33.655
12892;171442;34.64;162;03.34.33.655
12888;171434;34.64;163;03.34.33.655
12904;171431;34.64;164;03.34.33.655
12908;171433;34.64;165;03.34.33.655
12928;171428;34.64;166;03.34.33.655
12892;171421;34.64;167;03.34.33.655
12912;171428;34.64;168;03.34.33.655
12944;171428;34.64;169;03.34.33.666
12908;171432;34.64;170;03.34.33.666
12936;171429;34.64;171;03.34.33.666
12940;171427;34.64;172;03.34.33.666
12908;171425;34.64;173;03.34.33.666
12944;171422;34.64;174;03.34.33.666
12920;171418;34.64;175;03.34.33.742
12908;171418;34.64;176;03.34.33.742
12924;171411;34.64;177;03.34.33.742
12924;171424;34.64;178;03.34.33.742
12920;171413;34.64;179;03.34.33.742
12892;171422;34.64;180;03.34.33.742
12892;171430;34.64;181;03.34.33.753
12928;171425;34.64;182;03.34.33.753
12904;171410;34.64;183;03.34.33.753
12904;171419;34.64;184;03.34.33.753
12892;171413;34.64;185;03.34.33.753
12920;171418;34.64;186;03.34.33.753
12920;171412;34.64;187;03.34.33.753
12924;171410;34.64;188;03.34.33.753
12892;171411;34.64;189;03.34.33.753
12928;171417;34.64;190;03.34.33.753
12924;171427;34.64;191;03.34.33.753
12892;171428;34.64;192;03.34.33.753
12888;171431;34.64;193;03.34.33.753
12908;171417;34.64;194;03.34.33.764
12932;171424;34.64;195;03.34.33.764
12924;171430;34.64;196;03.34.33.764
12924;171425;34.64;197;03.34.33.764
12892;171436;34.64;198;03.34.33.764
12924;171427;34.64;199;03.34.33.764
12916;171429;34.64;200;03.34.33.873
12900;171425;34.64;201;03.34.33.884
12884;171424;34.64;202;03.34.33.884
12920;171432;34.64;203;03.34.33.884
12936;171435;34.64;204;03.34.33.884
12920;171435;34.64;205;03.34.33.884
12908;171436;34.64;206;03.34.33.884
12904;171432;34.64;207;03.34.33.884
12916;171432;34.64;208;03.34.33.884
12940;171430;34.64;209;03.34.33.884
12944;171435;34.64;210;03.34.33.884
12916;171434;34.64;211;03.34.33.884
12924;171429;34.64;212;03.34.33.884
12896;171436;34.64;213;03.34.33.884
12908;171428;34.64;214;03.34.33.895
12928;171426;34.64;215;03.34.33.895
12960;171421;34.64;216;03.34.33.895
12904;171431;34.64;217;03.34.33.895
12916;171431;34.64;218;03.34.33.895
12928;171435;34.64;219;03.34.33.895
12920;171428;34.64;220;03.34.33.895
12936;171428;34.64;221;03.34.33.895
12928;171433;34.64;222;03.34.33.895
12900;171441;34.64;223;03.34.33.895
12940;171441;34.64;224;03.34.33.895
12928;171441;34.64;225;03.34.34.015
12936;171444;34.64;226;03.34.34.015
12928;171432;34.64;227;03.34.34.015
12928;171444;34.64;228;03.34.34.015
12928;171435;34.64;229;03.34.34.015
12944;171441;34.64;230;03.34.34.015
12912;171446;34.64;231;03.34.34.015
12916;171449;34.64;232;03.34.34.015
12888;171447;34.64;233;03.34.34.015
12928;171438;34.64;234;03.34.34.015
12892;171450;34.64;235;03.34.34.026
12956;171451;34.64;236;03.34.34.026
12920;171447;34.64;237;03.34.34.026
12924;171449;34.64;238;03.34.34.026
12936;171454;34.64;239;03.34.34.026
12928;171455;34.64;240;03.34.34.026
12936;171448;34.64;241;03.34.34.026
12928;171460;34.64;242;03.34.34.026
12908;171462;34.64;243;03.34.34.026
12908;171463;34.64;244;03.34.34.026
12952;171465;34.64;245;03.34.34.026
12924;171462;34.64;246;03.34.34.026
12944;171466;34.64;247;03.34.34.037
12916;171468;34.64;248;03.34.34.037
12936;171463;34.64;249;03.34.34.037
12932;171471;34.64;250;03.34.34.125
12928;171477;34.64;251;03.34.34.125
12924;171478;34.64;252;03.34.34.125
12928;171471;34.64;253;03.34.34.125
12928;171484;34.64;254;03.34.34.125
12928;171475;34.64;255;03.34.34.125
12908;171478;34.64;256;03.34.34.136
12940;171472;34.64;257;03.34.34.136
12920;171475;34.64;258;03.34.34.147
12908;171485;34.64;259;03.34.34.147
12936;171483;34.64;260;03.34.34.147
12916;171485;34.64;261;03.34.34.147
12928;171491;34.64;262;03.34.34.147
12904;171491;34.64;263;03.34.34.147
12944;171491;34.64;264;03.34.34.147
12952;171499;34.64;265;03.34.34.158
12932;171498;34.64;266;03.34.34.158
12904;171493;34.64;267;03.34.34.158
12928;171497;34.64;268;03.34.34.158
12916;171503;34.64;269;03.34.34.158
12936;171496;34.64;270;03.34.34.158
12904;171500;34.64;271;03.34.34.158
12908;171506;34.64;272;03.34.34.158
12892;171503;34.64;273;03.34.34.158
12892;171512;34.64;274;03.34.34.158
12928;171506;34.64;275;03.34.34.245
12920;171513;34.64;276;03.34.34.245
12932;171514;34.64;277;03.34.34.245
12904;171519;34.64;278;03.34.34.256
12924;171514;34.64;279;03.34.34.256
12916;171522;34.64;280;03.34.34.256
12892;171521;34.64;281;03.34.34.256
12900;171520;34.64;282;03.34.34.256
12904;171522;34.64;283;03.34.34.256
12908;171530;34.64;284;03.34.34.256
12936;171528;34.64;285;03.34.34.256
12916;171532;34.64;286;03.34.34.256
12912;171524;34.64;287;03.34.34.256
12916;171529;34.64;288;03.34.34.256
12924;171534;34.64;289;03.34.34.256
12912;171531;34.64;290;03.34.34.256
12892;171541;34.64;291;03.34.34.267
12908;171538;34.64;292;03.34.34.267
12916;171537;34.64;293;03.34.34.267
12924;171540;34.64;294;03.34.34.267
12920;171530;34.64;295;03.34.34.267
12892;171535;34.64;296;03.34.34.267
12928;171538;34.64;297;03.34.34.267
12920;171536;34.64;298;03.34.34.267
12916;171537;34.64;299;03.34.34.267
12904;171535;34.64;300;03.34.34.398
12920;171534;34.64;301;03.34.34.398
12916;171533;34.64;302;03.34.34.398
12904;171520;34.64;303;03.34.34.398
12932;171523;34.64;304;03.34.34.398
12900;171524;34.64;305;03.34.34.398
12908;171515;34.64;306;03.34.34.398
12924;171504;34.64;307;03.34.34.398
12928;171508;34.64;308;03.34.34.409
12904;171503;34.64;309;03.34.34.409
12932;171491;34.64;310;03.34.34.409
12916;171475;34.64;311;03.34.34.409
12928;171474;34.64;312;03.34.34.409
12936;171473;34.64;313;03.34.34.409
12884;171471;34.64;314;03.34.34.409
12924;171470;34.64;315;03.34.34.409
12912;171460;34.64;316;03.34.34.409
12908;171461;34.64;317;03.34.34.421
12904;171459;34.64;318;03.34.34.421
12896;171453;34.64;319;03.34.34.421
12916;171450;34.64;320;03.34.34.421
12948;171452;34.64;321;03.34.34.421
12928;171444;34.64;322;03.34.34.421
12888;171451;34.64;323;03.34.34.421
12920;171442;34.64;324;03.34.34.421
12904;171427;34.60;325;03.34.34.509
12908;171433;34.60;326;03.34.34.509
12904;171433;34.60;327;03.34.34.509
12952;171433;34.60;328;03.34.34.509
12904;171432;34.60;329;03.34.34.509
12908;171434;34.60;330;03.34.34.509
12920;171431;34.60;331;03.34.34.509
12928;171435;34.60;332;03.34.34.509
12908;171435;34.60;333;03.34.34.520
12904;171429;34.60;334;03.34.34.520
12936;171429;34.60;335;03.34.34.520
12920;171436;34.60;336;03.34.34.520
12940;171428;34.60;337;03.34.34.520
12928;171439;34.60;338;03.34.34.520
12928;171443;34.60;339;03.34.34.520
12924;171433;34.60;340;03.34.34.520
12904;171431;34.60;341;03.34.34.520
12924;171431;34.60;342;03.34.34.520
12924;171427;34.60;343;03.34.34.520
12892;171427;34.60;344;03.34.34.520
12892;171427;34.60;345;03.34.34.520
12924;171428;34.60;346;03.34.34.531
12912;171429;34.60;347;03.34.34.531
12908;171429;34.60;348;03.34.34.531
12944;171433;34.60;349;03.34.34.531
12920;171434;34.60;350;03.34.34.618
12912;171442;34.60;351;03.34.34.618
12908;171441;34.60;352;03.34.34.618
12912;171436;34.60;353;03.34.34.618
12928;171437;34.60;354;03.34.34.618
12944;171430;34.60;355;03.34.34.629
12912;171426;34.60;356;03.34.34.629
12908;171432;34.60;357;03.34.34.629
12932;171434;34.60;358;03.34.34.629
12896;171428;34.60;359;03.34.34.629
12908;171441;34.60;360;03.34.34.629
12928;171441;34.60;361;03.34.34.629
12924;171429;34.60;362;03.34.34.640
12908;171439;34.60;363;03.34.34.640
12908;171438;34.60;364;03.34.34.640
12932;171440;34.60;365;03.34.34.640
12928;171425;34.60;366;03.34.34.640
12928;171436;34.60;367;03.34.34.640
12916;171432;34.60;368;03.34.34.640
12948;171431;34.60;369;03.34.34.640
12928;171429;34.60;370;03.34.34.640
12920;171437;34.60;371;03.34.34.640
12908;171429;34.60;372;03.34.34.640
12912;171431;34.60;373;03.34.34.640
12900;171431;34.60;374;03.34.34.640
12908;171428;34.60;375;03.34.34.739
12892;171429;34.60;376;03.34.34.750
12932;171429;34.60;377;03.34.34.750
12884;171434;34.60;378;03.34.34.750
12904;171439;34.60;379;03.34.34.750
12876;171429;34.60;380;03.34.34.750
12908;171433;34.60;381;03.34.34.750
12928;171431;34.60;382;03.34.34.750
12888;171432;34.60;383;03.34.34.750
12936;171428;34.60;384;03.34.34.750
12904;171431;34.60;385;03.34.34.750
12920;171431;34.60;386;03.34.34.750
12924;171432;34.60;387;03.34.34.750
12920;171438;34.60;388;03.34.34.750
12912;171439;34.60;389;03.34.34.761
12908;171445;34.60;390;03.34.34.761
12916;171440;34.60;391;03.34.34.761
12888;171444;34.60;392;03.34.34.761
12924;171444;34.60;393;03.34.34.761
12904;171448;34.60;394;03.34.34.761
12912;171449;34.60;395;03.34.34.761
12908;171444;34.60;396;03.34.34.761
12936;171449;34.60;397;03.34.34.761
12908;171452;34.60;398;03.34.34.761
12948;171456;34.60;399;03.34.34.761
12920;171455;34.60;400;03.34.34.867
12928;171456;34.60;401;03.34.34.867
12932;171458;34.60;402;03.34.34.867
12900;171462;34.60;403;03.34.34.867
12908;171456;34.60;404;03.34.34.867
12892;171461;34.60;405;03.34.34.878
12904;171462;34.60;406;03.34.34.878
12924;171469;34.60;407;03.34.34.878
12924;171451;34.60;408;03.34.34.878
12892;171465;34.60;409;03.34.34.878
12916;171457;34.60;410;03.34.34.878
12944;171472;34.60;411;03.34.34.878
12892;171469;34.60;412;03.34.34.878
12916;171471;34.60;413;03.34.34.889
12896;171476;34.60;414;03.34.34.889
12908;171473;34.60;415;03.34.34.889
12924;171484;34.60;416;03.34.34.889
12928;171475;34.60;417;03.34.34.889
12924;171473;34.60;418;03.34.34.889
12920;171480;34.60;419;03.34.34.889
12928;171489;34.60;420;03.34.34.889
12888;171489;34.60;421;03.34.34.889
12908;171485;34.60;422;03.34.34.889
12912;171488;34.60;423;03.34.34.889
12924;171491;34.60;424;03.34.34.889
12924;171494;34.64;425;03.34.35.009
12908;171488;34.64;426;03.34.35.020
12928;171497;34.64;427;03.34.35.020
12924;171490;34.64;428;03.34.35.020
12944;171501;34.64;429;03.34.35.020
12924;171504;34.64;430;03.34.35.020
12932;171497;34.64;431;03.34.35.020
12924;171509;34.64;432;03.34.35.020
12900;171496;34.64;433;03.34.35.020
12928;171501;34.64;434;03.34.35.020
12920;171510;34.64;435;03.34.35.020
12928;171502;34.64;436;03.34.35.020
12892;171512;34.64;437;03.34.35.020
12924;171507;34.64;438;03.34.35.020
12904;171508;34.64;439;03.34.35.031
12924;171517;34.64;440;03.34.35.031
12932;171508;34.64;441;03.34.35.031
12900;171518;34.64;442;03.34.35.031
12920;171509;34.64;443;03.34.35.031
12928;171523;34.64;444;03.34.35.031
12900;171526;34.64;445;03.34.35.031
12936;171525;34.64;446;03.34.35.031
12892;171526;34.64;447;03.34.35.031
12916;171528;34.64;448;03.34.35.031
12884;171539;34.64;449;03.34.35.031
12888;171536;34.64;450;03.34.35.140
12876;171528;34.64;451;03.34.35.140
12904;171533;34.64;452;03.34.35.140
12940;171541;34.64;453;03.34.35.140
12940;171544;34.64;454;03.34.35.140
12928;171538;34.64;455;03.34.35.140
12920;171539;34.64;456;03.34.35.140
12920;171555;34.64;457;03.34.35.140
12904;171542;34.64;458;03.34.35.140
12924;171545;34.64;459;03.34.35.140
12904;171539;34.64;460;03.34.35.151
12928;171544;34.64;461;03.34.35.151
12960;171546;34.64;462;03.34.35.151
12888;171546;34.64;463;03.34.35.151
12944;171542;34.64;464;03.34.35.151
12928;171537;34.64;465;03.34.35.151
12908;171533;34.64;466;03.34.35.151
12892;171532;34.64;467;03.34.35.162
12908;171534;34.64;468;03.34.35.162
12896;171518;34.64;469;03.34.35.162
12912;171523;34.64;470;03.34.35.162
12888;171524;34.64;471;03.34.35.162
12916;171514;34.64;472;03.34.35.162
12904;171505;34.64;473;03.34.35.162
12920;171509;34.64;474;03.34.35.162
12928;171491;34.64;475;03.34.35.250
12908;171494;34.64;476;03.34.35.250
12908;171491;34.64;477;03.34.35.250
12912;171484;34.64;478;03.34.35.250
12916;171480;34.64;479;03.34.35.250
12936;171479;34.64;480;03.34.35.250
12892;171474;34.64;481;03.34.35.250
12932;171468;34.64;482;03.34.35.261
12900;171470;34.64;483;03.34.35.261
12900;171464;34.64;484;03.34.35.261
12900;171449;34.64;485;03.34.35.261
12928;171447;34.64;486;03.34.35.261
12888;171449;34.64;487;03.34.35.261
12892;171447;34.64;488;03.34.35.272
12908;171433;34.64;489;03.34.35.272
12912;171442;34.64;490;03.34.35.272
12904;171436;34.64;491;03.34.35.272
12932;171437;34.64;492;03.34.35.272
12928;171438;34.64;493;03.34.35.272
12920;171435;34.64;494;03.34.35.272
12928;171435;34.64;495;03.34.35.272
12916;171426;34.64;496;03.34.35.272
12924;171428;34.64;497;03.34.35.272
12924;171434;34.64;498;03.34.35.272
12932;171436;34.64;499;03.34.35.283
12904;171431;34.64;500;03.34.35.370
12928;171424;34.64;501;03.34.35.370
12892;171426;34.64;502;03.34.35.370
12928;171431;34.64;503;03.34.35.381
12928;171427;34.64;504;03.34.35.381
12920;171430;34.64;505;03.34.35.381
12900;171430;34.64;506;03.34.35.381
12884;171431;34.64;507;03.34.35.381
12860;171423;34.64;508;03.34.35.381
12936;171433;34.64;509;03.34.35.381
12928;171429;34.64;510;03.34.35.381
12912;171428;34.64;511;03.34.35.381
12936;171423;34.64;512;03.34.35.381
12904;171432;34.64;513;03.34.35.381
12920;171425;34.64;514;03.34.35.381
12904;171428;34.64;515;03.34.35.392
12932;171422;34.64;516;03.34.35.392
12948;171433;34.64;517;03.34.35.392
12928;171427;34.64;518;03.34.35.392
12920;171435;34.64;519;03.34.35.392
12908;171429;34.64;520;03.34.35.392
12920;171436;34.64;521;03.34.35.392
12900;171430;34.64;522;03.34.35.392
12916;171434;34.64;523;03.34.35.392
12892;171432;34.64;524;03.34.35.392
12948;171426;34.60;525;03.34.35.512
12900;171428;34.60;526;03.34.35.512
12904;171439;34.60;527;03.34.35.512
12928;171433;34.60;528;03.34.35.512
12936;171435;34.60;529;03.34.35.512
12900;171430;34.60;530;03.34.35.512
12896;171434;34.60;531;03.34.35.512
12944;171429;34.60;532;03.34.35.512
12912;171436;34.60;533;03.34.35.512
12916;171432;34.60;534;03.34.35.512
12936;171434;34.60;535;03.34.35.512
12932;171436;34.60;536;03.34.35.523
12920;171432;34.60;537;03.34.35.523
12916;171438;34.60;538;03.34.35.523
12904;171435;34.60;539;03.34.35.523
12912;171434;34.60;540;03.34.35.523
12928;171436;34.60;541;03.34.35.523
12932;171430;34.60;542;03.34.35.523
12888;171437;34.60;543;03.34.35.523
12908;171438;34.60;544;03.34.35.523
12912;171432;34.60;545;03.34.35.523
12896;171438;34.60;546;03.34.35.523
12932;171437;34.60;547;03.34.35.523
12932;171440;34.60;548;03.34.35.523
12920;171438;34.60;549;03.34.35.534
12912;171446;34.60;550;03.34.35.633
12912;171445;34.60;551;03.34.35.633
12920;171439;34.60;552;03.34.35.633
12892;171444;34.60;553;03.34.35.633
12916;171455;34.60;554;03.34.35.633
12904;171455;34.60;555;03.34.35.633
12908;171451;34.60;556;03.34.35.633
12924;171450;34.60;557;03.34.35.644
12892;171450;34.60;558;03.34.35.644
12904;171452;34.60;559;03.34.35.644
12876;171457;34.60;560;03.34.35.644
12928;171454;34.60;561;03.34.35.644
12924;171459;34.60;562;03.34.35.644
12912;171458;34.60;563;03.34.35.644
12892;171468;34.60;564;03.34.35.644
12928;171468;34.60;565;03.34.35.644
12912;171463;34.60;566;03.34.35.644
12924;171461;34.60;567;03.34.35.644
12928;171467;34.60;568;03.34.35.644
12944;171456;34.60;569;03.34.35.644
12932;171465;34.60;570;03.34.35.655
12904;171470;34.60;571;03.34.35.655
12936;171467;34.60;572;03.34.35.655
12916;171470;34.60;573;03.34.35.655
12936;171471;34.60;574;03.34.35.655
12928;171476;34.64;575;03.34.35.743
12908;171480;34.64;576;03.34.35.743
12892;171481;34.64;577;03.34.35.743
12928;171487;34.64;578;03.34.35.743
12908;171483;34.64;579;03.34.35.754
12936;171489;34.64;580;03.34.35.754
12920;171484;34.64;581;03.34.35.754
12944;171487;34.64;582;03.34.35.754
12908;171491;34.64;583;03.34.35.765
12944;171496;34.64;584;03.34.35.765
12916;171494;34.64;585;03.34.35.765
12928;171496;34.64;586;03.34.35.765
12940;171500;34.64;587;03.34.35.776
12944;171502;34.64;588;03.34.35.776
12908;171505;34.64;589;03.34.35.776
12932;171502;34.64;590;03.34.35.776
12888;171497;34.64;591;03.34.35.776
12904;171503;34.64;592;03.34.35.776
12960;171512;34.64;593;03.34.35.776
12904;171500;34.64;594;03.34.35.776
12900;171504;34.64;595;03.34.35.776
12908;171509;34.64;596;03.34.35.776
12912;171506;34.64;597;03.34.35.776
12928;171520;34.64;598;03.34.35.776
12932;171522;34.64;599;03.34.35.776
12924;171515;34.64;600;03.34.35.874
12924;171518;34.64;601;03.34.35.874
12920;171515;34.64;602;03.34.35.874
12932;171513;34.64;603;03.34.35.874
12920;171516;34.64;604;03.34.35.874
12892;171515;34.64;605;03.34.35.874
12932;171521;34.64;606;03.34.35.874
12900;171510;34.64;607;03.34.35.874
12944;171514;34.64;608;03.34.35.874
12936;171527;34.64;609;03.34.35.874
12892;171526;34.64;610;03.34.35.874
12908;171524;34.64;611;03.34.35.874
12900;171522;34.64;612;03.34.35.874
12904;171534;34.64;613;03.34.35.884
12892;171531;34.64;614;03.34.35.884
12932;171521;34.64;615;03.34.35.884
12924;171533;34.64;616;03.34.35.884
12920;171540;34.64;617;03.34.35.884
12916;171538;34.64;618;03.34.35.884
12960;171541;34.64;619;03.34.35.884
12920;171538;34.64;620;03.34.35.884
12908;171529;34.64;621;03.34.35.884
12916;171534;34.64;622;03.34.35.884
12916;171543;34.64;623;03.34.35.884
12928;171540;34.64;624;03.34.35.895
12904;171546;34.64;625;03.34.36.005
12904;171545;34.64;626;03.34.36.005
12892;171545;34.64;627;03.34.36.005
12892;171542;34.64;628;03.34.36.005
12912;171550;34.64;629;03.34.36.005
12908;171539;34.64;630;03.34.36.005
12904;171543;34.64;631;03.34.36.005
12908;171532;34.64;632;03.34.36.005
12904;171532;34.64;633;03.34.36.016
12888;171525;34.64;634;03.34.36.016
12940;171523;34.64;635;03.34.36.016
12928;171519;34.64;636;03.34.36.016
12876;171521;34.64;637;03.34.36.016
12892;171507;34.64;638;03.34.36.016
12936;171509;34.64;639;03.34.36.016
12908;171509;34.64;640;03.34.36.016
12928;171494;34.64;641;03.34.36.016
12912;171499;34.64;642;03.34.36.016
12912;171491;34.64;643;03.34.36.016
12912;171480;34.64;644;03.34.36.016
12916;171480;34.64;645;03.34.36.016
12932;171480;34.64;646;03.34.36.027
12884;171473;34.64;647;03.34.36.027
12940;171469;34.64;648;03.34.36.027
12908;171467;34.64;649;03.34.36.027
12928;171468;34.64;650;03.34.36.126
12928;171462;34.64;651;03.34.36.126
12924;171469;34.64;652;03.34.36.126
12896;171464;34.64;653;03.34.36.137
12912;171463;34.64;654;03.34.36.137
12924;171466;34.64;655;03.34.36.137
12932;171462;34.64;656;03.34.36.137
12916;171453;34.64;657;03.34.36.137
12888;171455;34.64;658;03.34.36.137
12928;171460;34.64;659;03.34.36.137
12904;171454;34.64;660;03.34.36.137
12936;171461;34.64;661;03.34.36.137
12916;171462;34.64;662;03.34.36.137
12892;171456;34.64;663;03.34.36.137
12928;171465;34.64;664;03.34.36.137
12932;171461;34.64;665;03.34.36.137
12908;171463;34.64;666;03.34.36.137
12924;171457;34.64;667;03.34.36.148
12928;171454;34.64;668;03.34.36.148
12936;171458;34.64;669;03.34.36.148
12908;171468;34.64;670;03.34.36.148
12892;171462;34.64;671;03.34.36.148
12916;171464;34.64;672;03.34.36.148
12912;171462;34.64;673;03.34.36.148
12940;171463;34.64;674;03.34.36.148
12900;171471;34.64;675;03.34.36.257
12916;171466;34.64;676;03.34.36.268
12920;171471;34.64;677;03.34.36.268
12932;171471;34.64;678;03.34.36.268
12944;171479;34.64;679;03.34.36.268
12936;171470;34.64;680;03.34.36.268
12944;171480;34.64;681;03.34.36.268
12916;171476;34.64;682;03.34.36.268
12932;171475;34.64;683;03.34.36.268
12908;171477;34.64;684;03.34.36.268
12900;171476;34.64;685;03.34.36.268
12924;171479;34.64;686;03.34.36.268
12928;171480;34.64;687;03.34.36.268
12936;171473;34.64;688;03.34.36.279
12932;171482;34.64;689;03.34.36.279
12920;171477;34.64;690;03.34.36.279
12940;171472;34.64;691;03.34.36.279
12892;171476;34.64;692;03.34.36.279
12912;171475;34.64;693;03.34.36.279
12916;171480;34.64;694;03.34.36.279
12928;171472;34.64;695;03.34.36.279
12920;171470;34.64;696;03.34.36.279
12928;171474;34.64;697;03.34.36.279
12928;171469;34.64;698;03.34.36.279
12932;171474;34.64;699;03.34.36.279
12928;171470;34.64;700;03.34.36.378
12912;171467;34.64;701;03.34.36.378
12928;171462;34.64;702;03.34.36.378
12928;171466;34.64;703;03.34.36.378
12928;171464;34.64;704;03.34.36.378
12912;171463;34.64;705;03.34.36.378
12912;171471;34.64;706;03.34.36.378
12908;171464;34.64;707;03.34.36.378
12916;171473;34.64;708;03.34.36.400
12916;171464;34.64;709;03.34.36.400
12920;171463;34.64;710;03.34.36.400
12928;171465;34.64;711;03.34.36.400
12928;171467;34.64;712;03.34.36.400
12908;171471;34.64;713;03.34.36.400
12916;171467;34.64;714;03.34.36.400
12888;171470;34.64;715;03.34.36.400
12932;171472;34.64;716;03.34.36.400
12908;171473;34.64;717;03.34.36.400
12916;171472;34.64;718;03.34.36.411
12924;171480;34.64;719;03.34.36.411
12908;171477;34.64;720;03.34.36.411
12912;171476;34.64;721;03.34.36.411
12920;171478;34.64;722;03.34.36.411
12928;171483;34.64;723;03.34.36.411
12928;171483;34.64;724;03.34.36.411
12944;171479;34.64;725;03.34.36.498
12908;171481;34.64;726;03.34.36.498
12916;171481;34.64;727;03.34.36.498
12924;171481;34.64;728;03.34.36.498
12892;171483;34.64;729;03.34.36.498
12892;171487;34.64;730;03.34.36.509
12916;171483;34.64;731;03.34.36.509
12912;171491;34.64;732;03.34.36.509
12924;171494;34.64;733;03.34.36.509
12884;171493;34.64;734;03.34.36.509
12920;171486;34.64;735;03.34.36.509
12924;171495;34.64;736;03.34.36.509
12928;171486;34.64;737;03.34.36.509
12944;171495;34.64;738;03.34.36.509
12928;171500;34.64;739;03.34.36.520
12920;171493;34.64;740;03.34.36.520
12904;171491;34.64;741;03.34.36.520
12932;171503;34.64;742;03.34.36.531
12920;171499;34.64;743;03.34.36.531
12932;171503;34.64;744;03.34.36.531
12916;171506;34.64;745;03.34.36.531
12928;171502;34.64;746;03.34.36.531
12940;171504;34.64;747;03.34.36.531
12928;171510;34.64;748;03.34.36.542
12876;171510;34.64;749;03.34.36.542
12892;171508;34.64;750;03.34.36.630
12908;171502;34.64;751;03.34.36.630
12924;171503;34.64;752;03.34.36.641
12916;171511;34.64;753;03.34.36.641
12928;171513;34.64;754;03.34.36.641
12912;171517;34.64;755;03.34.36.641
12912;171524;34.64;756;03.34.36.641
12912;171518;34.64;757;03.34.36.641
12904;171517;34.64;758;03.34.36.674
12936;171515;34.64;759;03.34.36.674
12900;171516;34.64;760;03.34.36.674
12912;171515;34.64;761;03.34.36.685
12860;171521;34.64;762;03.34.36.685
12900;171520;34.64;763;03.34.36.685
12936;171530;34.64;764;03.34.36.685
12908;171522;34.64;765;03.34.36.685
12884;171528;34.64;766;03.34.36.685
12936;171523;34.64;767;03.34.36.685
12928;171523;34.64;768;03.34.36.685
12936;171521;34.64;769;03.34.36.685
12928;171531;34.64;770;03.34.36.685
12900;171531;34.64;771;03.34.36.685
12908;171543;34.64;772;03.34.36.685
12892;171535;34.64;773;03.34.36.696
12940;171541;34.64;774;03.34.36.696
12912;171539;34.64;775;03.34.36.773
12936;171539;34.64;776;03.34.36.773
12912;171544;34.64;777;03.34.36.773
12928;171547;34.64;778;03.34.36.773
12924;171549;34.64;779;03.34.36.773
12892;171549;34.64;780;03.34.36.773
12920;171550;34.64;781;03.34.36.773
12896;171552;34.64;782;03.34.36.773
12932;171556;34.64;783;03.34.36.784
12924;171552;34.64;784;03.34.36.784
12924;171550;34.64;785;03.34.36.784
12916;171552;34.64;786;03.34.36.784
12896;171541;34.64;787;03.34.36.784
12928;171538;34.64;788;03.34.36.784
12912;171540;34.64;789;03.34.36.784
12932;171542;34.64;790;03.34.36.784
12916;171539;34.64;791;03.34.36.784
12928;171530;34.64;792;03.34.36.784
12916;171540;34.64;793;03.34.36.784
12920;171529;34.64;794;03.34.36.784
12916;171527;34.64;795;03.34.36.794
12936;171520;34.64;796;03.34.36.794
12904;171518;34.64;797;03.34.36.794
12892;171519;34.64;798;03.34.36.794
12948;171510;34.64;799;03.34.36.794
12916;171504;34.64;800;03.34.36.871
12928;171498;34.64;801;03.34.36.871
12928;171493;34.64;802;03.34.36.871
12920;171489;34.64;803;03.34.36.871
12924;171493;34.64;804;03.34.36.871
12924;171489;34.64;805;03.34.36.871
12924;171470;34.64;806;03.34.36.871
12952;171479;34.64;807;03.34.36.882
12928;171476;34.64;808;03.34.36.903
12944;171476;34.64;809;03.34.36.903
12908;171470;34.64;810;03.34.36.903
12908;171472;34.64;811;03.34.36.903
12916;171472;34.64;812;03.34.36.903
12920;171464;34.64;813;03.34.36.903
12904;171461;34.64;814;03.34.36.903
12936;171459;34.64;815;03.34.36.914
12904;171466;34.64;816;03.34.36.914
12928;171453;34.64;817;03.34.36.914
12920;171460;34.64;818;03.34.36.914
12908;171466;34.64;819;03.34.36.914
12928;171455;34.64;820;03.34.36.914
12920;171457;34.64;821;03.34.36.914
12932;171456;34.64;822;03.34.36.914
12892;171458;34.64;823;03.34.36.914
12904;171452;34.64;824;03.34.36.914
12896;171465;34.64;825;03.34.36.991
12952;171451;34.64;826;03.34.36.991
12928;171451;34.64;827;03.34.36.991
12928;171455;34.64;828;03.34.37.001
12924;171461;34.64;829;03.34.37.001
12932;171456;34.64;830;03.34.37.001
12924;171451;34.64;831;03.34.37.001
12932;171454;34.64;832;03.34.37.001
12888;171453;34.64;833;03.34.37.001
12944;171460;34.64;834;03.34.37.001
12928;171462;34.64;835;03.34.37.001
12892;171461;34.64;836;03.34.37.001
12908;171464;34.64;837;03.34.37.001
12908;171458;34.64;838;03.34.37.001
12920;171461;34.64;839;03.34.37.001
12892;171463;34.64;840;03.34.37.012
12912;171456;34.64;841;03.34.37.012
12928;171455;34.64;842;03.34.37.012
12928;171461;34.64;843;03.34.37.012
12912;171459;34.64;844;03.34.37.012
12892;171457;34.64;845;03.34.37.012
12916;171467;34.64;846;03.34.37.012
12928;171468;34.64;847;03.34.37.012
12928;171460;34.64;848;03.34.37.012
12924;171465;34.64;849;03.34.37.012
12952;171465;34.64;850;03.34.37.133
12908;171468;34.64;851;03.34.37.133
12924;171469;34.64;852;03.34.37.133
12932;171463;34.64;853;03.34.37.133
12928;171466;34.64;854;03.34.37.133
12936;171459;34.64;855;03.34.37.133
12916;171469;34.64;856;03.34.37.133
12916;171458;34.64;857;03.34.37.133
12916;171464;34.64;858;03.34.37.133
12908;171471;34.64;859;03.34.37.133
12928;171469;34.64;860;03.34.37.133
12924;171464;34.64;861;03.34.37.144
12944;171460;34.64;862;03.34.37.144
12940;171459;34.64;863;03.34.37.144
12900;171467;34.64;864;03.34.37.144
12900;171457;34.64;865;03.34.37.144
12912;171459;34.64;866;03.34.37.144
12908;171466;34.64;867;03.34.37.144
12924;171470;34.64;868;03.34.37.144
12904;171467;34.64;869;03.34.37.144
12920;171464;34.64;870;03.34.37.144
12888;171472;34.64;871;03.34.37.144
12928;171469;34.64;872;03.34.37.144
12904;171468;34.64;873;03.34.37.144
12908;171468;34.64;874;03.34.37.155
12924;171473;34.64;875;03.34.37.254
12928;171466;34.64;876;03.34.37.254
12912;171476;34.64;877;03.34.37.254
12944;171464;34.64;878;03.34.37.254
12928;171474;34.64;879;03.34.37.254
12928;171473;34.64;880;03.34.37.254
12900;171475;34.64;881;03.34.37.254
12920;171467;34.64;882;03.34.37.254
12900;171475;34.64;883;03.34.37.265
12900;171472;34.64;884;03.34.37.265
12900;171478;34.64;885;03.34.37.265
12916;171475;34.64;886;03.34.37.265
12912;171476;34.64;887;03.34.37.265
12928;171481;34.64;888;03.34.37.265
12908;171477;34.64;889;03.34.37.265
12940;171477;34.64;890;03.34.37.265
12920;171475;34.64;891;03.34.37.265
12908;171480;34.64;892;03.34.37.265
12908;171482;34.64;893;03.34.37.265
12892;171483;34.64;894;03.34.37.265
12936;171489;34.64;895;03.34.37.265
12928;171489;34.64;896;03.34.37.276
12928;171499;34.64;897;03.34.37.276
12924;171498;34.64;898;03.34.37.276
12912;171493;34.64;899;03.34.37.276
12916;171500;34.64;900;03.34.37.395
12888;171499;34.64;901;03.34.37.395
12916;171494;34.64;902;03.34.37.395
12896;171494;34.64;903;03.34.37.406
12900;171503;34.64;904;03.34.37.406
12892;171504;34.64;905;03.34.37.406
12928;171509;34.64;906;03.34.37.406
12920;171508;34.64;907;03.34.37.406
12928;171505;34.64;908;03.34.37.406
12892;171513;34.64;909;03.34.37.406
12916;171506;34.64;910;03.34.37.406
12872;171518;34.64;911;03.34.37.406
12908;171512;34.64;912;03.34.37.406
12952;171521;34.64;913;03.34.37.406
12892;171525;34.64;914;03.34.37.406
12936;171521;34.64;915;03.34.37.406
12908;171532;34.64;916;03.34.37.417
12920;171518;34.64;917;03.34.37.417
12896;171528;34.64;918;03.34.37.417
12904;171527;34.64;919;03.34.37.417
12920;171529;34.64;920;03.34.37.417
12908;171523;34.64;921;03.34.37.417
12908;171531;34.64;922;03.34.37.417
12900;171532;34.64;923;03.34.37.417
12916;171529;34.64;924;03.34.37.417
12900;171533;34.68;925;03.34.37.505
12936;171530;34.68;926;03.34.37.505
12912;171530;34.68;927;03.34.37.505
12892;171533;34.68;928;03.34.37.505
12892;171536;34.68;929;03.34.37.505
12924;171537;34.68;930;03.34.37.505
12940;171542;34.68;931;03.34.37.505
12940;171541;34.68;932;03.34.37.505
12928;171546;34.68;933;03.34.37.538
12936;171551;34.68;934;03.34.37.538
12920;171548;34.68;935;03.34.37.538
12892;171551;34.68;936;03.34.37.538
12928;171545;34.68;937;03.34.37.538
12932;171545;34.68;938;03.34.37.538
12916;171554;34.68;939;03.34.37.538
12908;171562;34.68;940;03.34.37.538
12928;171559;34.68;941;03.34.37.538
12916;171551;34.68;942;03.34.37.538
12928;171561;34.68;943;03.34.37.538
12904;171565;34.68;944;03.34.37.538
12932;171571;34.68;945;03.34.37.538
12904;171569;34.68;946;03.34.37.549
12884;171562;34.68;947;03.34.37.549
12908;171573;34.68;948;03.34.37.549
12936;171567;34.68;949;03.34.37.549
12908;171560;34.68;950;03.34.37.626
12904;171576;34.68;951;03.34.37.626
12924;171575;34.68;952;03.34.37.626
12920;171566;34.68;953;03.34.37.626
12928;171578;34.68;954;03.34.37.626
12932;171574;34.68;955;03.34.37.626
12908;171565;34.68;956;03.34.37.626
12944;171565;34.68;957;03.34.37.626
12936;171569;34.68;958;03.34.37.637
12892;171564;34.68;959;03.34.37.637
12892;171558;34.68;960;03.34.37.637
12944;171554;34.68;961;03.34.37.637
12904;171551;34.68;962;03.34.37.637
12936;171545;34.68;963;03.34.37.637
12920;171545;34.68;964;03.34.37.637
12944;171533;34.68;965;03.34.37.637
12928;171537;34.68;966;03.34.37.637
12920;171530;34.68;967;03.34.37.648
12940;171523;34.68;968;03.34.37.648
12908;171523;34.68;969;03.34.37.648
12900;171517;34.68;970;03.34.37.648
12932;171521;34.68;971;03.34.37.648
12928;171513;34.68;972;03.34.37.648
12928;171506;34.68;973;03.34.37.648
12944;171502;34.68;974;03.34.37.648
12912;171498;34.64;975;03.34.37.757
12940;171496;34.64;976;03.34.37.757
12908;171495;34.64;977;03.34.37.757
12928;171493;34.64;978;03.34.37.757
12936;171493;34.64;979;03.34.37.757
12916;171487;34.64;980;03.34.37.768
12928;171493;34.64;981;03.34.37.768
12960;171486;34.64;982;03.34.37.768
12916;171490;34.64;983;03.34.37.768
12924;171491;34.64;984;03.34.37.768
12900;171486;34.64;985;03.34.37.768
12916;171487;34.64;986;03.34.37.768
12932;171492;34.64;987;03.34.37.768
12900;171480;34.64;988;03.34.37.768
12892;171486;34.64;989;03.34.37.778
12904;171475;34.64;990;03.34.37.778
12908;171474;34.64;991;03.34.37.778
12892;171486;34.64;992;03.34.37.778
12928;171481;34.64;993;03.34.37.778
12900;171480;34.64;994;03.34.37.778
12932;171484;34.64;995;03.34.37.778
12924;171478;34.64;996;03.34.37.778
12904;171485;34.64;997;03.34.37.778
12908;171488;34.64;998;03.34.37.778
12932;171477;34.64;999;03.34.37.778
12912;171486;34.64;000;03.34.37.899
12888;171482;34.64;001;03.34.37.899
12928;171486;34.64;002;03.34.37.899
12936;171490;34.64;003;03.34.37.899
12924;171482;34.64;004;03.34.37.899
12936;171490;34.64;005;03.34.37.899
12904;171489;34.64;006;03.34.37.899
12916;171497;34.64;007;03.34.37.899
12904;171493;34.64;008;03.34.37.899
12924;171489;34.64;009;03.34.37.899
12904;171486;34.64;010;03.34.37.899
12928;171490;34.64;011;03.34.37.899
12876;171488;34.64;012;03.34.37.910
12936;171491;34.64;013;03.34.37.910
12908;171493;34.64;014;03.34.37.910
12904;171491;34.64;015;03.34.37.910
12912;171496;34.64;016;03.34.37.910
12920;171495;34.64;017;03.34.37.910
12916;171490;34.64;018;03.34.37.910
12920;171483;34.64;019;03.34.37.910
12924;171483;34.64;020;03.34.37.910
12908;171483;34.64;021;03.34.37.910
12892;171486;34.64;022;03.34.37.910
12928;171486;34.64;023;03.34.37.910
12920;171479;34.64;024;03.34.37.911
12900;171490;34.64;025;03.34.37.999
12920;171493;34.64;026;03.34.37.999
12920;171489;34.64;027;03.34.37.999
12920;171486;34.64;028;03.34.37.999
12932;171487;34.64;029;03.34.37.999
12904;171486;34.64;030;03.34.37.999
12908;171487;34.64;031;03.34.37.999
12928;171479;34.64;032;03.34.37.999
12908;171485;34.64;033;03.34.38.009
12928;171483;34.64;034;03.34.38.009
12904;171483;34.64;035;03.34.38.009
12904;171484;34.64;036;03.34.38.009
12916;171478;34.64;037;03.34.38.009
12928;171483;34.64;038;03.34.38.009
12892;171484;34.64;039;03.34.38.009
12908;171485;34.64;040;03.34.38.009
12884;171487;34.64;041;03.34.38.009
12888;171489;34.64;042;03.34.38.031
12908;171490;34.64;043;03.34.38.031
12896;171493;34.64;044;03.34.38.031
12924;171492;34.64;045;03.34.38.031
12928;171492;34.64;046;03.34.38.031
12912;171491;34.64;047;03.34.38.031
12952;171488;34.64;048;03.34.38.031
12944;171492;34.64;049;03.34.38.031
12900;171496;34.64;050;03.34.38.119
12912;171500;34.64;051;03.34.38.119
12936;171498;34.64;052;03.34.38.119
12928;171489;34.64;053;03.34.38.119
12928;171496;34.64;054;03.34.38.119
12916;171497;34.64;055;03.34.38.119
12932;171498;34.64;056;03.34.38.130
12912;171504;34.64;057;03.34.38.130
12916;171504;34.64;058;03.34.38.130
12916;171501;34.64;059;03.34.38.130
12912;171495;34.64;060;03.34.38.130
12912;171491;34.64;061;03.34.38.130
12924;171494;34.64;062;03.34.38.130
12928;171501;34.64;063;03.34.38.130
12920;171503;34.64;064;03.34.38.130
12904;171512;34.64;065;03.34.38.130
12908;171509;34.64;066;03.34.38.130
12892;171501;34.64;067;03.34.38.130
12928;171513;34.64;068;03.34.38.130
12900;171506;34.64;069;03.34.38.141
12924;171505;34.64;070;03.34.38.141
12944;171501;34.64;071;03.34.38.141
12932;171509;34.64;072;03.34.38.141
12900;171515;34.64;073;03.34.38.141
12920;171517;34.64;074;03.34.38.141
12928;171515;34.64;075;03.34.38.250
12896;171517;34.64;076;03.34.38.250
12916;171522;34.64;077;03.34.38.261
12932;171525;34.64;078;03.34.38.261
12932;171520;34.64;079;03.34.38.261
12932;171525;34.64;080;03.34.38.261
12908;171524;34.64;081;03.34.38.261
12924;171529;34.64;082;03.34.38.261
12924;171522;34.64;083;03.34.38.261
12948;171532;34.64;084;03.34.38.261
12928;171522;34.64;085;03.34.38.261
12876;171526;34.64;086;03.34.38.272
12896;171530;34.64;087;03.34.38.272
12924;171526;34.64;088;03.34.38.272
12928;171529;34.64;089;03.34.38.272
12908;171527;34.64;090;03.34.38.272
12928;171538;34.64;091;03.34.38.272
12908;171536;34.64;092;03.34.38.272
12892;171529;34.64;093;03.34.38.272
12912;171533;34.64;094;03.34.38.272
12920;171535;34.64;095;03.34.38.272
12900;171536;34.64;096;03.34.38.272
12924;171542;34.64;097;03.34.38.272
12892;171538;34.64;098;03.34.38.272
12912;171540;34.64;099;03.34.38.272
12888;171538;34.64;100;03.34.38.393
12904;171540;34.64;101;03.34.38.393
12908;171551;34.64;102;03.34.38.393
12888;171546;34.64;103;03.34.38.393
12920;171537;34.64;104;03.34.38.393
12932;171550;34.64;105;03.34.38.393
12932;171552;34.64;106;03.34.38.393
12900;171546;34.64;107;03.34.38.393
12900;171556;34.64;108;03.34.38.393
12928;171549;34.64;109;03.34.38.393
12936;171554;34.64;110;03.34.38.393
12928;171562;34.64;111;03.34.38.393
12912;171553;34.64;112;03.34.38.404
12920;171561;34.64;113;03.34.38.404
12904;171557;34.64;114;03.34.38.404
12928;171559;34.64;115;03.34.38.404
12908;171557;34.64;116;03.34.38.404
12932;171570;34.64;117;03.34.38.404
12896;171569;34.64;118;03.34.38.404
12924;171566;34.64;119;03.34.38.404
12924;171565;34.64;120;03.34.38.404
12932;171570;34.64;121;03.34.38.404
12912;171577;34.64;122;03.34.38.404
12892;171570;34.64;123;03.34.38.404
12944;171570;34.64;124;03.34.38.414
12892;171571;34.64;125;03.34.38.502
12912;171576;34.64;126;03.34.38.502
12916;171580;34.64;127;03.34.38.502
12892;171560;34.64;128;03.34.38.502
12904;171558;34.64;129;03.34.38.502
12920;171563;34.64;130;03.34.38.502
12936;171556;34.64;131;03.34.38.502
12928;171554;34.64;132;03.34.38.502
12928;171548;34.64;133;03.34.38.524
12916;171531;34.64;134;03.34.38.524
12920;171532;34.64;135;03.34.38.524
12892;171523;34.64;136;03.34.38.524
12924;171518;34.64;137;03.34.38.524
12896;171515;34.64;138;03.34.38.524
12916;171511;34.64;139;03.34.38.524
12944;171507;34.64;140;03.34.38.535
12916;171503;34.64;141;03.34.38.535
12940;171503;34.64;142;03.34.38.535
12892;171500;34.64;143;03.34.38.535
12920;171492;34.64;144;03.34.38.535
12884;171483;34.64;145;03.34.38.535
12920;171484;34.64;146;03.34.38.535
12928;171487;34.64;147;03.34.38.535
12876;171469;34.64;148;03.34.38.535
12912;171477;34.64;149;03.34.38.535
12896;171469;34.64;150;03.34.38.623
12884;171469;34.64;151;03.34.38.623
12916;171469;34.64;152;03.34.38.623
12932;171468;34.64;153;03.34.38.623
12920;171472;34.64;154;03.34.38.634
12908;171469;34.64;155;03.34.38.634
12936;171471;34.64;156;03.34.38.634
12920;171459;34.64;157;03.34.38.634
12908;171473;34.64;158;03.34.38.634
12912;171475;34.64;159;03.34.38.634
12920;171471;34.64;160;03.34.38.634
12892;171472;34.64;161;03.34.38.634
12916;171473;34.64;162;03.34.38.634
12904;171480;34.64;163;03.34.38.645
12924;171473;34.64;164;03.34.38.645
12928;171466;34.64;165;03.34.38.645
12928;171467;34.64;166;03.34.38.645
12928;171471;34.64;167;03.34.38.656
12892;171462;34.64;168;03.34.38.656
12904;171464;34.64;169;03.34.38.656
12916;171471;34.64;170;03.34.38.656
12928;171467;34.64;171;03.34.38.667
12944;171475;34.64;172;03.34.38.667
12924;171470;34.64;173;03.34.38.667
12936;171466;34.64;174;03.34.38.667
12908;171471;34.64;175;03.34.38.755
12928;171467;34.64;176;03.34.38.755
12888;171470;34.64;177;03.34.38.755
12880;171470;34.64;178;03.34.38.755
12924;171477;34.64;179;03.34.38.755
12936;171469;34.64;180;03.34.38.755
12920;171470;34.64;181;03.34.38.755
12928;171480;34.64;182;03.34.38.755
12928;171473;34.64;183;03.34.38.755
12912;171474;34.64;184;03.34.38.766
12916;171478;34.64;185;03.34.38.766
12908;171482;34.64;186;03.34.38.766
12920;171477;34.64;187;03.34.38.766
12904;171474;34.64;188;03.34.38.766
12884;171476;34.64;189;03.34.38.766
12928;171474;34.64;190;03.34.38.766
12932;171480;34.64;191;03.34.38.766
12916;171473;34.64;192;03.34.38.766
12936;171478;34.64;193;03.34.38.766
12900;171477;34.64;194;03.34.38.766
12892;171472;34.64;195;03.34.38.766
12928;171480;34.64;196;03.34.38.766
12916;171471;34.64;197;03.34.38.777
12924;171482;34.64;198;03.34.38.777
12908;171474;34.64;199;03.34.38.777
12924;171478;34.64;200;03.34.38.886
12932;171475;34.64;201;03.34.38.886
12908;171477;34.64;202;03.34.38.886
12916;171469;34.64;203;03.34.38.886
12940;171470;34.64;204;03.34.38.886
12876;171476;34.64;205;03.34.38.886
12932;171475;34.64;206;03.34.38.886
12924;171475;34.64;207;03.34.38.886
12908;171488;34.64;208;03.34.38.886
12940;171478;34.64;209;03.34.38.897
12932;171476;34.64;210;03.34.38.897
12900;171479;34.64;211;03.34.38.897
12944;171466;34.64;212;03.34.38.897
12912;171474;34.64;213;03.34.38.897
12936;171488;34.64;214;03.34.38.897
12908;171478;34.64;215;03.34.38.897
12892;171478;34.64;216;03.34.38.897
12932;171480;34.64;217;03.34.38.897
12916;171479;34.64;218;03.34.38.897
12900;171482;34.64;219;03.34.38.897
12936;171483;34.64;220;03.34.38.897
12892;171483;34.64;221;03.34.38.897
12908;171483;34.64;222;03.34.38.908
12928;171493;34.64;223;03.34.38.908
12924;171487;34.64;224;03.34.38.908
12932;171491;34.64;225;03.34.38.996
12916;171496;34.64;226;03.34.38.996
12904;171494;34.64;227;03.34.38.996
12924;171500;34.64;228;03.34.38.996
12916;171507;34.64;229;03.34.38.996
12924;171506;34.64;230;03.34.38.996
12920;171509;34.64;231;03.34.39.007
12904;171507;34.64;232;03.34.39.007
12928;171505;34.64;233;03.34.39.018
12920;171508;34.64;234;03.34.39.018
12904;171510;34.64;235;03.34.39.018
12928;171516;34.64;236;03.34.39.018
12924;171517;34.64;237;03.34.39.018
12896;171514;34.64;238;03.34.39.018
12916;171515;34.64;239;03.34.39.029
12928;171520;34.64;240;03.34.39.029
12924;171515;34.64;241;03.34.39.029
12916;171517;34.64;242;03.34.39.029
12908;171509;34.64;243;03.34.39.029
12900;171526;34.64;244;03.34.39.029
12928;171526;34.64;245;03.34.39.029
12928;171529;34.64;246;03.34.39.029
12944;171526;34.64;247;03.34.39.029
12932;171530;34.64;248;03.34.39.029
12928;171531;34.64;249;03.34.39.029
12884;171531;34.64;250;03.34.39.117
12904;171528;34.64;251;03.34.39.117
12924;171537;34.64;252;03.34.39.128
12916;171537;34.64;253;03.34.39.128
12884;171538;34.64;254;03.34.39.128
12936;171533;34.64;255;03.34.39.128
12940;171537;34.64;256;03.34.39.128
12932;171555;34.64;257;03.34.39.128
12884;171550;34.64;258;03.34.39.128
12912;171551;34.64;259;03.34.39.128
12908;171545;34.64;260;03.34.39.128
12928;171552;34.64;261;03.34.39.128
12900;171548;34.64;262;03.34.39.128
12920;171555;34.64;263;03.34.39.128
12924;171552;34.64;264;03.34.39.128
12912;171551;34.64;265;03.34.39.139
12928;171549;34.64;266;03.34.39.139
12940;171567;34.64;267;03.34.39.139
12928;171560;34.64;268;03.34.39.139
12932;171567;34.64;269;03.34.39.139
12936;171566;34.64;270;03.34.39.139
12908;171574;34.64;271;03.34.39.139
12908;171565;34.64;272;03.34.39.139
12892;171576;34.64;273;03.34.39.139
12916;171567;34.64;274;03.34.39.139
12920;171582;34.64;275;03.34.39.248
12932;171570;34.64;276;03.34.39.248
12920;171561;34.64;277;03.34.39.248
12920;171574;34.64;278;03.34.39.248
12924;171570;34.64;279;03.34.39.248
12900;171579;34.64;280;03.34.39.248
12896;171569;34.64;281;03.34.39.248
12916;171570;34.64;282;03.34.39.248
12936;171576;34.64;283;03.34.39.248
12928;171575;34.64;284;03.34.39.248
12924;171579;34.64;285;03.34.39.248
12892;171570;34.64;286;03.34.39.248
12952;171580;34.64;287;03.34.39.259
12944;171577;34.64;288;03.34.39.259
12892;171577;34.64;289;03.34.39.259
12896;171574;34.64;290;03.34.39.259
12908;171576;34.64;291;03.34.39.259
12912;171577;34.64;292;03.34.39.259
12904;171568;34.64;293;03.34.39.259
12912;171567;34.64;294;03.34.39.259
12908;171565;34.64;295;03.34.39.259
12916;171555;34.64;296;03.34.39.259
12908;171545;34.64;297;03.34.39.259
12944;171549;34.64;298;03.34.39.259
12884;171540;34.64;299;03.34.39.259
12920;171536;34.64;300;03.34.39.379
12932;171526;34.64;301;03.34.39.379
12912;171523;34.64;302;03.34.39.379
12928;171535;34.64;303;03.34.39.379
12936;171520;34.64;304;03.34.39.379
12928;171517;34.64;305;03.34.39.379
12912;171514;34.64;306;03.34.39.379
12928;171510;34.64;307;03.34.39.390
12932;171506;34.64;308;03.34.39.390
12916;171502;34.64;309;03.34.39.390
12892;171497;34.64;310;03.34.39.390
12912;171504;34.64;311;03.34.39.390
12904;171498;34.64;312;03.34.39.390
12896;171505;34.64;313;03.34.39.390
12904;171496;34.64;314;03.34.39.390
12892;171504;34.64;315;03.34.39.390
12916;171497;34.64;316;03.34.39.390
12892;171489;34.64;317;03.34.39.390
12920;171492;34.64;318;03.34.39.390
12916;171494;34.64;319;03.34.39.390
12916;171489;34.64;320;03.34.39.401
12936;171488;34.64;321;03.34.39.401
12912;171496;34.64;322;03.34.39.401
12916;171501;34.64;323;03.34.39.401
12940;171500;34.64;324;03.34.39.401
12920;171501;34.60;325;03.34.39.511
12928;171495;34.60;326;03.34.39.511
12936;171506;34.60;327;03.34.39.522
12904;171503;34.60;328;03.34.39.522
12908;171503;34.60;329;03.34.39.522
12904;171499;34.60;330;03.34.39.522
12900;171508;34.60;331;03.34.39.522
12932;171510;34.60;332;03.34.39.522
12908;171509;34.60;333;03.34.39.522
12928;171520;34.60;334;03.34.39.522
12936;171511;34.60;335;03.34.39.522
12936;171521;34.60;336;03.34.39.522
12908;171514;34.60;337;03.34.39.522
12912;171512;34.60;338;03.34.39.522
12924;171520;34.60;339;03.34.39.522
12928;171523;34.60;340;03.34.39.522
12916;171527;34.60;341;03.34.39.532
12908;171518;34.60;342;03.34.39.532
12928;171532;34.60;343;03.34.39.532
12920;171539;34.60;344;03.34.39.532
12912;171528;34.60;345;03.34.39.543
12912;171538;34.60;346;03.34.39.543
12916;171544;34.60;347;03.34.39.543
12904;171549;34.60;348;03.34.39.543
12940;171548;34.60;349;03.34.39.543
12900;171549;34.60;350;03.34.39.631
12912;171555;34.60;351;03.34.39.631
12892;171554;34.60;352;03.34.39.631
12936;171549;34.60;353;03.34.39.631
12944;171551;34.60;354;03.34.39.631
12928;171554;34.60;355;03.34.39.631
12928;171563;34.60;356;03.34.39.631
12928;171574;34.60;357;03.34.39.631
12908;171559;34.60;358;03.34.39.631
12932;171560;34.60;359;03.34.39.631
12928;171559;34.60;360;03.34.39.631
12920;171558;34.60;361;03.34.39.631
12944;171573;34.60;362;03.34.39.642
12928;171556;34.60;363;03.34.39.642
12928;171564;34.60;364;03.34.39.642
12888;171574;34.60;365;03.34.39.642
12888;171566;34.60;366;03.34.39.642
12920;171575;34.60;367;03.34.39.653
12932;171567;34.60;368;03.34.39.653
12920;171573;34.60;369;03.34.39.653
12892;171579;34.60;370;03.34.39.653
12936;171577;34.60;371;03.34.39.653
12920;171572;34.60;372;03.34.39.653
12928;171568;34.60;373;03.34.39.653
12932;171577;34.60;374;03.34.39.653
12904;171584;34.68;375;03.34.39.752
12936;171588;34.68;376;03.34.39.752
12928;171585;34.68;377;03.34.39.752
12928;171578;34.68;378;03.34.39.752
12924;171583;34.68;379;03.34.39.752
12924;171584;34.68;380;03.34.39.752
12924;171580;34.68;381;03.34.39.752
12908;171583;34.68;382;03.34.39.752
12904;171579;34.68;383;03.34.39.752
12884;171595;34.68;384;03.34.39.763
12900;171588;34.68;385;03.34.39.763
12908;171579;34.68;386;03.34.39.763
12920;171586;34.68;387;03.34.39.763
12912;171591;34.68;388;03.34.39.763
12944;171587;34.68;389;03.34.39.763
12896;171595;34.68;390;03.34.39.763
12936;171592;34.68;391;03.34.39.763
12928;171588;34.68;392;03.34.39.763
12900;171603;34.68;393;03.34.39.763
12944;171595;34.68;394;03.34.39.763
12912;171600;34.68;395;03.34.39.763
12900;171590;34.68;396;03.34.39.763
12892;171597;34.68;397;03.34.39.774
12900;171605;34.68;398;03.34.39.774
12924;171609;34.68;399;03.34.39.774
12920;171609;34.68;400;03.34.39.872
12912;171608;34.68;401;03.34.39.872
12928;171607;34.68;402;03.34.39.872
12920;171603;34.68;403;03.34.39.872
12900;171604;34.68;404;03.34.39.872
12920;171604;34.68;405;03.34.39.883
12896;171603;34.68;406;03.34.39.883
12884;171604;34.68;407;03.34.39.883
12936;171605;34.68;408;03.34.39.883
12908;171603;34.68;409;03.34.39.883
12916;171603;34.68;410;03.34.39.883
12928;171616;34.68;411;03.34.39.883
12952;171608;34.68;412;03.34.39.883
12948;171602;34.68;413;03.34.39.883
12920;171603;34.68;414;03.34.39.883
12928;171612;34.68;415;03.34.39.883
12928;171610;34.68;416;03.34.39.883
12916;171614;34.68;417;03.34.39.883
12920;171626;34.68;418;03.34.39.894
12900;171615;34.68;419;03.34.39.894
12928;171623;34.68;420;03.34.39.894
12904;171614;34.68;421;03.34.39.894
12920;171633;34.68;422;03.34.39.894
12932;171627;34.68;423;03.34.39.894
12916;171629;34.68;424;03.34.39.894
12888;171629;34.64;425;03.34.40.014
12912;171640;34.64;426;03.34.40.014
12900;171632;34.64;427;03.34.40.014
12908;171633;34.64;428;03.34.40.014
12936;171639;34.64;429;03.34.40.014
12908;171644;34.64;430;03.34.40.014
12912;171641;34.64;431;03.34.40.014
12908;171650;34.64;432;03.34.40.014
12908;171644;34.64;433;03.34.40.014
12892;171647;34.64;434;03.34.40.014
12912;171653;34.64;435;03.34.40.014
12928;171646;34.64;436;03.34.40.025
12936;171638;34.64;437;03.34.40.025
12904;171654;34.64;438;03.34.40.025
12896;171653;34.64;439;03.34.40.025
12944;171644;34.64;440;03.34.40.025
12904;171640;34.64;441;03.34.40.025
12912;171640;34.64;442;03.34.40.025
12896;171639;34.64;443;03.34.40.025
12936;171639;34.64;444;03.34.40.025
12916;171627;34.64;445;03.34.40.025
12924;171625;34.64;446;03.34.40.025
12916;171623;34.64;447;03.34.40.025
12912;171622;34.64;448;03.34.40.036
12960;171615;34.64;449;03.34.40.036
12912;171622;34.64;450;03.34.40.124
12912;171607;34.64;451;03.34.40.124
12912;171607;34.64;452;03.34.40.124
12920;171613;34.64;453;03.34.40.124
12928;171615;34.64;454;03.34.40.124
12892;171613;34.64;455;03.34.40.124
12928;171614;34.64;456;03.34.40.124
12928;171611;34.64;457;03.34.40.124
12928;171614;34.64;458;03.34.40.135
12908;171614;34.64;459;03.34.40.135
12908;171611;34.64;460;03.34.40.135
12928;171617;34.64;461;03.34.40.135
12936;171627;34.64;462;03.34.40.135
12924;171623;34.64;463;03.34.40.135
12896;171634;34.64;464;03.34.40.135
12892;171631;34.64;465;03.34.40.135
12912;171632;34.64;466;03.34.40.135
12940;171636;34.64;467;03.34.40.146
12944;171640;34.64;468;03.34.40.146
12928;171643;34.64;469;03.34.40.146
12920;171641;34.64;470;03.34.40.146
12900;171643;34.64;471;03.34.40.146
12928;171643;34.64;472;03.34.40.146
12936;171642;34.64;473;03.34.40.146
12920;171657;34.64;474;03.34.40.146
12932;171655;34.64;475;03.34.40.244
12916;171664;34.64;476;03.34.40.244
12908;171661;34.64;477;03.34.40.244
12924;171682;34.64;478;03.34.40.244
12912;171682;34.64;479;03.34.40.244
12936;171691;34.64;480;03.34.40.244
12892;171688;34.64;481;03.34.40.255
12936;171703;34.64;482;03.34.40.255
12948;171706;34.64;483;03.34.40.255
12916;171715;34.64;484;03.34.40.255
12904;171703;34.64;485;03.34.40.255
12908;171715;34.64;486;03.34.40.255
12888;171729;34.64;487;03.34.40.255
12928;171734;34.64;488;03.34.40.255
12928;171737;34.64;489;03.34.40.255
12932;171734;34.64;490;03.34.40.255
12928;171737;34.64;491;03.34.40.255
12920;171734;34.64;492;03.34.40.255
12924;171743;34.64;493;03.34.40.255
12920;171747;34.64;494;03.34.40.266
12908;171742;34.64;495;03.34.40.266
12948;171735;34.64;496;03.34.40.266
12916;171735;34.64;497;03.34.40.266
12928;171736;34.64;498;03.34.40.266
12936;171735;34.64;499;03.34.40.266
12912;171742;34.64;500;03.34.40.364
12896;171724;34.64;501;03.34.40.375
12908;171734;34.64;502;03.34.40.375
12916;171735;34.64;503;03.34.40.375
12936;171733;34.64;504;03.34.40.375
12892;171728;34.64;505;03.34.40.375
12928;171732;34.64;506;03.34.40.375
12916;171736;34.64;507;03.34.40.375
12896;171740;34.64;508;03.34.40.375
12908;171726;34.64;509;03.34.40.375
12908;171736;34.64;510;03.34.40.375
12892;171728;34.64;511;03.34.40.375
12916;171737;34.64;512;03.34.40.375
12920;171736;34.64;513;03.34.40.375
12924;171737;34.64;514;03.34.40.386
12920;171743;34.64;515;03.34.40.386
12928;171751;34.64;516;03.34.40.386
12892;171764;34.64;517;03.34.40.386
12908;171775;34.64;518;03.34.40.386
12928;171780;34.64;519;03.34.40.386
12908;171790;34.64;520;03.34.40.386
12908;171805;34.64;521;03.34.40.386
12928;171819;34.64;522;03.34.40.386
12928;171833;34.64;523;03.34.40.386
12936;171845;34.64;524;03.34.40.386
12916;171866;34.64;525;03.34.40.507
12928;171880;34.64;526;03.34.40.507
12900;171903;34.64;527;03.34.40.507
12908;171923;34.64;528;03.34.40.507
12920;171934;34.64;529;03.34.40.507
12892;171953;34.64;530;03.34.40.507
12920;171969;34.64;531;03.34.40.507
12912;171988;34.64;532;03.34.40.507
12904;172010;34.64;533;03.34.40.507
12916;172015;34.64;534;03.34.40.507
12920;172019;34.64;535;03.34.40.518
12936;172043;34.64;536;03.34.40.518
12916;172055;34.64;537;03.34.40.518
12928;172070;34.64;538;03.34.40.518
12928;172066;34.64;539;03.34.40.518
12900;172065;34.64;540;03.34.40.518
12912;172075;34.64;541;03.34.40.518
12924;172070;34.64;542;03.34.40.518
12928;172073;34.64;543;03.34.40.518
12896;172070;34.64;544;03.34.40.518
12936;172065;34.64;545;03.34.40.518
12896;172062;34.64;546;03.34.40.518
12908;172054;34.64;547;03.34.40.518
12908;172047;34.64;548;03.34.40.529
12908;172050;34.64;549;03.34.40.529
12916;172046;34.64;550;03.34.40.638
12932;172036;34.64;551;03.34.40.638
12928;172035;34.64;552;03.34.40.638
12912;172026;34.64;553;03.34.40.638
12928;172024;34.64;554;03.34.40.638
12884;172013;34.64;555;03.34.40.638
12908;172013;34.64;556;03.34.40.638
12912;172014;34.64;557;03.34.40.649
12912;172008;34.64;558;03.34.40.649
12916;172011;34.64;559;03.34.40.649
12912;172008;34.64;560;03.34.40.649
12908;171999;34.64;561;03.34.40.649
12916;171999;34.64;562;03.34.40.649
12928;171997;34.64;563;03.34.40.649
12876;171992;34.64;564;03.34.40.649
12904;171992;34.64;565;03.34.40.649
12920;171995;34.64;566;03.34.40.649
12908;171985;34.64;567;03.34.40.649
12904;171984;34.64;568;03.34.40.649
12904;171972;34.64;569;03.34.40.660
12896;171966;34.64;570;03.34.40.660
12904;171954;34.64;571;03.34.40.660
12908;171945;34.64;572;03.34.40.660
12904;171920;34.64;573;03.34.40.660
12920;171909;34.64;574;03.34.40.660
12884;171889;34.64;575;03.34.40.748
12944;171870;34.64;576;03.34.40.748
12932;171852;34.64;577;03.34.40.748
12900;171839;34.64;578;03.34.40.759
12900;171811;34.64;579;03.34.40.759
12900;171797;34.64;580;03.34.40.759
12920;171777;34.64;581;03.34.40.759
12928;171777;34.64;582;03.34.40.759
12904;171761;34.64;583;03.34.40.770
12892;171746;34.64;584;03.34.40.770
12908;171743;34.64;585;03.34.40.770
12908;171721;34.64;586;03.34.40.781
12904;171718;34.64;587;03.34.40.781
12944;171704;34.64;588;03.34.40.781
12908;171705;34.64;589;03.34.40.781
12916;171692;34.64;590;03.34.40.781
12916;171690;34.64;591;03.34.40.781
12892;171694;34.64;592;03.34.40.781
12928;171684;34.64;593;03.34.40.781
12900;171675;34.64;594;03.34.40.781
12904;171674;34.64;595;03.34.40.781
12912;171674;34.64;596;03.34.40.781
12900;171673;34.64;597;03.34.40.781
12936;171671;34.64;598;03.34.40.781
12924;171668;34.64;599;03.34.40.792
12924;171665;34.64;600;03.34.40.880
12928;171667;34.64;601;03.34.40.880
12908;171666;34.64;602;03.34.40.880
12896;171661;34.64;603;03.34.40.880
12908;171657;34.64;604;03.34.40.880
12924;171653;34.64;605;03.34.40.880
12928;171653;34.64;606;03.34.40.880
12928;171647;34.64;607;03.34.40.880
12916;171640;34.64;608;03.34.40.880
12904;171636;34.64;609;03.34.40.880
12936;171628;34.64;610;03.34.40.880
12912;171643;34.64;611;03.34.40.880
12932;171636;34.64;612;03.34.40.891
12916;171634;34.64;613;03.34.40.891
12908;171637;34.64;614;03.34.40.891
12940;171639;34.64;615;03.34.40.891
12888;171632;34.64;616;03.34.40.891
12928;171633;34.64;617;03.34.40.891
12924;171632;34.64;618;03.34.40.891
12908;171631;34.64;619;03.34.40.891
12920;171635;34.64;620;03.34.40.891
12916;171639;34.64;621;03.34.40.891
12892;171646;34.64;622;03.34.40.891
12912;171635;34.64;623;03.34.40.891
12960;171636;34.64;624;03.34.40.902
12936;171638;34.64;625;03.34.41.000
12928;171634;34.64;626;03.34.41.000
12908;171645;34.64;627;03.34.41.000
12912;171635;34.64;628;03.34.41.000
12928;171639;34.64;629;03.34.41.000
12944;171637;34.64;630;03.34.41.000
12928;171648;34.64;631;03.34.41.000
12920;171643;34.64;632;03.34.41.000
12896;171646;34.64;633;03.34.41.000
12924;171641;34.64;634;03.34.41.011
12928;171642;34.64;635;03.34.41.011
12908;171647;34.64;636;03.34.41.011
12928;171644;34.64;637;03.34.41.011
12896;171640;34.64;638;03.34.41.011
12924;171644;34.64;639;03.34.41.011
12900;171649;34.64;640;03.34.41.011
12928;171641;34.64;641;03.34.41.011
12932;171642;34.64;642;03.34.41.022
12896;171648;34.64;643;03.34.41.022
12908;171644;34.64;644;03.34.41.022
12916;171645;34.64;645;03.34.41.022
12916;171641;34.64;646;03.34.41.022
12880;171639;34.64;647;03.34.41.022
12932;171645;34.64;648;03.34.41.022
12892;171643;34.64;649;03.34.41.033
12928;171640;34.64;650;03.34.41.121
12920;171631;34.64;651;03.34.41.121
12908;171641;34.64;652;03.34.41.121
12928;171642;34.64;653;03.34.41.121
12908;171634;34.64;654;03.34.41.132
12912;171642;34.64;655;03.34.41.132
12916;171635;34.64;656;03.34.41.132
12912;171635;34.64;657;03.34.41.132
12908;171636;34.64;658;03.34.41.132
12932;171639;34.64;659;03.34.41.132
12908;171640;34.64;660;03.34.41.132
12920;171641;34.64;661;03.34.41.132
12908;171643;34.64;662;03.34.41.132
12928;171637;34.64;663;03.34.41.143
12928;171642;34.64;664;03.34.41.143
12900;171637;34.64;665;03.34.41.143
12912;171644;34.64;666;03.34.41.143
12904;171638;34.64;667;03.34.41.143
12908;171637;34.64;668;03.34.41.143
12932;171632;34.64;669;03.34.41.143
12884;171639;34.64;670;03.34.41.143
12908;171634;34.64;671;03.34.41.143
12912;171637;34.64;672;03.34.41.143
12924;171635;34.64;673;03.34.41.143
12952;171643;34.64;674;03.34.41.143
12928;171642;34.64;675;03.34.41.252
12924;171634;34.64;676;03.34.41.252
12916;171638;34.64;677;03.34.41.252
12928;171644;34.64;678;03.34.41.252
12936;171645;34.64;679;03.34.41.252
12928;171642;34.64;680;03.34.41.252
12928;171643;34.64;681;03.34.41.252
12920;171643;34.64;682;03.34.41.252
12888;171640;34.64;683;03.34.41.285
12920;171640;34.64;684;03.34.41.285
12924;171636;34.64;685;03.34.41.285
12928;171635;34.64;686;03.34.41.285
12916;171640;34.64;687;03.34.41.285
12932;171634;34.64;688;03.34.41.285
12904;171638;34.64;689;03.34.41.285
12912;171640;34.64;690;03.34.41.285
12924;171642;34.64;691;03.34.41.285
12900;171643;34.64;692;03.34.41.285
12912;171634;34.64;693;03.34.41.285
12912;171637;34.64;694;03.34.41.285
12892;171644;34.64;695;03.34.41.296
12908;171653;34.64;696;03.34.41.296
12932;171659;34.64;697;03.34.41.296
12928;171657;34.64;698;03.34.41.296
12908;171653;34.64;699;03.34.41.296
12924;171652;34.64;700;03.34.41.372
12904;171652;34.64;701;03.34.41.372
12940;171653;34.64;702;03.34.41.372
12904;171659;34.64;703;03.34.41.372
12884;171658;34.64;704;03.34.41.372
12928;171659;34.64;705;03.34.41.372
12928;171654;34.64;706;03.34.41.372
12936;171664;34.64;707;03.34.41.372
12912;171662;34.64;708;03.34.41.372
12948;171666;34.64;709;03.34.41.383
12908;171658;34.64;710;03.34.41.383
12908;171662;34.64;711;03.34.41.383
12908;171664;34.64;712;03.34.41.383
12908;171659;34.64;713;03.34.41.383
12920;171644;34.64;714;03.34.41.383
12912;171635;34.64;715;03.34.41.383
12912;171651;34.64;716;03.34.41.383
12904;171642;34.64;717;03.34.41.383
12900;171632;34.64;718;03.34.41.383
12928;171636;34.64;719;03.34.41.383
12908;171624;34.64;720;03.34.41.383
12928;171616;34.64;721;03.34.41.383
12928;171616;34.64;722;03.34.41.394
12940;171612;34.64;723;03.34.41.394
12940;171602;34.64;724;03.34.41.394
12924;171605;34.64;725;03.34.41.515
12932;171593;34.64;726;03.34.41.515
12904;171593;34.64;727;03.34.41.515
12944;171581;34.64;728;03.34.41.515
12932;171590;34.64;729;03.34.41.515
12912;171577;34.64;730;03.34.41.526
12908;171573;34.64;731;03.34.41.526
12916;171572;34.64;732;03.34.41.526
12936;171568;34.64;733;03.34.41.526
12892;171557;34.64;734;03.34.41.526
12912;171552;34.64;735;03.34.41.526
12932;171552;34.64;736;03.34.41.526
12932;171550;34.64;737;03.34.41.526
12904;171554;34.64;738;03.34.41.526
12920;171544;34.64;739;03.34.41.537
12904;171547;34.64;740;03.34.41.537
12936;171539;34.64;741;03.34.41.537
12928;171537;34.64;742;03.34.41.548
12904;171536;34.64;743;03.34.41.548
12904;171534;34.64;744;03.34.41.548
12916;171530;34.64;745;03.34.41.548
12880;171525;34.64;746;03.34.41.548
12896;171521;34.64;747;03.34.41.559
12908;171519;34.64;748;03.34.41.559
12924;171514;34.64;749;03.34.41.559
12928;171509;34.64;750;03.34.41.625
12928;171519;34.64;751;03.34.41.635
12924;171512;34.64;752;03.34.41.635
12912;171511;34.64;753;03.34.41.635
12928;171513;34.64;754;03.34.41.635
12928;171510;34.64;755;03.34.41.635
12904;171513;34.64;756;03.34.41.635
12928;171512;34.64;757;03.34.41.635
12928;171511;34.64;758;03.34.41.635
12908;171512;34.64;759;03.34.41.635
12960;171506;34.64;760;03.34.41.635
12924;171504;34.64;761;03.34.41.635
12904;171495;34.64;762;03.34.41.635
12912;171492;34.64;763;03.34.41.635
12928;171490;34.64;764;03.34.41.646
12920;171492;34.64;765;03.34.41.646
12888;171496;34.64;766;03.34.41.646
12892;171497;34.64;767;03.34.41.646
12904;171494;34.64;768;03.34.41.646
12912;171490;34.64;769;03.34.41.646
12896;171495;34.64;770;03.34.41.646
12908;171492;34.64;771;03.34.41.646
12912;171486;34.64;772;03.34.41.646
12920;171485;34.64;773;03.34.41.646
12928;171490;34.64;774;03.34.41.646
12924;171491;34.64;775;03.34.41.778
12892;171487;34.64;776;03.34.41.778
12920;171488;34.64;777;03.34.41.778
12916;171489;34.64;778;03.34.41.778
12928;171492;34.64;779;03.34.41.778
12928;171495;34.64;780;03.34.41.778
12892;171499;34.64;781;03.34.41.778
12928;171494;34.64;782;03.34.41.778
12908;171491;34.64;783;03.34.41.778
12916;171492;34.64;784;03.34.41.778
12944;171493;34.64;785;03.34.41.790
12928;171489;34.64;786;03.34.41.790
12924;171491;34.64;787;03.34.41.790
12920;171487;34.64;788;03.34.41.790
12896;171489;34.64;789;03.34.41.790
12916;171494;34.64;790;03.34.41.790
12920;171491;34.64;791;03.34.41.790
12928;171490;34.64;792;03.34.41.790
12892;171499;34.64;793;03.34.41.790
12904;171494;34.64;794;03.34.41.790
12916;171495;34.64;795;03.34.41.790
12928;171496;34.64;796;03.34.41.790
12960;171490;34.64;797;03.34.41.790
12876;171495;34.64;798;03.34.41.790
12904;171498;34.64;799;03.34.41.790
12916;171496;34.64;800;03.34.41.878
12912;171503;34.64;801;03.34.41.878
12904;171495;34.64;802;03.34.41.878
12916;171504;34.64;803;03.34.41.878
12920;171505;34.64;804;03.34.41.878
12920;171504;34.64;805;03.34.41.878
12912;171514;34.64;806;03.34.41.878
12920;171513;34.64;807;03.34.41.878
12928;171514;34.64;808;03.34.41.889
12912;171522;34.64;809;03.34.41.889
12896;171517;34.64;810;03.34.41.889
12920;171513;34.64;811;03.34.41.889
12904;171515;34.64;812;03.34.41.889
12912;171522;34.64;813;03.34.41.889
12936;171522;34.64;814;03.34.41.889
12908;171526;34.64;815;03.34.41.889
12912;171525;34.64;816;03.34.41.889
12912;171522;34.64;817;03.34.41.911
12916;171529;34.64;818;03.34.41.911
12920;171520;34.64;819;03.34.41.911
12928;171534;34.64;820;03.34.41.911
12936;171523;34.64;821;03.34.41.911
12928;171538;34.64;822;03.34.41.911
12936;171530;34.64;823;03.34.41.911
12948;171531;34.64;824;03.34.41.911
12916;171531;34.64;825;03.34.41.999
12892;171537;34.64;826;03.34.41.999
12912;171529;34.64;827;03.34.41.999
12908;171526;34.64;828;03.34.42.009
12884;171544;34.64;829;03.34.42.009
12920;171547;34.64;830;03.34.42.009
12932;171552;34.64;831;03.34.42.009
12892;171542;34.64;832;03.34.42.009
12956;171551;34.64;833;03.34.42.009
12916;171557;34.64;834;03.34.42.009
12920;171551;34.64;835;03.34.42.009
12908;171547;34.64;836;03.34.42.009
12944;171554;34.64;837;03.34.42.009
12904;171555;34.64;838;03.34.42.009
12900;171558;34.64;839;03.34.42.009
12936;171541;34.64;840;03.34.42.009
12888;171556;34.64;841;03.34.42.009
12916;171559;34.64;842;03.34.42.009
12904;171560;34.64;843;03.34.42.020
12908;171557;34.64;844;03.34.42.020
12924;171560;34.64;845;03.34.42.020
12928;171561;34.64;846;03.34.42.020
12900;171554;34.64;847;03.34.42.020
12908;171545;34.64;848;03.34.42.020
12936;171550;34.64;849;03.34.42.020
12904;171538;34.64;850;03.34.42.141
12912;171543;34.64;851;03.34.42.141
12908;171539;34.64;852;03.34.42.141
12924;171535;34.64;853;03.34.42.141
12920;171530;34.64;854;03.34.42.141
12928;171533;34.64;855;03.34.42.141
12908;171531;34.64;856;03.34.42.141
12892;171524;34.64;857;03.34.42.141
12928;171521;34.64;858;03.34.42.141
12928;171509;34.64;859;03.34.42.152
12952;171508;34.64;860;03.34.42.152
12892;171502;34.64;861;03.34.42.152
12900;171506;34.64;862;03.34.42.152
12888;171505;34.64;863;03.34.42.152
12932;171494;34.64;864;03.34.42.152
12928;171494;34.64;865;03.34.42.152
12920;171496;34.64;866;03.34.42.152
12912;171487;34.64;867;03.34.42.152
12932;171483;34.64;868;03.34.42.152
12892;171487;34.64;869;03.34.42.152
12916;171478;34.64;870;03.34.42.152
12876;171474;34.64;871;03.34.42.152
12924;171479;34.64;872;03.34.42.163
12896;171477;34.64;873;03.34.42.163
12920;171474;34.64;874;03.34.42.163
12896;171468;34.68;875;03.34.42.251
12928;171466;34.68;876;03.34.42.251
12928;171468;34.68;877;03.34.42.251
12908;171468;34.68;878;03.34.42.251
12900;171465;34.68;879;03.34.42.251
12904;171467;34.68;880;03.34.42.251
12916;171466;34.68;881;03.34.42.251
12916;171461;34.68;882;03.34.42.251
12928;171466;34.68;883;03.34.42.251
12904;171464;34.68;884;03.34.42.251
12928;171466;34.68;885;03.34.42.251
12908;171463;34.68;886;03.34.42.262
12912;171462;34.68;887;03.34.42.262
12908;171461;34.68;888;03.34.42.262
12920;171459;34.68;889;03.34.42.262
12928;171456;34.68;890;03.34.42.262
12916;171463;34.68;891;03.34.42.262
12908;171462;34.68;892;03.34.42.273
12928;171460;34.68;893;03.34.42.273
12896;171464;34.68;894;03.34.42.273
12900;171454;34.68;895;03.34.42.273
12916;171466;34.68;896;03.34.42.273
12908;171468;34.68;897;03.34.42.273
12928;171461;34.68;898;03.34.42.273
12920;171471;34.68;899;03.34.42.273
12892;171464;34.68;900;03.34.42.382
12928;171471;34.68;901;03.34.42.382
12900;171464;34.68;902;03.34.42.382
12896;171474;34.68;903;03.34.42.382
12912;171474;34.68;904;03.34.42.382
12908;171464;34.68;905;03.34.42.382
12904;171478;34.68;906;03.34.42.382
12924;171479;34.68;907;03.34.42.393
12904;171468;34.68;908;03.34.42.393
12900;171470;34.68;909;03.34.42.393
12944;171472;34.68;910;03.34.42.393
12892;171471;34.68;911;03.34.42.393
12928;171473;34.68;912;03.34.42.393
12908;171476;34.68;913;03.34.42.393
12900;171478;34.68;914;03.34.42.404
12880;171479;34.68;915;03.34.42.404
12908;171475;34.68;916;03.34.42.404
12924;171479;34.68;917;03.34.42.404
12916;171478;34.68;918;03.34.42.404
12884;171480;34.68;919;03.34.42.404
12912;171478;34.68;920;03.34.42.404
12880;171474;34.68;921;03.34.42.404
12892;171483;34.68;922;03.34.42.404
12904;171481;34.68;923;03.34.42.404
12936;171477;34.68;924;03.34.42.415
12924;171485;34.64;925;03.34.42.492
12896;171480;34.64;926;03.34.42.492
12892;171476;34.64;927;03.34.42.492
12892;171486;34.64;928;03.34.42.503
12888;171480;34.64;929;03.34.42.503
12912;171481;34.64;930;03.34.42.503
12920;171480;34.64;931;03.34.42.503
12944;171477;34.64;932;03.34.42.503
12920;171491;34.64;933;03.34.42.503
12896;171480;34.64;934;03.34.42.503
12944;171488;34.64;935;03.34.42.503
12900;171491;34.64;936;03.34.42.503
12904;171492;34.64;937;03.34.42.503
12908;171479;34.64;938;03.34.42.503
12912;171490;34.64;939;03.34.42.503
12916;171492;34.64;940;03.34.42.503
12928;171492;34.64;941;03.34.42.514
12888;171485;34.64;942;03.34.42.514
12900;171496;34.64;943;03.34.42.514
12912;171497;34.64;944;03.34.42.514
12940;171500;34.64;945;03.34.42.514
12884;171511;34.64;946;03.34.42.514
12892;171505;34.64;947;03.34.42.514
12912;171508;34.64;948;03.34.42.514
12916;171504;34.64;949;03.34.42.514
12928;171511;34.64;950;03.34.42.635
12916;171512;34.64;951;03.34.42.635
12944;171510;34.64;952;03.34.42.635
12924;171510;34.64;953;03.34.42.635
12912;171517;34.64;954;03.34.42.635
12892;171511;34.64;955;03.34.42.635
12920;171525;34.64;956;03.34.42.635
12920;171516;34.64;957;03.34.42.635
12924;171512;34.64;958;03.34.42.635
12896;171517;34.64;959;03.34.42.646
12912;171511;34.64;960;03.34.42.646
12944;171516;34.64;961;03.34.42.646
12892;171522;34.64;962;03.34.42.646
12900;171518;34.64;963;03.34.42.646
12936;171523;34.64;964;03.34.42.646
12924;171527;34.64;965;03.34.42.646
12936;171522;34.64;966;03.34.42.646
12904;171523;34.64;967;03.34.42.646
12892;171519;34.64;968;03.34.42.646
12924;171529;34.64;969;03.34.42.646
12912;171529;34.64;970;03.34.42.646
12904;171522;34.64;971;03.34.42.657
12892;171528;34.64;972;03.34.42.657
12928;171530;34.64;973;03.34.42.657
12924;171537;34.64;974;03.34.42.657
