gsr; bvp; skt; skt2; Cont; time
12880;170253;32.80;125;04.08.19.570
12888;170257;32.80;126;04.08.19.570
12872;170256;32.80;127;04.08.19.570
12876;170256;32.80;128;04.08.19.570
12872;170255;32.80;129;04.08.19.570
12892;170257;32.80;130;04.08.19.570
12888;170254;32.80;131;04.08.19.570
12896;170264;32.80;132;04.08.19.570
12860;170264;32.80;133;04.08.19.570
12916;170268;32.80;134;04.08.19.570
12904;170262;32.80;135;04.08.19.581
12904;170264;32.80;136;04.08.19.581
12900;170262;32.80;137;04.08.19.581
12880;170267;32.80;138;04.08.19.581
12928;170261;32.80;139;04.08.19.581
12912;170274;32.80;140;04.08.19.581
12900;170271;32.80;141;04.08.19.581
12872;170271;32.80;142;04.08.19.581
12884;170269;32.80;143;04.08.19.581
12900;170283;32.80;144;04.08.19.581
12900;170277;32.80;145;04.08.19.581
12900;170279;32.80;146;04.08.19.581
12884;170280;32.80;147;04.08.19.581
12912;170289;32.80;148;04.08.19.599
12892;170290;32.80;149;04.08.19.599
12900;170292;32.80;150;04.08.19.699
12892;170283;32.80;151;04.08.19.699
12860;170290;32.80;152;04.08.19.699
12916;170291;32.80;153;04.08.19.710
12888;170290;32.80;154;04.08.19.710
12912;170291;32.80;155;04.08.19.710
12880;170287;32.80;156;04.08.19.710
12896;170293;32.80;157;04.08.19.710
12896;170287;32.80;158;04.08.19.710
12892;170279;32.80;159;04.08.19.710
12884;170274;32.80;160;04.08.19.710
12876;170267;32.80;161;04.08.19.710
12896;170266;32.80;162;04.08.19.710
12896;170262;32.80;163;04.08.19.710
12884;170261;32.80;164;04.08.19.710
12900;170250;32.80;165;04.08.19.710
12892;170255;32.80;166;04.08.19.721
12908;170247;32.80;167;04.08.19.721
12860;170241;32.80;168;04.08.19.721
12884;170234;32.80;169;04.08.19.721
12916;170234;32.80;170;04.08.19.721
12908;170238;32.80;171;04.08.19.721
12884;170224;32.80;172;04.08.19.721
12888;170224;32.80;173;04.08.19.721
12916;170224;32.80;174;04.08.19.721
12896;170225;32.80;175;04.08.19.841
12876;170214;32.80;176;04.08.19.841
12876;170219;32.80;177;04.08.19.841
12896;170203;32.80;178;04.08.19.841
12892;170206;32.80;179;04.08.19.841
12892;170208;32.80;180;04.08.19.841
12904;170209;32.80;181;04.08.19.841
12896;170212;32.80;182;04.08.19.841
12880;170201;32.80;183;04.08.19.841
12880;170210;32.80;184;04.08.19.841
12860;170206;32.80;185;04.08.19.841
12892;170198;32.80;186;04.08.19.841
12892;170205;32.80;187;04.08.19.852
12908;170195;32.80;188;04.08.19.852
12872;170202;32.80;189;04.08.19.852
12912;170200;32.80;190;04.08.19.852
12892;170199;32.80;191;04.08.19.852
12928;170202;32.80;192;04.08.19.852
12900;170196;32.80;193;04.08.19.852
12900;170198;32.80;194;04.08.19.852
12928;170192;32.80;195;04.08.19.852
12880;170193;32.80;196;04.08.19.852
12908;170192;32.80;197;04.08.19.852
12888;170200;32.80;198;04.08.19.852
12904;170201;32.80;199;04.08.19.852
12880;170195;32.80;200;04.08.19.951
12892;170192;32.80;201;04.08.19.951
12892;170192;32.80;202;04.08.19.951
12912;170194;32.80;203;04.08.19.951
12884;170187;32.80;204;04.08.19.951
12876;170185;32.80;205;04.08.19.951
12884;170188;32.80;206;04.08.19.951
12896;170192;32.80;207;04.08.19.951
12896;170196;32.80;208;04.08.19.962
12884;170192;32.80;209;04.08.19.962
12884;170196;32.80;210;04.08.19.962
12884;170195;32.80;211;04.08.19.962
12872;170201;32.80;212;04.08.19.962
12904;170193;32.80;213;04.08.19.962
12904;170196;32.80;214;04.08.19.962
12904;170203;32.80;215;04.08.19.973
12876;170196;32.80;216;04.08.19.973
12876;170193;32.80;217;04.08.19.973
12876;170202;32.80;218;04.08.19.973
12880;170201;32.80;219;04.08.19.973
12884;170191;32.80;220;04.08.19.973
12904;170191;32.80;221;04.08.19.973
12892;170202;32.80;222;04.08.19.973
12912;170200;32.80;223;04.08.19.973
12924;170203;32.80;224;04.08.19.973
12876;170198;32.84;225;04.08.20.071
12888;170208;32.84;226;04.08.20.071
12876;170207;32.84;227;04.08.20.082
12888;170201;32.84;228;04.08.20.082
12896;170197;32.84;229;04.08.20.082
12892;170200;32.84;230;04.08.20.082
12884;170203;32.84;231;04.08.20.082
12892;170198;32.84;232;04.08.20.082
12900;170195;32.84;233;04.08.20.082
12888;170199;32.84;234;04.08.20.082
12904;170198;32.84;235;04.08.20.082
12892;170198;32.84;236;04.08.20.082
12860;170196;32.84;237;04.08.20.082
12904;170201;32.84;238;04.08.20.093
12888;170192;32.84;239;04.08.20.093
12880;170206;32.84;240;04.08.20.093
12872;170201;32.84;241;04.08.20.093
12876;170201;32.84;242;04.08.20.104
12904;170198;32.84;243;04.08.20.104
12856;170204;32.84;244;04.08.20.104
12896;170195;32.84;245;04.08.20.104
12860;170198;32.84;246;04.08.20.115
12888;170207;32.84;247;04.08.20.115
12892;170203;32.84;248;04.08.20.115
12888;170207;32.84;249;04.08.20.115
12884;170207;32.84;250;04.08.20.192
12892;170209;32.84;251;04.08.20.203
12880;170203;32.84;252;04.08.20.203
12880;170210;32.84;253;04.08.20.203
12872;170204;32.84;254;04.08.20.203
12900;170200;32.84;255;04.08.20.203
12876;170209;32.84;256;04.08.20.203
12888;170209;32.84;257;04.08.20.203
12912;170209;32.84;258;04.08.20.203
12912;170215;32.84;259;04.08.20.203
12876;170214;32.84;260;04.08.20.203
12880;170216;32.84;261;04.08.20.203
12880;170210;32.84;262;04.08.20.203
12884;170214;32.84;263;04.08.20.214
12880;170215;32.84;264;04.08.20.214
12876;170222;32.84;265;04.08.20.214
12908;170216;32.84;266;04.08.20.214
12884;170223;32.84;267;04.08.20.225
12888;170214;32.84;268;04.08.20.225
12900;170226;32.84;269;04.08.20.225
12888;170226;32.84;270;04.08.20.225
12888;170227;32.84;271;04.08.20.225
12896;170232;32.84;272;04.08.20.225
12928;170227;32.84;273;04.08.20.225
12892;170216;32.84;274;04.08.20.225
12900;170230;32.80;275;04.08.20.334
12860;170236;32.80;276;04.08.20.334
12856;170232;32.80;277;04.08.20.334
12896;170236;32.80;278;04.08.20.334
12900;170229;32.80;279;04.08.20.334
12900;170235;32.80;280;04.08.20.334
12884;170235;32.80;281;04.08.20.334
12888;170236;32.80;282;04.08.20.334
12880;170242;32.80;283;04.08.20.334
12928;170247;32.80;284;04.08.20.345
12908;170239;32.80;285;04.08.20.345
12880;170247;32.80;286;04.08.20.345
12892;170241;32.80;287;04.08.20.345
12912;170243;32.80;288;04.08.20.345
12896;170245;32.80;289;04.08.20.345
12928;170251;32.80;290;04.08.20.345
12904;170245;32.80;291;04.08.20.345
12912;170249;32.80;292;04.08.20.345
12896;170257;32.80;293;04.08.20.345
12876;170251;32.80;294;04.08.20.345
12896;170255;32.80;295;04.08.20.345
12904;170258;32.80;296;04.08.20.345
12896;170255;32.80;297;04.08.20.356
12896;170263;32.80;298;04.08.20.356
12904;170258;32.80;299;04.08.20.356
12876;170261;32.80;300;04.08.20.444
12892;170262;32.80;301;04.08.20.444
12880;170259;32.80;302;04.08.20.444
12880;170260;32.80;303;04.08.20.444
12868;170263;32.80;304;04.08.20.444
12888;170263;32.80;305;04.08.20.455
12896;170264;32.80;306;04.08.20.455
12884;170266;32.80;307;04.08.20.455
12872;170264;32.80;308;04.08.20.466
12880;170268;32.80;309;04.08.20.466
12896;170262;32.80;310;04.08.20.466
12896;170266;32.80;311;04.08.20.466
12884;170271;32.80;312;04.08.20.466
12904;170268;32.80;313;04.08.20.466
12892;170273;32.80;314;04.08.20.477
12904;170270;32.80;315;04.08.20.477
12924;170275;32.80;316;04.08.20.477
12884;170265;32.80;317;04.08.20.477
12904;170274;32.80;318;04.08.20.477
12900;170281;32.80;319;04.08.20.477
12928;170277;32.80;320;04.08.20.477
12888;170285;32.80;321;04.08.20.477
12904;170287;32.80;322;04.08.20.477
12876;170283;32.80;323;04.08.20.477
12928;170294;32.80;324;04.08.20.477
12892;170289;32.80;325;04.08.20.564
12888;170292;32.80;326;04.08.20.575
12904;170289;32.80;327;04.08.20.575
12896;170294;32.80;328;04.08.20.575
12916;170297;32.80;329;04.08.20.575
12920;170303;32.80;330;04.08.20.575
12888;170299;32.80;331;04.08.20.575
12908;170301;32.80;332;04.08.20.575
12920;170303;32.80;333;04.08.20.575
12880;170300;32.80;334;04.08.20.575
12892;170299;32.80;335;04.08.20.586
12888;170295;32.80;336;04.08.20.586
12912;170303;32.80;337;04.08.20.586
12928;170301;32.80;338;04.08.20.586
12880;170296;32.80;339;04.08.20.586
12900;170297;32.80;340;04.08.20.586
12916;170288;32.80;341;04.08.20.586
12908;170283;32.80;342;04.08.20.597
12888;170277;32.80;343;04.08.20.608
12888;170270;32.80;344;04.08.20.608
12880;170261;32.80;345;04.08.20.608
12896;170260;32.80;346;04.08.20.608
12892;170247;32.80;347;04.08.20.608
12912;170246;32.80;348;04.08.20.608
12904;170245;32.80;349;04.08.20.608
12904;170241;32.80;350;04.08.20.695
12900;170249;32.80;351;04.08.20.695
12888;170234;32.80;352;04.08.20.695
12884;170246;32.80;353;04.08.20.695
12888;170233;32.80;354;04.08.20.695
12892;170233;32.80;355;04.08.20.695
12892;170229;32.80;356;04.08.20.695
12900;170228;32.80;357;04.08.20.695
12880;170222;32.80;358;04.08.20.695
12888;170224;32.80;359;04.08.20.695
12876;170227;32.80;360;04.08.20.695
12892;170218;32.80;361;04.08.20.706
12888;170224;32.80;362;04.08.20.706
12912;170218;32.80;363;04.08.20.706
12896;170213;32.80;364;04.08.20.706
12888;170225;32.80;365;04.08.20.706
12896;170218;32.80;366;04.08.20.706
12876;170208;32.80;367;04.08.20.706
12880;170219;32.80;368;04.08.20.706
12896;170217;32.80;369;04.08.20.706
12896;170217;32.80;370;04.08.20.706
12916;170209;32.80;371;04.08.20.706
12900;170219;32.80;372;04.08.20.706
12876;170209;32.80;373;04.08.20.717
12916;170218;32.80;374;04.08.20.717
12912;170221;32.84;375;04.08.20.827
12904;170213;32.84;376;04.08.20.827
12908;170216;32.84;377;04.08.20.827
12920;170211;32.84;378;04.08.20.827
12912;170212;32.84;379;04.08.20.827
12904;170216;32.84;380;04.08.20.827
12888;170221;32.84;381;04.08.20.827
12896;170212;32.84;382;04.08.20.838
12900;170218;32.84;383;04.08.20.838
12904;170221;32.84;384;04.08.20.838
12892;170219;32.84;385;04.08.20.838
12916;170220;32.84;386;04.08.20.838
12904;170214;32.84;387;04.08.20.838
12896;170227;32.84;388;04.08.20.838
12904;170225;32.84;389;04.08.20.838
12900;170225;32.84;390;04.08.20.838
12876;170222;32.84;391;04.08.20.838
12876;170223;32.84;392;04.08.20.849
12876;170224;32.84;393;04.08.20.849
12884;170225;32.84;394;04.08.20.849
12916;170226;32.84;395;04.08.20.849
12896;170232;32.84;396;04.08.20.849
12884;170231;32.84;397;04.08.20.849
12892;170218;32.84;398;04.08.20.849
12944;170215;32.84;399;04.08.20.860
12920;170209;32.84;400;04.08.20.959
12884;170209;32.84;401;04.08.20.959
12888;170213;32.84;402;04.08.20.970
12904;170212;32.84;403;04.08.20.970
12896;170220;32.84;404;04.08.20.970
12872;170221;32.84;405;04.08.20.970
12884;170218;32.84;406;04.08.20.970
12888;170213;32.84;407;04.08.20.970
12896;170208;32.84;408;04.08.20.970
12896;170214;32.84;409;04.08.20.970
12900;170211;32.84;410;04.08.20.970
12880;170213;32.84;411;04.08.20.970
12880;170217;32.84;412;04.08.20.970
12876;170214;32.84;413;04.08.20.970
12916;170213;32.84;414;04.08.20.970
12904;170217;32.84;415;04.08.20.970
12928;170214;32.84;416;04.08.20.981
12900;170204;32.84;417;04.08.20.981
12900;170212;32.84;418;04.08.20.981
12900;170215;32.84;419;04.08.20.981
12884;170218;32.84;420;04.08.20.981
12896;170210;32.84;421;04.08.20.981
12896;170216;32.84;422;04.08.20.981
12904;170215;32.84;423;04.08.20.981
12912;170216;32.84;424;04.08.20.981
12880;170217;32.80;425;04.08.21.078
12860;170207;32.80;426;04.08.21.078
12868;170215;32.80;427;04.08.21.078
12888;170218;32.80;428;04.08.21.078
12908;170221;32.80;429;04.08.21.078
12872;170213;32.80;430;04.08.21.078
12896;170216;32.80;431;04.08.21.078
12892;170221;32.80;432;04.08.21.078
12892;170221;32.80;433;04.08.21.100
12880;170223;32.80;434;04.08.21.100
12904;170222;32.80;435;04.08.21.100
12884;170220;32.80;436;04.08.21.100
12872;170229;32.80;437;04.08.21.100
12884;170230;32.80;438;04.08.21.100
12888;170226;32.80;439;04.08.21.100
12884;170225;32.80;440;04.08.21.100
12908;170224;32.80;441;04.08.21.100
12896;170230;32.80;442;04.08.21.100
12896;170237;32.80;443;04.08.21.100
12888;170228;32.80;444;04.08.21.100
12912;170236;32.80;445;04.08.21.111
12896;170244;32.80;446;04.08.21.111
12892;170239;32.80;447;04.08.21.111
12904;170237;32.80;448;04.08.21.111
12892;170240;32.80;449;04.08.21.111
12896;170237;32.80;450;04.08.21.199
12912;170241;32.80;451;04.08.21.199
12888;170234;32.80;452;04.08.21.199
12900;170240;32.80;453;04.08.21.199
12900;170246;32.80;454;04.08.21.199
12892;170251;32.80;455;04.08.21.199
12884;170247;32.80;456;04.08.21.199
12888;170250;32.80;457;04.08.21.210
12920;170242;32.80;458;04.08.21.221
12928;170248;32.80;459;04.08.21.221
12892;170245;32.80;460;04.08.21.221
12884;170256;32.80;461;04.08.21.221
12896;170255;32.80;462;04.08.21.221
12908;170250;32.80;463;04.08.21.221
12916;170247;32.80;464;04.08.21.232
12884;170248;32.80;465;04.08.21.232
12888;170255;32.80;466;04.08.21.232
12888;170255;32.80;467;04.08.21.232
12904;170251;32.80;468;04.08.21.232
12868;170256;32.80;469;04.08.21.232
12884;170259;32.80;470;04.08.21.232
12900;170256;32.80;471;04.08.21.232
12876;170256;32.80;472;04.08.21.232
12900;170254;32.80;473;04.08.21.232
12884;170259;32.80;474;04.08.21.243
12916;170260;32.80;475;04.08.21.319
12892;170259;32.80;476;04.08.21.319
12880;170265;32.80;477;04.08.21.319
12904;170254;32.80;478;04.08.21.330
12888;170262;32.80;479;04.08.21.330
12896;170262;32.80;480;04.08.21.330
12904;170260;32.80;481;04.08.21.330
12904;170264;32.80;482;04.08.21.330
12900;170261;32.80;483;04.08.21.330
12876;170267;32.80;484;04.08.21.330
12884;170276;32.80;485;04.08.21.330
12876;170271;32.80;486;04.08.21.330
12908;170270;32.80;487;04.08.21.330
12860;170279;32.80;488;04.08.21.330
12892;170273;32.80;489;04.08.21.330
12892;170268;32.80;490;04.08.21.330
12900;170276;32.80;491;04.08.21.341
12936;170271;32.80;492;04.08.21.341
12884;170276;32.80;493;04.08.21.341
12884;170272;32.80;494;04.08.21.341
12896;170278;32.80;495;04.08.21.341
12896;170282;32.80;496;04.08.21.352
12888;170284;32.80;497;04.08.21.352
12904;170281;32.80;498;04.08.21.352
12912;170283;32.80;499;04.08.21.352
12888;170285;32.80;500;04.08.21.461
12892;170281;32.80;501;04.08.21.461
12884;170279;32.80;502;04.08.21.461
12896;170285;32.80;503;04.08.21.461
12872;170285;32.80;504;04.08.21.461
12860;170283;32.80;505;04.08.21.461
12860;170278;32.80;506;04.08.21.461
12912;170280;32.80;507;04.08.21.461
12880;170267;32.80;508;04.08.21.461
12884;170258;32.80;509;04.08.21.461
12884;170257;32.80;510;04.08.21.461
12892;170260;32.80;511;04.08.21.472
12868;170243;32.80;512;04.08.21.472
12904;170249;32.80;513;04.08.21.472
12884;170248;32.80;514;04.08.21.472
12892;170241;32.80;515;04.08.21.472
12876;170236;32.80;516;04.08.21.472
12912;170231;32.80;517;04.08.21.472
12880;170229;32.80;518;04.08.21.472
12888;170225;32.80;519;04.08.21.472
12920;170228;32.80;520;04.08.21.472
12896;170218;32.80;521;04.08.21.472
12928;170216;32.80;522;04.08.21.472
12884;170215;32.80;523;04.08.21.472
12908;170212;32.80;524;04.08.21.483
12896;170210;32.80;525;04.08.21.571
12904;170211;32.80;526;04.08.21.571
12880;170207;32.80;527;04.08.21.571
12904;170218;32.80;528;04.08.21.571
12888;170211;32.80;529;04.08.21.571
12880;170201;32.80;530;04.08.21.571
12896;170211;32.80;531;04.08.21.571
12888;170202;32.80;532;04.08.21.571
12876;170204;32.80;533;04.08.21.593
12852;170210;32.80;534;04.08.21.593
12892;170204;32.80;535;04.08.21.593
12880;170204;32.80;536;04.08.21.593
12904;170204;32.80;537;04.08.21.593
12900;170202;32.80;538;04.08.21.593
12872;170203;32.80;539;04.08.21.593
12884;170201;32.80;540;04.08.21.593
12904;170208;32.80;541;04.08.21.593
12888;170201;32.80;542;04.08.21.604
12912;170198;32.80;543;04.08.21.604
12896;170196;32.80;544;04.08.21.604
12884;170200;32.80;545;04.08.21.604
12888;170197;32.80;546;04.08.21.604
12904;170209;32.80;547;04.08.21.604
12920;170203;32.80;548;04.08.21.604
12904;170195;32.80;549;04.08.21.604
12888;170203;32.80;550;04.08.21.703
12900;170209;32.80;551;04.08.21.703
12896;170201;32.80;552;04.08.21.703
12908;170207;32.80;553;04.08.21.703
12904;170209;32.80;554;04.08.21.703
12884;170198;32.80;555;04.08.21.714
12876;170201;32.80;556;04.08.21.714
12912;170208;32.80;557;04.08.21.714
12884;170212;32.80;558;04.08.21.725
12872;170203;32.80;559;04.08.21.725
12928;170207;32.80;560;04.08.21.725
12884;170203;32.80;561;04.08.21.725
12912;170206;32.80;562;04.08.21.725
12908;170203;32.80;563;04.08.21.736
12892;170208;32.80;564;04.08.21.736
12872;170203;32.80;565;04.08.21.736
12892;170202;32.80;566;04.08.21.736
12904;170201;32.80;567;04.08.21.736
12892;170202;32.80;568;04.08.21.736
12888;170194;32.80;569;04.08.21.736
12868;170192;32.80;570;04.08.21.736
12876;170206;32.80;571;04.08.21.736
12884;170204;32.80;572;04.08.21.736
12892;170199;32.80;573;04.08.21.736
12928;170197;32.80;574;04.08.21.736
12872;170198;32.80;575;04.08.21.813
12888;170196;32.80;576;04.08.21.813
12912;170200;32.80;577;04.08.21.824
12884;170205;32.80;578;04.08.21.824
12896;170192;32.80;579;04.08.21.824
12892;170191;32.80;580;04.08.21.824
12880;170200;32.80;581;04.08.21.824
12892;170201;32.80;582;04.08.21.824
12892;170193;32.80;583;04.08.21.824
12888;170205;32.80;584;04.08.21.824
12928;170201;32.80;585;04.08.21.824
12892;170204;32.80;586;04.08.21.824
12892;170198;32.80;587;04.08.21.824
12888;170205;32.80;588;04.08.21.824
12884;170207;32.80;589;04.08.21.834
12864;170204;32.80;590;04.08.21.834
12896;170208;32.80;591;04.08.21.834
12888;170202;32.80;592;04.08.21.834
12876;170199;32.80;593;04.08.21.834
12892;170195;32.80;594;04.08.21.845
12888;170211;32.80;595;04.08.21.845
12896;170202;32.80;596;04.08.21.845
12904;170205;32.80;597;04.08.21.845
12904;170200;32.80;598;04.08.21.845
12912;170203;32.80;599;04.08.21.845
12916;170204;32.80;600;04.08.21.966
12892;170209;32.80;601;04.08.21.966
12904;170206;32.80;602;04.08.21.966
12872;170214;32.80;603;04.08.21.966
12904;170212;32.80;604;04.08.21.966
12908;170211;32.80;605;04.08.21.966
12876;170207;32.80;606;04.08.21.966
12880;170213;32.80;607;04.08.21.966
12848;170215;32.80;608;04.08.21.966
12904;170220;32.80;609;04.08.21.966
12896;170223;32.80;610;04.08.21.977
12876;170218;32.80;611;04.08.21.977
12900;170225;32.80;612;04.08.21.977
12904;170220;32.80;613;04.08.21.977
12860;170218;32.80;614;04.08.21.977
12876;170230;32.80;615;04.08.21.977
12912;170227;32.80;616;04.08.21.977
12892;170224;32.80;617;04.08.21.977
12900;170221;32.80;618;04.08.21.977
12904;170221;32.80;619;04.08.21.977
12860;170225;32.80;620;04.08.21.977
12876;170230;32.80;621;04.08.21.977
12880;170230;32.80;622;04.08.21.988
12892;170230;32.80;623;04.08.21.988
12912;170226;32.80;624;04.08.21.988
12876;170237;32.80;625;04.08.22.087
12912;170227;32.80;626;04.08.22.087
12912;170236;32.80;627;04.08.22.087
12896;170229;32.80;628;04.08.22.087
12920;170229;32.80;629;04.08.22.087
12872;170237;32.80;630;04.08.22.087
12896;170235;32.80;631;04.08.22.098
12892;170234;32.80;632;04.08.22.098
12884;170229;32.80;633;04.08.22.098
12904;170244;32.80;634;04.08.22.098
12908;170233;32.80;635;04.08.22.098
12888;170238;32.80;636;04.08.22.098
12888;170240;32.80;637;04.08.22.098
12868;170240;32.80;638;04.08.22.098
12884;170234;32.80;639;04.08.22.098
12896;170245;32.80;640;04.08.22.098
12860;170244;32.80;641;04.08.22.098
12876;170248;32.80;642;04.08.22.098
12884;170247;32.80;643;04.08.22.098
12888;170244;32.80;644;04.08.22.098
12872;170243;32.80;645;04.08.22.109
12876;170247;32.80;646;04.08.22.109
12892;170250;32.80;647;04.08.22.109
12904;170257;32.80;648;04.08.22.109
12872;170252;32.80;649;04.08.22.109
12888;170246;32.80;650;04.08.22.197
12888;170252;32.80;651;04.08.22.197
12900;170254;32.80;652;04.08.22.197
12884;170263;32.80;653;04.08.22.207
12888;170255;32.80;654;04.08.22.207
12896;170263;32.80;655;04.08.22.207
12880;170257;32.80;656;04.08.22.207
12872;170256;32.80;657;04.08.22.207
12884;170261;32.80;658;04.08.22.207
12904;170266;32.80;659;04.08.22.207
12904;170258;32.80;660;04.08.22.207
12904;170267;32.80;661;04.08.22.218
12900;170269;32.80;662;04.08.22.218
12884;170268;32.80;663;04.08.22.218
12904;170272;32.80;664;04.08.22.218
12872;170268;32.80;665;04.08.22.218
12868;170274;32.80;666;04.08.22.218
12896;170269;32.80;667;04.08.22.218
12884;170274;32.80;668;04.08.22.218
12884;170258;32.80;669;04.08.22.218
12880;170261;32.80;670;04.08.22.218
12904;170252;32.80;671;04.08.22.218
12880;170251;32.80;672;04.08.22.218
12892;170249;32.80;673;04.08.22.218
12916;170241;32.80;674;04.08.22.229
12880;170237;32.80;675;04.08.22.339
12900;170229;32.80;676;04.08.22.339
12896;170232;32.80;677;04.08.22.339
12888;170226;32.80;678;04.08.22.339
12896;170219;32.80;679;04.08.22.339
12888;170217;32.80;680;04.08.22.339
12884;170212;32.80;681;04.08.22.339
12888;170212;32.80;682;04.08.22.339
12888;170204;32.80;683;04.08.22.350
12864;170203;32.80;684;04.08.22.350
12912;170196;32.80;685;04.08.22.350
12868;170189;32.80;686;04.08.22.350
12892;170196;32.80;687;04.08.22.350
12888;170189;32.80;688;04.08.22.350
12888;170187;32.80;689;04.08.22.350
12860;170190;32.80;690;04.08.22.350
12928;170176;32.80;691;04.08.22.350
12900;170176;32.80;692;04.08.22.350
12884;170166;32.80;693;04.08.22.350
12892;170166;32.80;694;04.08.22.361
12884;170169;32.80;695;04.08.22.361
12896;170173;32.80;696;04.08.22.361
12888;170173;32.80;697;04.08.22.361
12888;170170;32.80;698;04.08.22.361
12920;170176;32.80;699;04.08.22.361
12876;170168;32.80;700;04.08.22.448
12888;170170;32.80;701;04.08.22.448
12912;170170;32.80;702;04.08.22.448
12912;170164;32.80;703;04.08.22.448
12880;170172;32.80;704;04.08.22.448
12900;170162;32.80;705;04.08.22.448
12912;170166;32.80;706;04.08.22.448
12888;170161;32.80;707;04.08.22.448
12912;170165;32.80;708;04.08.22.459
12884;170154;32.80;709;04.08.22.459
12888;170162;32.80;710;04.08.22.459
12936;170158;32.80;711;04.08.22.459
12884;170150;32.80;712;04.08.22.459
12888;170158;32.80;713;04.08.22.459
12876;170160;32.80;714;04.08.22.459
12888;170150;32.80;715;04.08.22.459
12888;170154;32.80;716;04.08.22.459
12896;170159;32.80;717;04.08.22.459
12896;170163;32.80;718;04.08.22.459
12860;170153;32.80;719;04.08.22.459
12880;170160;32.80;720;04.08.22.459
12920;170158;32.80;721;04.08.22.470
12920;170151;32.80;722;04.08.22.470
12852;170159;32.80;723;04.08.22.470
12924;170153;32.80;724;04.08.22.470
12904;170154;32.84;725;04.08.22.580
12884;170161;32.84;726;04.08.22.580
12872;170161;32.84;727;04.08.22.580
12892;170153;32.84;728;04.08.22.580
12884;170152;32.84;729;04.08.22.580
12888;170158;32.84;730;04.08.22.591
12896;170153;32.84;731;04.08.22.591
12904;170153;32.84;732;04.08.22.591
12868;170147;32.84;733;04.08.22.591
12904;170155;32.84;734;04.08.22.591
12912;170154;32.84;735;04.08.22.591
12892;170147;32.84;736;04.08.22.591
12920;170153;32.84;737;04.08.22.591
12884;170141;32.84;738;04.08.22.591
12876;170147;32.84;739;04.08.22.591
12896;170150;32.84;740;04.08.22.591
12884;170154;32.84;741;04.08.22.591
12884;170157;32.84;742;04.08.22.602
12920;170151;32.84;743;04.08.22.602
12900;170146;32.84;744;04.08.22.602
12896;170151;32.84;745;04.08.22.602
12888;170153;32.84;746;04.08.22.613
12864;170144;32.84;747;04.08.22.613
12904;170151;32.84;748;04.08.22.613
12928;170136;32.84;749;04.08.22.613
12884;170148;32.84;750;04.08.22.699
12888;170151;32.84;751;04.08.22.699
12888;170145;32.84;752;04.08.22.699
12884;170154;32.84;753;04.08.22.699
12896;170152;32.84;754;04.08.22.699
12876;170148;32.84;755;04.08.22.699
12884;170151;32.84;756;04.08.22.699
12880;170144;32.84;757;04.08.22.699
12860;170156;32.84;758;04.08.22.710
12884;170151;32.84;759;04.08.22.710
12884;170146;32.84;760;04.08.22.710
12880;170150;32.84;761;04.08.22.710
12884;170158;32.84;762;04.08.22.710
12928;170152;32.84;763;04.08.22.710
12884;170150;32.84;764;04.08.22.710
12920;170156;32.84;765;04.08.22.710
12876;170156;32.84;766;04.08.22.710
12876;170146;32.84;767;04.08.22.721
12896;170157;32.84;768;04.08.22.721
12904;170153;32.84;769;04.08.22.721
12872;170154;32.84;770;04.08.22.721
12912;170158;32.84;771;04.08.22.721
12896;170162;32.84;772;04.08.22.721
12828;170157;32.84;773;04.08.22.721
12936;170160;32.84;774;04.08.22.721
12868;170160;32.80;775;04.08.22.819
12896;170163;32.80;776;04.08.22.819
12892;170159;32.80;777;04.08.22.819
12900;170167;32.80;778;04.08.22.819
12892;170171;32.80;779;04.08.22.819
12880;170172;32.80;780;04.08.22.819
12888;170171;32.80;781;04.08.22.819
12912;170168;32.80;782;04.08.22.819
12924;170174;32.80;783;04.08.22.819
12900;170179;32.80;784;04.08.22.830
12876;170180;32.80;785;04.08.22.830
12880;170174;32.80;786;04.08.22.830
12896;170187;32.80;787;04.08.22.830
12896;170182;32.80;788;04.08.22.830
12904;170174;32.80;789;04.08.22.830
12904;170182;32.80;790;04.08.22.830
12920;170188;32.80;791;04.08.22.830
12896;170188;32.80;792;04.08.22.830
12876;170185;32.80;793;04.08.22.830
12900;170189;32.80;794;04.08.22.830
12868;170186;32.80;795;04.08.22.830
12900;170186;32.80;796;04.08.22.841
12860;170190;32.80;797;04.08.22.841
12928;170189;32.80;798;04.08.22.841
12904;170187;32.80;799;04.08.22.841
12912;170195;32.80;800;04.08.22.940
12872;170192;32.80;801;04.08.22.940
12884;170189;32.80;802;04.08.22.940
12904;170189;32.80;803;04.08.22.940
12900;170207;32.80;804;04.08.22.951
12880;170198;32.80;805;04.08.22.951
12916;170202;32.80;806;04.08.22.951
12904;170202;32.80;807;04.08.22.951
12904;170200;32.80;808;04.08.22.951
12904;170200;32.80;809;04.08.22.951
12896;170205;32.80;810;04.08.22.951
12904;170212;32.80;811;04.08.22.951
12904;170209;32.80;812;04.08.22.951
12872;170204;32.80;813;04.08.22.951
12912;170203;32.80;814;04.08.22.951
12888;170204;32.80;815;04.08.22.951
12892;170210;32.80;816;04.08.22.951
12872;170212;32.80;817;04.08.22.951
12888;170207;32.80;818;04.08.22.962
12912;170221;32.80;819;04.08.22.962
12908;170218;32.80;820;04.08.22.962
12892;170218;32.80;821;04.08.22.962
12900;170214;32.80;822;04.08.22.962
12888;170216;32.80;823;04.08.22.962
12900;170223;32.80;824;04.08.22.962
12880;170217;32.80;825;04.08.23.082
12892;170209;32.80;826;04.08.23.082
12904;170222;32.80;827;04.08.23.082
12896;170221;32.80;828;04.08.23.082
12884;170220;32.80;829;04.08.23.082
12872;170218;32.80;830;04.08.23.082
12908;170221;32.80;831;04.08.23.082
12904;170225;32.80;832;04.08.23.082
12936;170225;32.80;833;04.08.23.082
12916;170216;32.80;834;04.08.23.082
12892;170222;32.80;835;04.08.23.082
12896;170222;32.80;836;04.08.23.082
12880;170221;32.80;837;04.08.23.082
12860;170215;32.80;838;04.08.23.093
12884;170212;32.80;839;04.08.23.093
12900;170214;32.80;840;04.08.23.093
12896;170203;32.80;841;04.08.23.093
12904;170202;32.80;842;04.08.23.093
12896;170194;32.80;843;04.08.23.093
12872;170192;32.80;844;04.08.23.093
12892;170189;32.80;845;04.08.23.093
12928;170184;32.80;846;04.08.23.093
12888;170176;32.80;847;04.08.23.093
12900;170169;32.80;848;04.08.23.093
12892;170167;32.80;849;04.08.23.093
12860;170172;32.80;850;04.08.23.214
12892;170167;32.80;851;04.08.23.214
12908;170161;32.80;852;04.08.23.214
12884;170152;32.80;853;04.08.23.214
12900;170156;32.80;854;04.08.23.214
12880;170158;32.80;855;04.08.23.214
12896;170152;32.80;856;04.08.23.214
12912;170145;32.80;857;04.08.23.214
12896;170151;32.80;858;04.08.23.225
12888;170153;32.80;859;04.08.23.225
12884;170145;32.80;860;04.08.23.225
12904;170144;32.80;861;04.08.23.225
12900;170146;32.80;862;04.08.23.225
12908;170141;32.80;863;04.08.23.225
12900;170145;32.80;864;04.08.23.225
12860;170150;32.80;865;04.08.23.225
12920;170142;32.80;866;04.08.23.225
12852;170140;32.80;867;04.08.23.225
12876;170146;32.80;868;04.08.23.225
12888;170139;32.80;869;04.08.23.225
12884;170139;32.80;870;04.08.23.225
12888;170137;32.80;871;04.08.23.225
12896;170137;32.80;872;04.08.23.236
12904;170137;32.80;873;04.08.23.236
12888;170133;32.80;874;04.08.23.236
12904;170131;32.80;875;04.08.23.323
12892;170130;32.80;876;04.08.23.323
12912;170120;32.80;877;04.08.23.323
12884;170130;32.80;878;04.08.23.323
12904;170128;32.80;879;04.08.23.323
12908;170123;32.80;880;04.08.23.334
12896;170129;32.80;881;04.08.23.334
12888;170127;32.80;882;04.08.23.334
12860;170132;32.80;883;04.08.23.356
12900;170131;32.80;884;04.08.23.356
12896;170126;32.80;885;04.08.23.356
12904;170121;32.80;886;04.08.23.356
12924;170125;32.80;887;04.08.23.356
12916;170130;32.80;888;04.08.23.367
12896;170116;32.80;889;04.08.23.367
12884;170125;32.80;890;04.08.23.367
12888;170122;32.80;891;04.08.23.367
12880;170128;32.80;892;04.08.23.367
12896;170121;32.80;893;04.08.23.367
12860;170123;32.80;894;04.08.23.367
12900;170126;32.80;895;04.08.23.367
12876;170122;32.80;896;04.08.23.367
12888;170128;32.80;897;04.08.23.367
12896;170134;32.80;898;04.08.23.367
12892;170125;32.80;899;04.08.23.367
12880;170126;32.80;900;04.08.23.444
12884;170132;32.80;901;04.08.23.455
12904;170132;32.80;902;04.08.23.455
12892;170124;32.80;903;04.08.23.455
12876;170122;32.80;904;04.08.23.455
12912;170124;32.80;905;04.08.23.455
12888;170130;32.80;906;04.08.23.455
12900;170112;32.80;907;04.08.23.455
12844;170124;32.80;908;04.08.23.455
12900;170122;32.80;909;04.08.23.455
12900;170117;32.80;910;04.08.23.455
12896;170114;32.80;911;04.08.23.455
12884;170121;32.80;912;04.08.23.455
12900;170112;32.80;913;04.08.23.455
12904;170120;32.80;914;04.08.23.466
12904;170122;32.80;915;04.08.23.466
12896;170124;32.80;916;04.08.23.466
12880;170116;32.80;917;04.08.23.488
12892;170119;32.80;918;04.08.23.499
12876;170120;32.80;919;04.08.23.499
12908;170120;32.80;920;04.08.23.499
12896;170122;32.80;921;04.08.23.499
12876;170120;32.80;922;04.08.23.499
12860;170128;32.80;923;04.08.23.499
12928;170120;32.80;924;04.08.23.499
12900;170123;32.80;925;04.08.23.598
12928;170123;32.80;926;04.08.23.598
12900;170128;32.80;927;04.08.23.598
12888;170134;32.80;928;04.08.23.598
12888;170126;32.80;929;04.08.23.598
12880;170137;32.80;930;04.08.23.598
12876;170136;32.80;931;04.08.23.598
12872;170137;32.80;932;04.08.23.598
12900;170134;32.80;933;04.08.23.598
12900;170141;32.80;934;04.08.23.598
12912;170137;32.80;935;04.08.23.598
12908;170140;32.80;936;04.08.23.609
12884;170148;32.80;937;04.08.23.609
12888;170148;32.80;938;04.08.23.609
12876;170148;32.80;939;04.08.23.609
12884;170145;32.80;940;04.08.23.609
12888;170145;32.80;941;04.08.23.609
12928;170142;32.80;942;04.08.23.609
12920;170146;32.80;943;04.08.23.609
12896;170148;32.80;944;04.08.23.609
12884;170145;32.80;945;04.08.23.609
12900;170151;32.80;946;04.08.23.609
12896;170153;32.80;947;04.08.23.609
12900;170155;32.80;948;04.08.23.609
12920;170156;32.80;949;04.08.23.620
12876;170154;32.80;950;04.08.23.718
12892;170153;32.80;951;04.08.23.718
12896;170153;32.80;952;04.08.23.718
12892;170164;32.80;953;04.08.23.718
12872;170154;32.80;954;04.08.23.718
12904;170153;32.80;955;04.08.23.718
12880;170167;32.80;956;04.08.23.718
12880;170162;32.80;957;04.08.23.729
12916;170166;32.80;958;04.08.23.729
12860;170151;32.80;959;04.08.23.729
12888;170160;32.80;960;04.08.23.729
12884;170167;32.80;961;04.08.23.729
12900;170164;32.80;962;04.08.23.729
12912;170167;32.80;963;04.08.23.729
12892;170173;32.80;964;04.08.23.729
12892;170171;32.80;965;04.08.23.729
12908;170183;32.80;966;04.08.23.729
12860;170174;32.80;967;04.08.23.729
12904;170174;32.80;968;04.08.23.729
12884;170172;32.80;969;04.08.23.729
12876;170177;32.80;970;04.08.23.740
12892;170174;32.80;971;04.08.23.740
12928;170173;32.80;972;04.08.23.740
12896;170175;32.80;973;04.08.23.740
12904;170179;32.80;974;04.08.23.740
12888;170183;32.80;975;04.08.23.817
12928;170187;32.80;976;04.08.23.817
12884;170189;32.80;977;04.08.23.817
12896;170182;32.80;978;04.08.23.817
12880;170190;32.80;979;04.08.23.828
12884;170192;32.80;980;04.08.23.828
12900;170192;32.80;981;04.08.23.828
12892;170186;32.80;982;04.08.23.828
12888;170196;32.80;983;04.08.23.828
12904;170201;32.80;984;04.08.23.828
12904;170188;32.80;985;04.08.23.828
12900;170200;32.80;986;04.08.23.828
12892;170197;32.80;987;04.08.23.828
12904;170199;32.80;988;04.08.23.828
12892;170207;32.80;989;04.08.23.828
12908;170202;32.80;990;04.08.23.828
12908;170202;32.80;991;04.08.23.828
12904;170196;32.80;992;04.08.23.850
12908;170203;32.80;993;04.08.23.850
12884;170213;32.80;994;04.08.23.850
12876;170213;32.80;995;04.08.23.850
12872;170201;32.80;996;04.08.23.861
12904;170216;32.80;997;04.08.23.861
12888;170213;32.80;998;04.08.23.861
12884;170222;32.80;999;04.08.23.861
12888;170222;32.80;000;04.08.23.938
12896;170216;32.80;001;04.08.23.949
12880;170220;32.80;002;04.08.23.949
12904;170211;32.80;003;04.08.23.949
12868;170221;32.80;004;04.08.23.949
12908;170213;32.80;005;04.08.23.949
12896;170214;32.80;006;04.08.23.949
12888;170216;32.80;007;04.08.23.949
12892;170213;32.80;008;04.08.23.949
12896;170210;32.80;009;04.08.23.949
12888;170212;32.80;010;04.08.23.949
12920;170211;32.80;011;04.08.23.949
12896;170207;32.80;012;04.08.23.960
12912;170210;32.80;013;04.08.23.960
12872;170198;32.80;014;04.08.23.960
12880;170200;32.80;015;04.08.23.960
12904;170192;32.80;016;04.08.23.960
12884;170195;32.80;017;04.08.23.960
12880;170184;32.80;018;04.08.23.960
12876;170185;32.80;019;04.08.23.960
12896;170175;32.80;020;04.08.23.960
12860;170171;32.80;021;04.08.23.960
12892;170167;32.80;022;04.08.23.960
12900;170161;32.80;023;04.08.23.960
12900;170166;32.80;024;04.08.23.960
12884;170152;32.80;025;04.08.24.080
12892;170158;32.80;026;04.08.24.080
12888;170150;32.80;027;04.08.24.080
12892;170153;32.80;028;04.08.24.080
12864;170142;32.80;029;04.08.24.080
12908;170148;32.80;030;04.08.24.080
12892;170145;32.80;031;04.08.24.080
12888;170142;32.80;032;04.08.24.080
12896;170138;32.80;033;04.08.24.080
12880;170136;32.80;034;04.08.24.091
12892;170135;32.80;035;04.08.24.091
12880;170142;32.80;036;04.08.24.091
12884;170138;32.80;037;04.08.24.091
12896;170131;32.80;038;04.08.24.091
12892;170130;32.80;039;04.08.24.091
12892;170131;32.80;040;04.08.24.091
12888;170125;32.80;041;04.08.24.091
12908;170129;32.80;042;04.08.24.091
12876;170120;32.80;043;04.08.24.091
12892;170131;32.80;044;04.08.24.091
12892;170125;32.80;045;04.08.24.091
12880;170121;32.80;046;04.08.24.091
12896;170127;32.80;047;04.08.24.102
12860;170130;32.80;048;04.08.24.102
12900;170127;32.80;049;04.08.24.102
12892;170123;32.80;050;04.08.24.222
12876;170126;32.80;051;04.08.24.222
12912;170117;32.80;052;04.08.24.222
12892;170121;32.80;053;04.08.24.222
12892;170116;32.80;054;04.08.24.233
12912;170119;32.80;055;04.08.24.233
12928;170123;32.80;056;04.08.24.233
12880;170118;32.80;057;04.08.24.233
12900;170125;32.80;058;04.08.24.233
12884;170121;32.80;059;04.08.24.233
12920;170131;32.80;060;04.08.24.233
12896;170123;32.80;061;04.08.24.233
12896;170125;32.80;062;04.08.24.233
12900;170122;32.80;063;04.08.24.233
12916;170122;32.80;064;04.08.24.233
12860;170119;32.80;065;04.08.24.233
12876;170121;32.80;066;04.08.24.243
12896;170131;32.80;067;04.08.24.243
12896;170124;32.80;068;04.08.24.243
12880;170121;32.80;069;04.08.24.243
12876;170126;32.80;070;04.08.24.243
12872;170115;32.80;071;04.08.24.243
12896;170126;32.80;072;04.08.24.243
12896;170113;32.80;073;04.08.24.243
12924;170122;32.80;074;04.08.24.243
12896;170111;32.80;075;04.08.24.331
12888;170117;32.80;076;04.08.24.331
12872;170117;32.80;077;04.08.24.331
12896;170114;32.80;078;04.08.24.331
12888;170116;32.80;079;04.08.24.331
12904;170109;32.80;080;04.08.24.331
12868;170112;32.80;081;04.08.24.331
12888;170117;32.80;082;04.08.24.331
12892;170125;32.80;083;04.08.24.331
12884;170121;32.80;084;04.08.24.331
12912;170115;32.80;085;04.08.24.331
12892;170107;32.80;086;04.08.24.331
12872;170115;32.80;087;04.08.24.342
12888;170114;32.80;088;04.08.24.342
12876;170119;32.80;089;04.08.24.342
12892;170116;32.80;090;04.08.24.342
12904;170112;32.80;091;04.08.24.342
12860;170115;32.80;092;04.08.24.353
12860;170120;32.80;093;04.08.24.353
12872;170117;32.80;094;04.08.24.353
12900;170123;32.80;095;04.08.24.353
12876;170126;32.80;096;04.08.24.353
12880;170128;32.80;097;04.08.24.353
12868;170127;32.80;098;04.08.24.353
12904;170122;32.80;099;04.08.24.353
12896;170126;32.80;100;04.08.24.451
12888;170135;32.80;101;04.08.24.451
12888;170136;32.80;102;04.08.24.451
12868;170132;32.80;103;04.08.24.451
12896;170136;32.80;104;04.08.24.451
12888;170129;32.80;105;04.08.24.451
12876;170129;32.80;106;04.08.24.451
12912;170140;32.80;107;04.08.24.451
12872;170132;32.80;108;04.08.24.484
12896;170127;32.80;109;04.08.24.484
12852;170133;32.80;110;04.08.24.484
12912;170134;32.80;111;04.08.24.484
12896;170142;32.80;112;04.08.24.484
12892;170137;32.80;113;04.08.24.484
12856;170135;32.80;114;04.08.24.484
12884;170140;32.80;115;04.08.24.484
12876;170144;32.80;116;04.08.24.484
12880;170147;32.80;117;04.08.24.495
12900;170147;32.80;118;04.08.24.495
12860;170142;32.80;119;04.08.24.495
12868;170147;32.80;120;04.08.24.495
12904;170139;32.80;121;04.08.24.495
12880;170147;32.80;122;04.08.24.495
12888;170162;32.80;123;04.08.24.495
12912;170156;32.80;124;04.08.24.495
12856;170155;32.80;125;04.08.24.582
12900;170157;32.80;126;04.08.24.582
12864;170160;32.80;127;04.08.24.582
12908;170156;32.80;128;04.08.24.582
12884;170160;32.80;129;04.08.24.593
12896;170160;32.80;130;04.08.24.593
12888;170159;32.80;131;04.08.24.593
12876;170162;32.80;132;04.08.24.593
12888;170156;32.80;133;04.08.24.593
12872;170167;32.80;134;04.08.24.593
12896;170164;32.80;135;04.08.24.593
12888;170159;32.80;136;04.08.24.593
12884;170171;32.80;137;04.08.24.604
12896;170167;32.80;138;04.08.24.604
12880;170170;32.80;139;04.08.24.604
12900;170168;32.80;140;04.08.24.604
12912;170166;32.80;141;04.08.24.604
12884;170169;32.80;142;04.08.24.615
12892;170170;32.80;143;04.08.24.615
12868;170173;32.80;144;04.08.24.615
12896;170186;32.80;145;04.08.24.615
12884;170174;32.80;146;04.08.24.626
12920;170174;32.80;147;04.08.24.626
12892;170183;32.80;148;04.08.24.626
12888;170183;32.80;149;04.08.24.626
12880;170183;32.80;150;04.08.24.713
12896;170174;32.80;151;04.08.24.713
12880;170187;32.80;152;04.08.24.713
12912;170184;32.80;153;04.08.24.713
12892;170188;32.80;154;04.08.24.713
12916;170183;32.80;155;04.08.24.713
12912;170189;32.80;156;04.08.24.713
12908;170184;32.80;157;04.08.24.713
12896;170186;32.80;158;04.08.24.713
12908;170192;32.80;159;04.08.24.713
12888;170185;32.80;160;04.08.24.713
12928;170190;32.80;161;04.08.24.713
12872;170197;32.80;162;04.08.24.713
12876;170196;32.80;163;04.08.24.724
12896;170192;32.80;164;04.08.24.724
12896;170205;32.80;165;04.08.24.724
12864;170200;32.80;166;04.08.24.724
12920;170206;32.80;167;04.08.24.735
12896;170193;32.80;168;04.08.24.735
12888;170208;32.80;169;04.08.24.735
12888;170197;32.80;170;04.08.24.735
12860;170203;32.80;171;04.08.24.735
12896;170204;32.80;172;04.08.24.735
12880;170203;32.80;173;04.08.24.735
12912;170207;32.80;174;04.08.24.735
12896;170204;32.80;175;04.08.24.823
12888;170215;32.80;176;04.08.24.823
12888;170212;32.80;177;04.08.24.823
12872;170226;32.80;178;04.08.24.823
12860;170215;32.80;179;04.08.24.823
12872;170214;32.80;180;04.08.24.823
12888;170223;32.80;181;04.08.24.823
12892;170228;32.80;182;04.08.24.823
12896;170223;32.80;183;04.08.24.844
12876;170226;32.80;184;04.08.24.844
12880;170224;32.80;185;04.08.24.844
12928;170221;32.80;186;04.08.24.844
12896;170216;32.80;187;04.08.24.844
12876;170220;32.80;188;04.08.24.844
12888;170212;32.80;189;04.08.24.844
12860;170217;32.80;190;04.08.24.844
12900;170200;32.80;191;04.08.24.844
12892;170206;32.80;192;04.08.24.855
12904;170204;32.80;193;04.08.24.855
12904;170194;32.80;194;04.08.24.855
12904;170193;32.80;195;04.08.24.855
12908;170185;32.80;196;04.08.24.855
12904;170192;32.80;197;04.08.24.855
12888;170181;32.80;198;04.08.24.855
12884;170177;32.80;199;04.08.24.855
12888;170186;32.80;200;04.08.24.943
12892;170176;32.80;201;04.08.24.943
12912;170166;32.80;202;04.08.24.943
12892;170165;32.80;203;04.08.24.943
12900;170159;32.80;204;04.08.24.953
12880;170158;32.80;205;04.08.24.953
12904;170154;32.80;206;04.08.24.953
12884;170150;32.80;207;04.08.24.953
12884;170138;32.80;208;04.08.24.953
12892;170148;32.80;209;04.08.24.953
12916;170148;32.80;210;04.08.24.953
12892;170147;32.80;211;04.08.24.953
12876;170147;32.80;212;04.08.24.953
12884;170144;32.80;213;04.08.24.953
12904;170148;32.80;214;04.08.24.953
12872;170144;32.80;215;04.08.24.953
12896;170150;32.80;216;04.08.24.953
12896;170149;32.80;217;04.08.24.964
12896;170144;32.80;218;04.08.24.964
12896;170136;32.80;219;04.08.24.964
12892;170136;32.80;220;04.08.24.964
12908;170144;32.80;221;04.08.24.964
12880;170145;32.80;222;04.08.24.964
12892;170141;32.80;223;04.08.24.964
12908;170141;32.80;224;04.08.24.964
12904;170135;32.80;225;04.08.25.074
12896;170135;32.80;226;04.08.25.074
12888;170136;32.80;227;04.08.25.074
12904;170137;32.80;228;04.08.25.074
12912;170126;32.80;229;04.08.25.074
12884;170122;32.80;230;04.08.25.074
12912;170127;32.80;231;04.08.25.074
12892;170125;32.80;232;04.08.25.074
12888;170121;32.80;233;04.08.25.074
12892;170139;32.80;234;04.08.25.085
12904;170133;32.80;235;04.08.25.085
12920;170134;32.80;236;04.08.25.085
12860;170134;32.80;237;04.08.25.085
12888;170133;32.80;238;04.08.25.085
12880;170141;32.80;239;04.08.25.085
12872;170140;32.80;240;04.08.25.085
12896;170133;32.80;241;04.08.25.085
12888;170145;32.80;242;04.08.25.085
12908;170142;32.80;243;04.08.25.085
12876;170139;32.80;244;04.08.25.085
12900;170140;32.80;245;04.08.25.085
12928;170138;32.80;246;04.08.25.085
12896;170149;32.80;247;04.08.25.085
12884;170143;32.80;248;04.08.25.096
12904;170136;32.80;249;04.08.25.096
12928;170145;32.80;250;04.08.25.206
12928;170128;32.80;251;04.08.25.206
12892;170138;32.80;252;04.08.25.206
12868;170135;32.80;253;04.08.25.206
12872;170137;32.80;254;04.08.25.206
12892;170139;32.80;255;04.08.25.206
12872;170142;32.80;256;04.08.25.206
12876;170142;32.80;257;04.08.25.206
12928;170134;32.80;258;04.08.25.206
12908;170143;32.80;259;04.08.25.217
12876;170142;32.80;260;04.08.25.217
12888;170140;32.80;261;04.08.25.217
12896;170141;32.80;262;04.08.25.217
12880;170144;32.80;263;04.08.25.217
12896;170144;32.80;264;04.08.25.217
12908;170142;32.80;265;04.08.25.217
12888;170138;32.80;266;04.08.25.217
12884;170131;32.80;267;04.08.25.217
12900;170134;32.80;268;04.08.25.217
12928;170138;32.80;269;04.08.25.217
12868;170139;32.80;270;04.08.25.217
12900;170140;32.80;271;04.08.25.217
12884;170142;32.80;272;04.08.25.228
12860;170144;32.80;273;04.08.25.228
12876;170144;32.80;274;04.08.25.228
12928;170148;32.80;275;04.08.25.347
12904;170145;32.80;276;04.08.25.347
12896;170150;32.80;277;04.08.25.347
12904;170147;32.80;278;04.08.25.347
12876;170147;32.80;279;04.08.25.347
12900;170149;32.80;280;04.08.25.359
12908;170158;32.80;281;04.08.25.359
12884;170155;32.80;282;04.08.25.359
12904;170158;32.80;283;04.08.25.359
12880;170152;32.80;284;04.08.25.359
12896;170157;32.80;285;04.08.25.359
12904;170154;32.80;286;04.08.25.359
12908;170159;32.80;287;04.08.25.359
12896;170159;32.80;288;04.08.25.359
12900;170168;32.80;289;04.08.25.370
12888;170164;32.80;290;04.08.25.370
12904;170170;32.80;291;04.08.25.370
12888;170164;32.80;292;04.08.25.381
12888;170165;32.80;293;04.08.25.381
12892;170164;32.80;294;04.08.25.381
12900;170161;32.80;295;04.08.25.381
12876;170169;32.80;296;04.08.25.381
12872;170170;32.80;297;04.08.25.392
12860;170164;32.80;298;04.08.25.392
12912;170179;32.80;299;04.08.25.392
12884;170172;32.80;300;04.08.25.447
12888;170166;32.80;301;04.08.25.447
12876;170175;32.80;302;04.08.25.458
12880;170173;32.80;303;04.08.25.458
12928;170175;32.80;304;04.08.25.458
12904;170177;32.80;305;04.08.25.458
12892;170179;32.80;306;04.08.25.458
12872;170179;32.80;307;04.08.25.458
12884;170177;32.80;308;04.08.25.469
12868;170183;32.80;309;04.08.25.469
12904;170183;32.80;310;04.08.25.480
12904;170180;32.80;311;04.08.25.480
12896;170195;32.80;312;04.08.25.480
12892;170187;32.80;313;04.08.25.480
12932;170199;32.80;314;04.08.25.480
12912;170191;32.80;315;04.08.25.480
12944;170197;32.80;316;04.08.25.480
12884;170189;32.80;317;04.08.25.480
12868;170192;32.80;318;04.08.25.480
12904;170184;32.80;319;04.08.25.480
12872;170188;32.80;320;04.08.25.480
12884;170188;32.80;321;04.08.25.480
12896;170192;32.80;322;04.08.25.480
12884;170196;32.80;323;04.08.25.480
12924;170204;32.80;324;04.08.25.491
12872;170196;32.80;325;04.08.25.579
12912;170195;32.80;326;04.08.25.579
12892;170195;32.80;327;04.08.25.579
12912;170189;32.80;328;04.08.25.579
12896;170198;32.80;329;04.08.25.579
12896;170205;32.80;330;04.08.25.579
12904;170203;32.80;331;04.08.25.579
12880;170198;32.80;332;04.08.25.579
12876;170197;32.80;333;04.08.25.579
12912;170215;32.80;334;04.08.25.579
12884;170204;32.80;335;04.08.25.579
12896;170202;32.80;336;04.08.25.590
12912;170206;32.80;337;04.08.25.590
12896;170208;32.80;338;04.08.25.590
12876;170217;32.80;339;04.08.25.590
12928;170208;32.80;340;04.08.25.590
12880;170216;32.80;341;04.08.25.590
12904;170218;32.80;342;04.08.25.590
12892;170211;32.80;343;04.08.25.590
12912;170210;32.80;344;04.08.25.590
12860;170222;32.80;345;04.08.25.590
12880;170219;32.80;346;04.08.25.590
12904;170218;32.80;347;04.08.25.590
12896;170227;32.80;348;04.08.25.590
12928;170223;32.80;349;04.08.25.601
12868;170220;32.80;350;04.08.25.699
12928;170226;32.80;351;04.08.25.699
12872;170224;32.80;352;04.08.25.699
12892;170225;32.80;353;04.08.25.699
12872;170233;32.80;354;04.08.25.699
12880;170231;32.80;355;04.08.25.699
12880;170246;32.80;356;04.08.25.699
12876;170237;32.80;357;04.08.25.699
12904;170236;32.80;358;04.08.25.710
12896;170233;32.80;359;04.08.25.710
12880;170226;32.80;360;04.08.25.710
12888;170213;32.80;361;04.08.25.710
12876;170225;32.80;362;04.08.25.710
12896;170231;32.80;363;04.08.25.710
12920;170220;32.80;364;04.08.25.710
12892;170218;32.80;365;04.08.25.710
12928;170201;32.80;366;04.08.25.710
12876;170209;32.80;367;04.08.25.721
12888;170201;32.80;368;04.08.25.721
12928;170200;32.80;369;04.08.25.721
12896;170200;32.80;370;04.08.25.721
12888;170181;32.80;371;04.08.25.721
12892;170176;32.80;372;04.08.25.721
12896;170181;32.80;373;04.08.25.721
12892;170180;32.80;374;04.08.25.721
12884;170165;32.80;375;04.08.25.831
12908;170171;32.80;376;04.08.25.831
12928;170166;32.80;377;04.08.25.831
12872;170169;32.80;378;04.08.25.831
12872;170161;32.80;379;04.08.25.842
12892;170164;32.80;380;04.08.25.842
12884;170164;32.80;381;04.08.25.842
12920;170163;32.80;382;04.08.25.842
12896;170166;32.80;383;04.08.25.842
12904;170155;32.80;384;04.08.25.842
12884;170165;32.80;385;04.08.25.842
12872;170156;32.80;386;04.08.25.842
12892;170155;32.80;387;04.08.25.842
12884;170161;32.80;388;04.08.25.842
12896;170145;32.80;389;04.08.25.842
12904;170163;32.80;390;04.08.25.842
12892;170162;32.80;391;04.08.25.842
12884;170152;32.80;392;04.08.25.853
12928;170156;32.80;393;04.08.25.853
12884;170160;32.80;394;04.08.25.853
12888;170160;32.80;395;04.08.25.853
12880;170158;32.80;396;04.08.25.853
12916;170160;32.80;397;04.08.25.853
12904;170156;32.80;398;04.08.25.853
12908;170152;32.80;399;04.08.25.853
12880;170155;32.80;400;04.08.25.941
12888;170152;32.80;401;04.08.25.952
12900;170149;32.80;402;04.08.25.952
12912;170145;32.80;403;04.08.25.952
12884;170155;32.80;404;04.08.25.952
12892;170156;32.80;405;04.08.25.952
12896;170144;32.80;406;04.08.25.952
12888;170143;32.80;407;04.08.25.952
12904;170153;32.80;408;04.08.25.952
12860;170157;32.80;409;04.08.25.952
12852;170155;32.80;410;04.08.25.963
12876;170159;32.80;411;04.08.25.963
12896;170153;32.80;412;04.08.25.963
12884;170154;32.80;413;04.08.25.963
12892;170151;32.80;414;04.08.25.963
12884;170152;32.80;415;04.08.25.963
12896;170151;32.80;416;04.08.25.963
12880;170153;32.80;417;04.08.25.963
12880;170153;32.80;418;04.08.25.974
12916;170147;32.80;419;04.08.25.974
12860;170147;32.80;420;04.08.25.974
12880;170147;32.80;421;04.08.25.974
12888;170154;32.80;422;04.08.25.974
12880;170149;32.80;423;04.08.25.974
12896;170154;32.80;424;04.08.25.974
12912;170153;32.80;425;04.08.26.073
12888;170150;32.80;426;04.08.26.073
12896;170149;32.80;427;04.08.26.073
12908;170147;32.80;428;04.08.26.073
12860;170151;32.80;429;04.08.26.073
12900;170146;32.80;430;04.08.26.073
12876;170141;32.80;431;04.08.26.073
12872;170149;32.80;432;04.08.26.073
12900;170148;32.80;433;04.08.26.073
12884;170148;32.80;434;04.08.26.073
12900;170150;32.80;435;04.08.26.074
12884;170141;32.80;436;04.08.26.074
12880;170145;32.80;437;04.08.26.084
12904;170144;32.80;438;04.08.26.084
12896;170148;32.80;439;04.08.26.084
12880;170142;32.80;440;04.08.26.084
12896;170143;32.80;441;04.08.26.084
12888;170153;32.80;442;04.08.26.084
12876;170148;32.80;443;04.08.26.084
12884;170158;32.80;444;04.08.26.084
12892;170151;32.80;445;04.08.26.084
12876;170160;32.80;446;04.08.26.084
12896;170161;32.80;447;04.08.26.084
12900;170158;32.80;448;04.08.26.084
12888;170155;32.80;449;04.08.26.095
12888;170164;32.80;450;04.08.26.194
12900;170161;32.80;451;04.08.26.194
12896;170159;32.80;452;04.08.26.194
12884;170168;32.80;453;04.08.26.194
12896;170163;32.80;454;04.08.26.194
12892;170172;32.80;455;04.08.26.194
12892;170162;32.80;456;04.08.26.194
12876;170171;32.80;457;04.08.26.205
12860;170172;32.80;458;04.08.26.205
12884;170169;32.80;459;04.08.26.205
12888;170172;32.80;460;04.08.26.205
12884;170169;32.80;461;04.08.26.205
12896;170173;32.80;462;04.08.26.205
12900;170171;32.80;463;04.08.26.205
12876;170176;32.80;464;04.08.26.205
12884;170176;32.80;465;04.08.26.205
12912;170181;32.80;466;04.08.26.205
12876;170177;32.80;467;04.08.26.205
12860;170179;32.80;468;04.08.26.205
12892;170183;32.80;469;04.08.26.205
12884;170185;32.80;470;04.08.26.205
12904;170182;32.80;471;04.08.26.216
12880;170179;32.80;472;04.08.26.216
12884;170179;32.80;473;04.08.26.216
12908;170184;32.80;474;04.08.26.216
12912;170182;32.80;475;04.08.26.325
12872;170176;32.80;476;04.08.26.325
12904;170187;32.80;477;04.08.26.325
12884;170182;32.80;478;04.08.26.336
12876;170188;32.80;479;04.08.26.336
12884;170182;32.80;480;04.08.26.336
12896;170194;32.80;481;04.08.26.336
12880;170195;32.80;482;04.08.26.336
12900;170192;32.80;483;04.08.26.336
12904;170198;32.80;484;04.08.26.336
12876;170193;32.80;485;04.08.26.336
12856;170195;32.80;486;04.08.26.336
12896;170202;32.80;487;04.08.26.336
12888;170197;32.80;488;04.08.26.336
12928;170205;32.80;489;04.08.26.336
12884;170206;32.80;490;04.08.26.336
12896;170206;32.80;491;04.08.26.347
12912;170199;32.80;492;04.08.26.347
12876;170204;32.80;493;04.08.26.347
12884;170204;32.80;494;04.08.26.347
12904;170210;32.80;495;04.08.26.347
12892;170201;32.80;496;04.08.26.347
12860;170215;32.80;497;04.08.26.347
12896;170208;32.80;498;04.08.26.347
12888;170219;32.80;499;04.08.26.347
12872;170211;32.80;500;04.08.26.467
12900;170219;32.80;501;04.08.26.467
12884;170216;32.80;502;04.08.26.467
12888;170218;32.80;503;04.08.26.467
12880;170216;32.80;504;04.08.26.467
12852;170228;32.80;505;04.08.26.467
12864;170215;32.80;506;04.08.26.467
12896;170224;32.80;507;04.08.26.467
12896;170227;32.80;508;04.08.26.467
12904;170221;32.80;509;04.08.26.467
12884;170227;32.80;510;04.08.26.467
12888;170228;32.80;511;04.08.26.478
12896;170229;32.80;512;04.08.26.478
12888;170228;32.80;513;04.08.26.478
12900;170223;32.80;514;04.08.26.478
12888;170225;32.80;515;04.08.26.478
12880;170228;32.80;516;04.08.26.478
12892;170225;32.80;517;04.08.26.478
12876;170233;32.80;518;04.08.26.478
12904;170235;32.80;519;04.08.26.478
12892;170237;32.80;520;04.08.26.478
12868;170233;32.80;521;04.08.26.478
12884;170242;32.80;522;04.08.26.478
12916;170242;32.80;523;04.08.26.478
12912;170250;32.80;524;04.08.26.489
12900;170244;32.80;525;04.08.26.577
12852;170242;32.80;526;04.08.26.577
12872;170248;32.80;527;04.08.26.577
12912;170251;32.80;528;04.08.26.577
12896;170246;32.80;529;04.08.26.577
12896;170250;32.80;530;04.08.26.577
12888;170243;32.80;531;04.08.26.577
12896;170239;32.80;532;04.08.26.577
12892;170235;32.80;533;04.08.26.588
12908;170235;32.80;534;04.08.26.588
12908;170229;32.80;535;04.08.26.588
12896;170232;32.80;536;04.08.26.588
12908;170227;32.80;537;04.08.26.588
12860;170218;32.80;538;04.08.26.588
12872;170211;32.80;539;04.08.26.588
12868;170217;32.80;540;04.08.26.599
12884;170210;32.80;541;04.08.26.599
12916;170210;32.80;542;04.08.26.599
12892;170210;32.80;543;04.08.26.599
12876;170204;32.80;544;04.08.26.599
12900;170203;32.80;545;04.08.26.599
12904;170196;32.80;546;04.08.26.599
12896;170192;32.80;547;04.08.26.599
12912;170184;32.80;548;04.08.26.610
12912;170193;32.80;549;04.08.26.610
12892;170180;32.80;550;04.08.26.697
12892;170175;32.80;551;04.08.26.697
12872;170180;32.80;552;04.08.26.697
12888;170173;32.80;553;04.08.26.697
12876;170169;32.80;554;04.08.26.697
12904;170179;32.80;555;04.08.26.708
12892;170173;32.80;556;04.08.26.708
12904;170169;32.80;557;04.08.26.708
12932;170173;32.80;558;04.08.26.708
12912;170172;32.80;559;04.08.26.708
12912;170172;32.80;560;04.08.26.708
12900;170166;32.80;561;04.08.26.708
12908;170164;32.80;562;04.08.26.708
12904;170163;32.80;563;04.08.26.708
12904;170169;32.80;564;04.08.26.708
12916;170167;32.80;565;04.08.26.708
12876;170173;32.80;566;04.08.26.708
12884;170160;32.80;567;04.08.26.719
12892;170164;32.80;568;04.08.26.719
12892;170161;32.80;569;04.08.26.719
12884;170160;32.80;570;04.08.26.719
12904;170165;32.80;571;04.08.26.719
12904;170170;32.80;572;04.08.26.719
12884;170170;32.80;573;04.08.26.719
12876;170168;32.80;574;04.08.26.719
12888;170168;32.80;575;04.08.26.829
12876;170172;32.80;576;04.08.26.829
12888;170169;32.80;577;04.08.26.829
12904;170159;32.80;578;04.08.26.829
12892;170165;32.80;579;04.08.26.829
12912;170166;32.80;580;04.08.26.829
12900;170168;32.80;581;04.08.26.829
12888;170162;32.80;582;04.08.26.829
12876;170163;32.80;583;04.08.26.829
12892;170163;32.80;584;04.08.26.829
12900;170166;32.80;585;04.08.26.829
12900;170161;32.80;586;04.08.26.829
12880;170165;32.80;587;04.08.26.840
12896;170164;32.80;588;04.08.26.840
12900;170157;32.80;589;04.08.26.840
12876;170161;32.80;590;04.08.26.840
12904;170166;32.80;591;04.08.26.840
12908;170158;32.80;592;04.08.26.840
12888;170169;32.80;593;04.08.26.840
12920;170163;32.80;594;04.08.26.840
12888;170160;32.80;595;04.08.26.840
12904;170171;32.80;596;04.08.26.840
12884;170169;32.80;597;04.08.26.840
12888;170163;32.80;598;04.08.26.840
12872;170168;32.80;599;04.08.26.840
12876;170170;32.80;600;04.08.26.961
12892;170163;32.80;601;04.08.26.961
12912;170168;32.80;602;04.08.26.961
12896;170164;32.80;603;04.08.26.961
12904;170167;32.80;604;04.08.26.961
12888;170160;32.80;605;04.08.26.961
12880;170163;32.80;606;04.08.26.961
12912;170164;32.80;607;04.08.26.961
12892;170165;32.80;608;04.08.26.961
12896;170167;32.80;609;04.08.26.961
12896;170164;32.80;610;04.08.26.972
12904;170166;32.80;611;04.08.26.972
12896;170163;32.80;612;04.08.26.972
12880;170160;32.80;613;04.08.26.972
12884;170160;32.80;614;04.08.26.972
12904;170154;32.80;615;04.08.26.972
12884;170156;32.80;616;04.08.26.972
12876;170164;32.80;617;04.08.26.972
12900;170165;32.80;618;04.08.26.972
12916;170167;32.80;619;04.08.26.972
12892;170163;32.80;620;04.08.26.972
12892;170174;32.80;621;04.08.26.972
12904;170170;32.80;622;04.08.26.972
12892;170170;32.80;623;04.08.26.983
12888;170177;32.80;624;04.08.26.983
12868;170180;32.80;625;04.08.27.070
12920;170184;32.80;626;04.08.27.070
12888;170175;32.80;627;04.08.27.070
12912;170173;32.80;628;04.08.27.070
12888;170176;32.80;629;04.08.27.070
12912;170178;32.80;630;04.08.27.070
12884;170180;32.80;631;04.08.27.070
12912;170182;32.80;632;04.08.27.081
12876;170188;32.80;633;04.08.27.081
12884;170186;32.80;634;04.08.27.081
12892;170185;32.80;635;04.08.27.081
12896;170193;32.80;636;04.08.27.081
12884;170188;32.80;637;04.08.27.081
12884;170193;32.80;638;04.08.27.081
12912;170188;32.80;639;04.08.27.081
12888;170193;32.80;640;04.08.27.081
12860;170196;32.80;641;04.08.27.092
12904;170191;32.80;642;04.08.27.092
12900;170198;32.80;643;04.08.27.092
12880;170200;32.80;644;04.08.27.092
12872;170203;32.80;645;04.08.27.092
12876;170206;32.80;646;04.08.27.092
12896;170202;32.80;647;04.08.27.092
12892;170194;32.80;648;04.08.27.103
12928;170197;32.80;649;04.08.27.103
12904;170196;32.80;650;04.08.27.202
12912;170201;32.80;651;04.08.27.202
12860;170199;32.80;652;04.08.27.213
12860;170206;32.80;653;04.08.27.213
12896;170205;32.80;654;04.08.27.213
12916;170210;32.80;655;04.08.27.213
12896;170206;32.80;656;04.08.27.213
12908;170204;32.80;657;04.08.27.213
12892;170211;32.80;658;04.08.27.213
12884;170213;32.80;659;04.08.27.213
12880;170210;32.80;660;04.08.27.213
12900;170210;32.80;661;04.08.27.213
12900;170211;32.80;662;04.08.27.213
12892;170215;32.80;663;04.08.27.213
12916;170218;32.80;664;04.08.27.213
12904;170217;32.80;665;04.08.27.224
12892;170211;32.80;666;04.08.27.224
12852;170224;32.80;667;04.08.27.224
12876;170221;32.80;668;04.08.27.224
12860;170222;32.80;669;04.08.27.224
12864;170225;32.80;670;04.08.27.235
12932;170222;32.80;671;04.08.27.235
12860;170228;32.80;672;04.08.27.235
12896;170229;32.80;673;04.08.27.235
12888;170225;32.80;674;04.08.27.235
12888;170230;32.80;675;04.08.27.341
12864;170228;32.80;676;04.08.27.341
12888;170228;32.80;677;04.08.27.341
12900;170229;32.80;678;04.08.27.341
12928;170238;32.80;679;04.08.27.341
12876;170236;32.80;680;04.08.27.341
12928;170236;32.80;681;04.08.27.341
12916;170241;32.80;682;04.08.27.341
12892;170250;32.80;683;04.08.27.341
12904;170245;32.80;684;04.08.27.341
12888;170245;32.80;685;04.08.27.341
12900;170247;32.80;686;04.08.27.341
12884;170235;32.80;687;04.08.27.341
12904;170238;32.80;688;04.08.27.341
12884;170243;32.80;689;04.08.27.341
12872;170246;32.80;690;04.08.27.341
12904;170248;32.80;691;04.08.27.352
12900;170255;32.80;692;04.08.27.352
12916;170252;32.80;693;04.08.27.352
12912;170244;32.80;694;04.08.27.352
12912;170261;32.80;695;04.08.27.352
12904;170255;32.80;696;04.08.27.352
12888;170253;32.80;697;04.08.27.352
12896;170263;32.80;698;04.08.27.352
12908;170265;32.80;699;04.08.27.352
12928;170270;32.80;700;04.08.27.461
12860;170272;32.80;701;04.08.27.461
12932;170273;32.80;702;04.08.27.472
12876;170265;32.80;703;04.08.27.472
12884;170274;32.80;704;04.08.27.472
12908;170270;32.80;705;04.08.27.472
12892;170272;32.80;706;04.08.27.472
12896;170280;32.80;707;04.08.27.472
12892;170271;32.80;708;04.08.27.472
12888;170275;32.80;709;04.08.27.472
12936;170274;32.80;710;04.08.27.472
12908;170272;32.80;711;04.08.27.472
12896;170274;32.80;712;04.08.27.472
12904;170267;32.80;713;04.08.27.472
12884;170264;32.80;714;04.08.27.472
12880;170264;32.80;715;04.08.27.472
12872;170265;32.80;716;04.08.27.483
12880;170255;32.80;717;04.08.27.483
12856;170255;32.80;718;04.08.27.483
12892;170250;32.80;719;04.08.27.483
12892;170248;32.80;720;04.08.27.483
12896;170237;32.80;721;04.08.27.483
12900;170243;32.80;722;04.08.27.483
12888;170235;32.80;723;04.08.27.483
12904;170232;32.80;724;04.08.27.483
12876;170224;32.84;725;04.08.27.582
12888;170224;32.84;726;04.08.27.582
12884;170217;32.84;727;04.08.27.582
12872;170222;32.84;728;04.08.27.582
12892;170215;32.84;729;04.08.27.582
12896;170212;32.84;730;04.08.27.582
12888;170209;32.84;731;04.08.27.582
12892;170209;32.84;732;04.08.27.582
12896;170209;32.84;733;04.08.27.604
12876;170208;32.84;734;04.08.27.604
12876;170209;32.84;735;04.08.27.604
12880;170203;32.84;736;04.08.27.604
12888;170205;32.84;737;04.08.27.604
12912;170211;32.84;738;04.08.27.604
12892;170191;32.84;739;04.08.27.604
12876;170199;32.84;740;04.08.27.604
12884;170200;32.84;741;04.08.27.604
12928;170196;32.84;742;04.08.27.604
12904;170208;32.84;743;04.08.27.604
12884;170200;32.84;744;04.08.27.604
12912;170193;32.84;745;04.08.27.615
12912;170198;32.84;746;04.08.27.615
12904;170205;32.84;747;04.08.27.615
12876;170200;32.84;748;04.08.27.615
12920;170202;32.84;749;04.08.27.615
12860;170200;32.84;750;04.08.27.703
12916;170198;32.84;751;04.08.27.703
12896;170197;32.84;752;04.08.27.703
12896;170198;32.84;753;04.08.27.703
12888;170194;32.84;754;04.08.27.703
12908;170198;32.84;755;04.08.27.703
12892;170192;32.84;756;04.08.27.703
12888;170191;32.84;757;04.08.27.703
12912;170194;32.84;758;04.08.27.703
12880;170195;32.84;759;04.08.27.714
12884;170191;32.84;760;04.08.27.714
12900;170193;32.84;761;04.08.27.714
12892;170192;32.84;762;04.08.27.714
12904;170189;32.84;763;04.08.27.714
12904;170196;32.84;764;04.08.27.714
12892;170192;32.84;765;04.08.27.714
12888;170188;32.84;766;04.08.27.714
12896;170190;32.84;767;04.08.27.725
12904;170189;32.84;768;04.08.27.725
12892;170190;32.84;769;04.08.27.725
12904;170188;32.84;770;04.08.27.725
12872;170189;32.84;771;04.08.27.725
12912;170195;32.84;772;04.08.27.725
12904;170196;32.84;773;04.08.27.725
12896;170195;32.84;774;04.08.27.725
12916;170191;32.80;775;04.08.27.823
12896;170194;32.80;776;04.08.27.823
12900;170199;32.80;777;04.08.27.823
12900;170193;32.80;778;04.08.27.823
12900;170189;32.80;779;04.08.27.823
12896;170192;32.80;780;04.08.27.834
12904;170187;32.80;781;04.08.27.834
12908;170188;32.80;782;04.08.27.834
12892;170189;32.80;783;04.08.27.834
12900;170185;32.80;784;04.08.27.834
12904;170189;32.80;785;04.08.27.834
12880;170190;32.80;786;04.08.27.834
12912;170194;32.80;787;04.08.27.834
12908;170199;32.80;788;04.08.27.834
12884;170181;32.80;789;04.08.27.834
12928;170193;32.80;790;04.08.27.834
12856;170188;32.80;791;04.08.27.834
12876;170193;32.80;792;04.08.27.834
12892;170197;32.80;793;04.08.27.845
12888;170192;32.80;794;04.08.27.845
12896;170192;32.80;795;04.08.27.845
12860;170195;32.80;796;04.08.27.845
12880;170194;32.80;797;04.08.27.845
12904;170193;32.80;798;04.08.27.845
12888;170201;32.80;799;04.08.27.845
12876;170197;32.80;800;04.08.27.955
12904;170204;32.80;801;04.08.27.966
12876;170203;32.80;802;04.08.27.966
12876;170202;32.80;803;04.08.27.966
12904;170206;32.80;804;04.08.27.966
12888;170205;32.80;805;04.08.27.966
12896;170210;32.80;806;04.08.27.966
12884;170209;32.80;807;04.08.27.966
12876;170216;32.80;808;04.08.27.966
12900;170208;32.80;809;04.08.27.966
12908;170212;32.80;810;04.08.27.977
12896;170214;32.80;811;04.08.27.977
12888;170220;32.80;812;04.08.27.977
12916;170218;32.80;813;04.08.27.977
12892;170218;32.80;814;04.08.27.977
12900;170216;32.80;815;04.08.27.977
12892;170216;32.80;816;04.08.27.977
12876;170221;32.80;817;04.08.27.977
12860;170228;32.80;818;04.08.27.977
12888;170219;32.80;819;04.08.27.977
12904;170216;32.80;820;04.08.27.977
12876;170217;32.80;821;04.08.27.977
12896;170219;32.80;822;04.08.27.977
12884;170219;32.80;823;04.08.27.988
12896;170214;32.80;824;04.08.27.988
12884;170218;32.84;825;04.08.28.075
12880;170224;32.84;826;04.08.28.075
12916;170230;32.84;827;04.08.28.075
12904;170233;32.84;828;04.08.28.075
12884;170231;32.84;829;04.08.28.075
12860;170233;32.84;830;04.08.28.075
12904;170230;32.84;831;04.08.28.075
12876;170234;32.84;832;04.08.28.075
12876;170233;32.84;833;04.08.28.096
12892;170240;32.84;834;04.08.28.096
12892;170242;32.84;835;04.08.28.096
12892;170234;32.84;836;04.08.28.096
12860;170248;32.84;837;04.08.28.096
12928;170242;32.84;838;04.08.28.096
12892;170246;32.84;839;04.08.28.096
12876;170246;32.84;840;04.08.28.096
12896;170254;32.84;841;04.08.28.096
12904;170248;32.84;842;04.08.28.096
12884;170244;32.84;843;04.08.28.107
12880;170243;32.84;844;04.08.28.107
12900;170252;32.84;845;04.08.28.107
12888;170247;32.84;846;04.08.28.107
12904;170250;32.84;847;04.08.28.107
12932;170256;32.84;848;04.08.28.107
12912;170255;32.84;849;04.08.28.107
12904;170260;32.84;850;04.08.28.195
12912;170254;32.84;851;04.08.28.195
12908;170259;32.84;852;04.08.28.195
12912;170264;32.84;853;04.08.28.195
12928;170264;32.84;854;04.08.28.195
12912;170266;32.84;855;04.08.28.195
12888;170268;32.84;856;04.08.28.206
12900;170264;32.84;857;04.08.28.206
12904;170270;32.84;858;04.08.28.206
12888;170272;32.84;859;04.08.28.206
12884;170267;32.84;860;04.08.28.206
12908;170263;32.84;861;04.08.28.206
12908;170265;32.84;862;04.08.28.206
12884;170275;32.84;863;04.08.28.206
12884;170275;32.84;864;04.08.28.206
12884;170272;32.84;865;04.08.28.217
12896;170272;32.84;866;04.08.28.217
12908;170272;32.84;867;04.08.28.250
12900;170281;32.84;868;04.08.28.250
12884;170277;32.84;869;04.08.28.250
12876;170282;32.84;870;04.08.28.250
12888;170281;32.84;871;04.08.28.250
12884;170286;32.84;872;04.08.28.261
12932;170279;32.84;873;04.08.28.261
12924;170281;32.84;874;04.08.28.261
12904;170285;32.76;875;04.08.28.316
12880;170291;32.76;876;04.08.28.327
12896;170282;32.76;877;04.08.28.327
12888;170288;32.76;878;04.08.28.327
12888;170289;32.76;879;04.08.28.327
12920;170299;32.76;880;04.08.28.327
12868;170294;32.76;881;04.08.28.327
12896;170298;32.76;882;04.08.28.327
12876;170288;32.76;883;04.08.28.327
12880;170294;32.76;884;04.08.28.338
12880;170296;32.76;885;04.08.28.338
12888;170300;32.76;886;04.08.28.338
12904;170308;32.76;887;04.08.28.338
12880;170311;32.76;888;04.08.28.338
12880;170311;32.76;889;04.08.28.338
12860;170303;32.76;890;04.08.28.338
12928;170300;32.76;891;04.08.28.338
12884;170302;32.76;892;04.08.28.338
12888;170307;32.76;893;04.08.28.338
12868;170308;32.76;894;04.08.28.338
12876;170309;32.76;895;04.08.28.338
12884;170311;32.76;896;04.08.28.338
12920;170309;32.76;897;04.08.28.338
12904;170321;32.76;898;04.08.28.349
12904;170316;32.76;899;04.08.28.349
12896;170312;32.76;900;04.08.28.458
12872;170313;32.76;901;04.08.28.458
12864;170305;32.76;902;04.08.28.458
12916;170300;32.76;903;04.08.28.458
12896;170306;32.76;904;04.08.28.458
12900;170300;32.76;905;04.08.28.458
12884;170297;32.76;906;04.08.28.458
12896;170293;32.76;907;04.08.28.458
12904;170282;32.76;908;04.08.28.458
12896;170286;32.76;909;04.08.28.458
12900;170283;32.76;910;04.08.28.458
12888;170274;32.76;911;04.08.28.469
12896;170279;32.76;912;04.08.28.469
12876;170274;32.76;913;04.08.28.469
12892;170266;32.76;914;04.08.28.469
12912;170270;32.76;915;04.08.28.469
12896;170264;32.76;916;04.08.28.469
12912;170265;32.76;917;04.08.28.469
12880;170259;32.76;918;04.08.28.469
12892;170260;32.76;919;04.08.28.469
12900;170256;32.76;920;04.08.28.469
12880;170256;32.76;921;04.08.28.469
12876;170252;32.76;922;04.08.28.469
12888;170250;32.76;923;04.08.28.469
12888;170251;32.76;924;04.08.28.480
12884;170250;32.80;925;04.08.28.590
12912;170245;32.80;926;04.08.28.590
12896;170249;32.80;927;04.08.28.590
12896;170244;32.80;928;04.08.28.590
12876;170239;32.80;929;04.08.28.590
12892;170242;32.80;930;04.08.28.590
12880;170247;32.80;931;04.08.28.590
12888;170244;32.80;932;04.08.28.601
12900;170252;32.80;933;04.08.28.601
12880;170247;32.80;934;04.08.28.601
12900;170240;32.80;935;04.08.28.601
12908;170241;32.80;936;04.08.28.601
12876;170251;32.80;937;04.08.28.601
12900;170248;32.80;938;04.08.28.601
12900;170243;32.80;939;04.08.28.601
12908;170244;32.80;940;04.08.28.601
12900;170245;32.80;941;04.08.28.612
12876;170249;32.80;942;04.08.28.612
12884;170240;32.80;943;04.08.28.612
12900;170243;32.80;944;04.08.28.612
12888;170239;32.80;945;04.08.28.612
12920;170247;32.80;946;04.08.28.612
12876;170242;32.80;947;04.08.28.612
12920;170238;32.80;948;04.08.28.612
12916;170243;32.80;949;04.08.28.612
12884;170231;32.80;950;04.08.28.700
12920;170246;32.80;951;04.08.28.700
12896;170241;32.80;952;04.08.28.700
12904;170248;32.80;953;04.08.28.700
12908;170246;32.80;954;04.08.28.711
12900;170246;32.80;955;04.08.28.711
12892;170249;32.80;956;04.08.28.711
12872;170245;32.80;957;04.08.28.711
12892;170241;32.80;958;04.08.28.722
12900;170251;32.80;959;04.08.28.722
12892;170245;32.80;960;04.08.28.722
12900;170251;32.80;961;04.08.28.722
12888;170250;32.80;962;04.08.28.733
12900;170254;32.80;963;04.08.28.733
12888;170243;32.80;964;04.08.28.733
12912;170236;32.80;965;04.08.28.733
12908;170248;32.80;966;04.08.28.733
12876;170241;32.80;967;04.08.28.733
12892;170248;32.80;968;04.08.28.733
12896;170239;32.80;969;04.08.28.733
12884;170246;32.80;970;04.08.28.733
12884;170241;32.80;971;04.08.28.733
12900;170238;32.80;972;04.08.28.733
12876;170242;32.80;973;04.08.28.733
12892;170244;32.80;974;04.08.28.733
12868;170247;32.84;975;04.08.28.831
12900;170244;32.84;976;04.08.28.831
12896;170241;32.84;977;04.08.28.831
12888;170240;32.84;978;04.08.28.831
12872;170245;32.84;979;04.08.28.831
12888;170247;32.84;980;04.08.28.831
12904;170243;32.84;981;04.08.28.831
12896;170239;32.84;982;04.08.28.831
12888;170238;32.84;983;04.08.28.831
12876;170235;32.84;984;04.08.28.831
12900;170238;32.84;985;04.08.28.831
12880;170239;32.84;986;04.08.28.831
12896;170244;32.84;987;04.08.28.831
12872;170244;32.84;988;04.08.28.842
12892;170242;32.84;989;04.08.28.842
12904;170244;32.84;990;04.08.28.842
12872;170242;32.84;991;04.08.28.842
12876;170248;32.84;992;04.08.28.842
12880;170248;32.84;993;04.08.28.842
12892;170240;32.84;994;04.08.28.842
12896;170236;32.84;995;04.08.28.842
12892;170242;32.84;996;04.08.28.842
12896;170257;32.84;997;04.08.28.842
12892;170263;32.84;998;04.08.28.842
12936;170258;32.84;999;04.08.28.842
12904;170255;32.84;000;04.08.28.952
12872;170255;32.84;001;04.08.28.952
12928;170251;32.84;002;04.08.28.952
12868;170256;32.84;003;04.08.28.952
12892;170261;32.84;004;04.08.28.952
12884;170257;32.84;005;04.08.28.952
12860;170258;32.84;006;04.08.28.952
12900;170263;32.84;007;04.08.28.952
12900;170258;32.84;008;04.08.28.963
12896;170258;32.84;009;04.08.28.963
12852;170254;32.84;010;04.08.28.963
12880;170266;32.84;011;04.08.28.963
12888;170270;32.84;012;04.08.28.963
12884;170271;32.84;013;04.08.28.963
12904;170267;32.84;014;04.08.28.963
12888;170277;32.84;015;04.08.28.963
12900;170278;32.84;016;04.08.28.963
12916;170278;32.84;017;04.08.28.974
12896;170271;32.84;018;04.08.28.974
12860;170272;32.84;019;04.08.28.974
12908;170272;32.84;020;04.08.28.974
12876;170267;32.84;021;04.08.28.974
12888;170276;32.84;022;04.08.28.974
12880;170273;32.84;023;04.08.28.974
12896;170271;32.84;024;04.08.28.974
12888;170273;32.80;025;04.08.29.083
12892;170281;32.80;026;04.08.29.083
12892;170281;32.80;027;04.08.29.083
12884;170283;32.80;028;04.08.29.083
12872;170287;32.80;029;04.08.29.083
12868;170284;32.80;030;04.08.29.083
12896;170286;32.80;031;04.08.29.094
12868;170281;32.80;032;04.08.29.094
12908;170277;32.80;033;04.08.29.094
12884;170288;32.80;034;04.08.29.094
12876;170284;32.80;035;04.08.29.094
12880;170289;32.80;036;04.08.29.094
12888;170285;32.80;037;04.08.29.094
12884;170287;32.80;038;04.08.29.094
12892;170292;32.80;039;04.08.29.094
12884;170302;32.80;040;04.08.29.094
12888;170297;32.80;041;04.08.29.094
12912;170297;32.80;042;04.08.29.094
12888;170300;32.80;043;04.08.29.105
12888;170306;32.80;044;04.08.29.105
12880;170293;32.80;045;04.08.29.105
12884;170301;32.80;046;04.08.29.105
12876;170300;32.80;047;04.08.29.105
12888;170298;32.80;048;04.08.29.105
12900;170301;32.80;049;04.08.29.105
12888;170300;32.80;050;04.08.29.215
12892;170313;32.80;051;04.08.29.215
12900;170303;32.80;052;04.08.29.226
12912;170313;32.80;053;04.08.29.226
12904;170309;32.80;054;04.08.29.226
12892;170320;32.80;055;04.08.29.226
12892;170314;32.80;056;04.08.29.226
12884;170318;32.80;057;04.08.29.226
12888;170321;32.80;058;04.08.29.226
12880;170316;32.80;059;04.08.29.226
12888;170317;32.80;060;04.08.29.226
12888;170319;32.80;061;04.08.29.226
12888;170314;32.80;062;04.08.29.226
12896;170326;32.80;063;04.08.29.226
12892;170328;32.80;064;04.08.29.226
12876;170326;32.80;065;04.08.29.237
12892;170326;32.80;066;04.08.29.237
12860;170326;32.80;067;04.08.29.237
12888;170321;32.80;068;04.08.29.237
12896;170326;32.80;069;04.08.29.248
12904;170325;32.80;070;04.08.29.248
12912;170330;32.80;071;04.08.29.248
12884;170335;32.80;072;04.08.29.248
12888;170339;32.80;073;04.08.29.248
12892;170336;32.80;074;04.08.29.248
12872;170337;32.80;075;04.08.29.325
12888;170332;32.80;076;04.08.29.325
12856;170330;32.80;077;04.08.29.325
12876;170340;32.80;078;04.08.29.325
12892;170334;32.80;079;04.08.29.325
12928;170338;32.80;080;04.08.29.325
12900;170339;32.80;081;04.08.29.325
12880;170335;32.80;082;04.08.29.325
12896;170340;32.80;083;04.08.29.325
12884;170340;32.80;084;04.08.29.325
12880;170341;32.80;085;04.08.29.325
12908;170332;32.80;086;04.08.29.325
12876;170327;32.80;087;04.08.29.336
12932;170332;32.80;088;04.08.29.336
12892;170325;32.80;089;04.08.29.336
12880;170319;32.80;090;04.08.29.336
12908;170312;32.80;091;04.08.29.336
12904;170311;32.80;092;04.08.29.336
12896;170316;32.80;093;04.08.29.336
12888;170302;32.80;094;04.08.29.336
12876;170299;32.80;095;04.08.29.336
12912;170304;32.80;096;04.08.29.336
12880;170301;32.80;097;04.08.29.336
12908;170292;32.80;098;04.08.29.336
12912;170292;32.80;099;04.08.29.347
12844;170294;32.80;100;04.08.29.446
12884;170283;32.80;101;04.08.29.446
12884;170289;32.80;102;04.08.29.446
12892;170280;32.80;103;04.08.29.446
12888;170279;32.80;104;04.08.29.446
12884;170283;32.80;105;04.08.29.446
12888;170276;32.80;106;04.08.29.446
12908;170277;32.80;107;04.08.29.457
12892;170275;32.80;108;04.08.29.457
12900;170272;32.80;109;04.08.29.457
12900;170274;32.80;110;04.08.29.457
12892;170283;32.80;111;04.08.29.457
12896;170282;32.80;112;04.08.29.457
12876;170276;32.80;113;04.08.29.457
12892;170278;32.80;114;04.08.29.457
12880;170282;32.80;115;04.08.29.457
12912;170280;32.80;116;04.08.29.457
12896;170279;32.80;117;04.08.29.457
12892;170285;32.80;118;04.08.29.457
12916;170281;32.80;119;04.08.29.457
12884;170272;32.80;120;04.08.29.457
12876;170275;32.80;121;04.08.29.468
12904;170283;32.80;122;04.08.29.468
12884;170274;32.80;123;04.08.29.468
12892;170285;32.80;124;04.08.29.468
12876;170279;32.80;125;04.08.29.577
12892;170274;32.80;126;04.08.29.577
12896;170268;32.80;127;04.08.29.577
12880;170257;32.80;128;04.08.29.577
12888;170272;32.80;129;04.08.29.588
12876;170274;32.80;130;04.08.29.588
12920;170266;32.80;131;04.08.29.588
12888;170263;32.80;132;04.08.29.588
12904;170269;32.80;133;04.08.29.588
12904;170266;32.80;134;04.08.29.588
12872;170265;32.80;135;04.08.29.588
12896;170268;32.80;136;04.08.29.588
12912;170263;32.80;137;04.08.29.588
12904;170264;32.80;138;04.08.29.588
12892;170269;32.80;139;04.08.29.588
12876;170268;32.80;140;04.08.29.588
12900;170264;32.80;141;04.08.29.588
12872;170273;32.80;142;04.08.29.599
12892;170273;32.80;143;04.08.29.599
12876;170259;32.80;144;04.08.29.599
12896;170269;32.80;145;04.08.29.599
12884;170265;32.80;146;04.08.29.610
12912;170270;32.80;147;04.08.29.610
12880;170268;32.80;148;04.08.29.610
12904;170267;32.80;149;04.08.29.610
12884;170270;32.80;150;04.08.29.720
12876;170267;32.80;151;04.08.29.720
12900;170264;32.80;152;04.08.29.720
12912;170264;32.80;153;04.08.29.720
12896;170271;32.80;154;04.08.29.720
12896;170263;32.80;155;04.08.29.720
12888;170265;32.80;156;04.08.29.720
12900;170264;32.80;157;04.08.29.720
12876;170265;32.80;158;04.08.29.720
12888;170263;32.80;159;04.08.29.720
12892;170262;32.80;160;04.08.29.720
12892;170260;32.80;161;04.08.29.720
12892;170264;32.80;162;04.08.29.720
12908;170256;32.80;163;04.08.29.731
12872;170265;32.80;164;04.08.29.731
12884;170267;32.80;165;04.08.29.731
12896;170263;32.80;166;04.08.29.731
12900;170261;32.80;167;04.08.29.731
12896;170264;32.80;168;04.08.29.731
12884;170257;32.80;169;04.08.29.731
12916;170259;32.80;170;04.08.29.731
12896;170268;32.80;171;04.08.29.731
12888;170267;32.80;172;04.08.29.731
12920;170259;32.80;173;04.08.29.731
12912;170268;32.80;174;04.08.29.731
12912;170265;32.80;175;04.08.29.830
12884;170283;32.80;176;04.08.29.830
12896;170271;32.80;177;04.08.29.830
12880;170279;32.80;178;04.08.29.830
12896;170272;32.80;179;04.08.29.830
12904;170273;32.80;180;04.08.29.830
12896;170282;32.80;181;04.08.29.830
12912;170279;32.80;182;04.08.29.830
12892;170281;32.80;183;04.08.29.841
12868;170272;32.80;184;04.08.29.841
12904;170278;32.80;185;04.08.29.841
12904;170283;32.80;186;04.08.29.841
12880;170279;32.80;187;04.08.29.841
12900;170279;32.80;188;04.08.29.841
12888;170275;32.80;189;04.08.29.841
12904;170280;32.80;190;04.08.29.841
12876;170282;32.80;191;04.08.29.841
12900;170280;32.80;192;04.08.29.852
12896;170277;32.80;193;04.08.29.852
12904;170276;32.80;194;04.08.29.852
12872;170275;32.80;195;04.08.29.852
12900;170267;32.80;196;04.08.29.852
12908;170278;32.80;197;04.08.29.852
12880;170280;32.80;198;04.08.29.852
12920;170284;32.80;199;04.08.29.852
12900;170282;32.80;200;04.08.29.951
12868;170282;32.80;201;04.08.29.951
12892;170282;32.80;202;04.08.29.951
12896;170282;32.80;203;04.08.29.951
12872;170281;32.80;204;04.08.29.951
12896;170291;32.80;205;04.08.29.951
12928;170281;32.80;206;04.08.29.951
12920;170288;32.80;207;04.08.29.961
12888;170288;32.80;208;04.08.29.961
12892;170287;32.80;209;04.08.29.961
12892;170290;32.80;210;04.08.29.961
12904;170285;32.80;211;04.08.29.961
12868;170279;32.80;212;04.08.29.961
12884;170296;32.80;213;04.08.29.961
12888;170297;32.80;214;04.08.29.961
12912;170294;32.80;215;04.08.29.961
12880;170287;32.80;216;04.08.29.961
12860;170289;32.80;217;04.08.29.983
12912;170292;32.80;218;04.08.29.983
12876;170301;32.80;219;04.08.29.983
12892;170298;32.80;220;04.08.29.983
12924;170309;32.80;221;04.08.29.983
12888;170306;32.80;222;04.08.29.983
12908;170302;32.80;223;04.08.29.994
12884;170309;32.80;224;04.08.29.994
12928;170303;32.80;225;04.08.30.093
12880;170311;32.80;226;04.08.30.093
12904;170306;32.80;227;04.08.30.104
12880;170300;32.80;228;04.08.30.104
12888;170311;32.80;229;04.08.30.104
12896;170303;32.80;230;04.08.30.104
12924;170311;32.80;231;04.08.30.104
12876;170308;32.80;232;04.08.30.104
12888;170315;32.80;233;04.08.30.115
12884;170312;32.80;234;04.08.30.126
12896;170317;32.80;235;04.08.30.126
12896;170323;32.80;236;04.08.30.126
12908;170313;32.80;237;04.08.30.126
12888;170319;32.80;238;04.08.30.126
12896;170318;32.80;239;04.08.30.126
12884;170321;32.80;240;04.08.30.126
12928;170318;32.80;241;04.08.30.126
12900;170321;32.80;242;04.08.30.126
12884;170325;32.80;243;04.08.30.126
12900;170325;32.80;244;04.08.30.126
12888;170319;32.80;245;04.08.30.126
12892;170319;32.80;246;04.08.30.126
12904;170320;32.80;247;04.08.30.126
12916;170327;32.80;248;04.08.30.137
12904;170323;32.80;249;04.08.30.137
12884;170327;32.80;250;04.08.30.214
12896;170325;32.80;251;04.08.30.214
12872;170328;32.80;252;04.08.30.214
12896;170330;32.80;253;04.08.30.214
12880;170328;32.80;254;04.08.30.214
12888;170334;32.80;255;04.08.30.214
12888;170332;32.80;256;04.08.30.214
12892;170330;32.80;257;04.08.30.214
12872;170340;32.80;258;04.08.30.214
12900;170334;32.80;259;04.08.30.214
12904;170349;32.80;260;04.08.30.214
12880;170334;32.80;261;04.08.30.225
12876;170334;32.80;262;04.08.30.225
12920;170332;32.80;263;04.08.30.225
12912;170338;32.80;264;04.08.30.225
12880;170334;32.80;265;04.08.30.225
12880;170329;32.80;266;04.08.30.225
12920;170324;32.80;267;04.08.30.225
12888;170315;32.80;268;04.08.30.225
12892;170315;32.80;269;04.08.30.225
12904;170319;32.80;270;04.08.30.225
12876;170307;32.80;271;04.08.30.225
12928;170309;32.80;272;04.08.30.225
12884;170301;32.80;273;04.08.30.225
12928;170307;32.80;274;04.08.30.225
12896;170310;32.80;275;04.08.30.356
12904;170295;32.80;276;04.08.30.356
12872;170298;32.80;277;04.08.30.356
12888;170288;32.80;278;04.08.30.356
12888;170286;32.80;279;04.08.30.356
12876;170286;32.80;280;04.08.30.356
12920;170283;32.80;281;04.08.30.356
12884;170277;32.80;282;04.08.30.367
12904;170273;32.80;283;04.08.30.367
12896;170272;32.80;284;04.08.30.367
12904;170277;32.80;285;04.08.30.367
12880;170275;32.80;286;04.08.30.367
12872;170278;32.80;287;04.08.30.367
12900;170269;32.80;288;04.08.30.367
12900;170277;32.80;289;04.08.30.367
12884;170262;32.80;290;04.08.30.367
12876;170264;32.80;291;04.08.30.367
12904;170265;32.80;292;04.08.30.367
12892;170270;32.80;293;04.08.30.367
12908;170275;32.80;294;04.08.30.367
12860;170263;32.80;295;04.08.30.378
12896;170267;32.80;296;04.08.30.378
12888;170268;32.80;297;04.08.30.378
12896;170270;32.80;298;04.08.30.378
12904;170265;32.80;299;04.08.30.378
12888;170266;32.80;300;04.08.30.444
12880;170267;32.80;301;04.08.30.444
12916;170266;32.80;302;04.08.30.444
12888;170267;32.80;303;04.08.30.444
12916;170256;32.80;304;04.08.30.455
12900;170253;32.80;305;04.08.30.455
12872;170263;32.80;306;04.08.30.455
12884;170262;32.80;307;04.08.30.455
12880;170249;32.80;308;04.08.30.455
12896;170262;32.80;309;04.08.30.455
12896;170259;32.80;310;04.08.30.455
12896;170251;32.80;311;04.08.30.455
12900;170253;32.80;312;04.08.30.455
12868;170259;32.80;313;04.08.30.455
12904;170258;32.80;314;04.08.30.455
12896;170255;32.80;315;04.08.30.455
12900;170256;32.80;316;04.08.30.455
12900;170259;32.80;317;04.08.30.466
12900;170255;32.80;318;04.08.30.466
12884;170256;32.80;319;04.08.30.466
12888;170257;32.80;320;04.08.30.466
12888;170257;32.80;321;04.08.30.466
12888;170257;32.80;322;04.08.30.466
12892;170254;32.80;323;04.08.30.466
12908;170253;32.80;324;04.08.30.466
12880;170265;32.80;325;04.08.30.575
12868;170263;32.80;326;04.08.30.575
12928;170259;32.80;327;04.08.30.575
12904;170254;32.80;328;04.08.30.575
12884;170257;32.80;329;04.08.30.575
12912;170248;32.80;330;04.08.30.575
12916;170256;32.80;331;04.08.30.575
12884;170252;32.80;332;04.08.30.575
12900;170249;32.80;333;04.08.30.575
12896;170258;32.80;334;04.08.30.575
12916;170247;32.80;335;04.08.30.575
12884;170247;32.80;336;04.08.30.575
12896;170244;32.80;337;04.08.30.575
12888;170244;32.80;338;04.08.30.586
12880;170248;32.80;339;04.08.30.586
12908;170248;32.80;340;04.08.30.586
12900;170254;32.80;341;04.08.30.586
12900;170248;32.80;342;04.08.30.586
12868;170247;32.80;343;04.08.30.597
12928;170251;32.80;344;04.08.30.597
12908;170244;32.80;345;04.08.30.597
12864;170248;32.80;346;04.08.30.597
12884;170246;32.80;347;04.08.30.597
12912;170252;32.80;348;04.08.30.597
12928;170254;32.80;349;04.08.30.597
12920;170245;32.80;350;04.08.30.706
12880;170240;32.80;351;04.08.30.706
12884;170248;32.80;352;04.08.30.706
12896;170253;32.80;353;04.08.30.706
12892;170244;32.80;354;04.08.30.706
12900;170249;32.80;355;04.08.30.706
12900;170258;32.80;356;04.08.30.706
12904;170254;32.80;357;04.08.30.706
12876;170246;32.80;358;04.08.30.706
12892;170256;32.80;359;04.08.30.717
12920;170254;32.80;360;04.08.30.717
12880;170251;32.80;361;04.08.30.717
12916;170259;32.80;362;04.08.30.717
12928;170264;32.80;363;04.08.30.717
12880;170264;32.80;364;04.08.30.717
12888;170264;32.80;365;04.08.30.717
12908;170259;32.80;366;04.08.30.717
12876;170266;32.80;367;04.08.30.717
12904;170264;32.80;368;04.08.30.717
12888;170260;32.80;369;04.08.30.717
12884;170265;32.80;370;04.08.30.717
12892;170264;32.80;371;04.08.30.717
12876;170269;32.80;372;04.08.30.728
12888;170266;32.80;373;04.08.30.728
12928;170269;32.80;374;04.08.30.728
12888;170264;32.80;375;04.08.30.838
12880;170276;32.80;376;04.08.30.838
12860;170269;32.80;377;04.08.30.838
12908;170279;32.80;378;04.08.30.838
12888;170281;32.80;379;04.08.30.849
12928;170270;32.80;380;04.08.30.849
12888;170273;32.80;381;04.08.30.849
12916;170280;32.80;382;04.08.30.849
12888;170277;32.80;383;04.08.30.849
12892;170272;32.80;384;04.08.30.849
12908;170285;32.80;385;04.08.30.849
12908;170287;32.80;386;04.08.30.849
12876;170277;32.80;387;04.08.30.849
12892;170280;32.80;388;04.08.30.849
12888;170283;32.80;389;04.08.30.849
12892;170292;32.80;390;04.08.30.849
12912;170284;32.80;391;04.08.30.849
12888;170282;32.80;392;04.08.30.849
12896;170285;32.80;393;04.08.30.860
12900;170287;32.80;394;04.08.30.860
12904;170287;32.80;395;04.08.30.860
12912;170286;32.80;396;04.08.30.860
12900;170287;32.80;397;04.08.30.860
12900;170291;32.80;398;04.08.30.860
12880;170285;32.80;399;04.08.30.860
12912;170286;32.80;400;04.08.30.948
12896;170285;32.80;401;04.08.30.959
12880;170286;32.80;402;04.08.30.959
12912;170290;32.80;403;04.08.30.959
12884;170295;32.80;404;04.08.30.959
12880;170284;32.80;405;04.08.30.959
12876;170291;32.80;406;04.08.30.959
12904;170286;32.80;407;04.08.30.959
12912;170284;32.80;408;04.08.30.970
12920;170301;32.80;409;04.08.30.981
12884;170293;32.80;410;04.08.30.981
12884;170295;32.80;411;04.08.30.981
12892;170297;32.80;412;04.08.30.981
12876;170292;32.80;413;04.08.30.981
12880;170301;32.80;414;04.08.30.981
12912;170302;32.80;415;04.08.30.981
12932;170301;32.80;416;04.08.30.981
12900;170302;32.80;417;04.08.30.981
12892;170300;32.80;418;04.08.30.981
12892;170306;32.80;419;04.08.30.981
12872;170298;32.80;420;04.08.30.981
12884;170313;32.80;421;04.08.30.991
12888;170305;32.80;422;04.08.30.991
12860;170303;32.80;423;04.08.30.991
12928;170311;32.80;424;04.08.30.991
12892;170305;32.80;425;04.08.31.079
12880;170308;32.80;426;04.08.31.079
12868;170313;32.80;427;04.08.31.079
12860;170306;32.80;428;04.08.31.079
12896;170318;32.80;429;04.08.31.079
12896;170309;32.80;430;04.08.31.079
12884;170318;32.80;431;04.08.31.079
12936;170310;32.80;432;04.08.31.079
12908;170314;32.80;433;04.08.31.079
12888;170318;32.80;434;04.08.31.079
12888;170314;32.80;435;04.08.31.079
12908;170317;32.80;436;04.08.31.090
12876;170316;32.80;437;04.08.31.090
12892;170320;32.80;438;04.08.31.090
12892;170325;32.80;439;04.08.31.090
12892;170323;32.80;440;04.08.31.090
12916;170319;32.80;441;04.08.31.090
12888;170320;32.80;442;04.08.31.090
12888;170318;32.80;443;04.08.31.090
12912;170322;32.80;444;04.08.31.090
12888;170312;32.80;445;04.08.31.090
12892;170313;32.80;446;04.08.31.090
12888;170312;32.80;447;04.08.31.090
12896;170308;32.80;448;04.08.31.090
12904;170304;32.80;449;04.08.31.101
12868;170299;32.80;450;04.08.31.200
12908;170295;32.80;451;04.08.31.200
12892;170285;32.80;452;04.08.31.200
12916;170283;32.80;453;04.08.31.200
12884;170274;32.80;454;04.08.31.200
12860;170278;32.80;455;04.08.31.200
12888;170275;32.80;456;04.08.31.200
12884;170265;32.80;457;04.08.31.211
12872;170276;32.80;458;04.08.31.211
12904;170271;32.80;459;04.08.31.211
12888;170267;32.80;460;04.08.31.211
12892;170264;32.80;461;04.08.31.211
12896;170262;32.80;462;04.08.31.211
12904;170254;32.80;463;04.08.31.211
12904;170256;32.80;464;04.08.31.211
12888;170246;32.80;465;04.08.31.211
12896;170253;32.80;466;04.08.31.211
12896;170253;32.80;467;04.08.31.211
12880;170247;32.80;468;04.08.31.211
12904;170255;32.80;469;04.08.31.211
12892;170250;32.80;470;04.08.31.222
12900;170252;32.80;471;04.08.31.222
12928;170251;32.80;472;04.08.31.222
12856;170247;32.80;473;04.08.31.222
12928;170253;32.80;474;04.08.31.222
12856;170234;32.80;475;04.08.31.332
12896;170243;32.80;476;04.08.31.332
12860;170244;32.80;477;04.08.31.332
12896;170245;32.80;478;04.08.31.343
12916;170240;32.80;479;04.08.31.343
12912;170232;32.80;480;04.08.31.343
12916;170234;32.80;481;04.08.31.343
12900;170239;32.80;482;04.08.31.343
12888;170243;32.80;483;04.08.31.343
12904;170241;32.80;484;04.08.31.343
12900;170239;32.80;485;04.08.31.343
12884;170242;32.80;486;04.08.31.343
12896;170241;32.80;487;04.08.31.343
12904;170236;32.80;488;04.08.31.343
12876;170235;32.80;489;04.08.31.343
12900;170241;32.80;490;04.08.31.343
12900;170235;32.80;491;04.08.31.354
12888;170239;32.80;492;04.08.31.354
12888;170243;32.80;493;04.08.31.354
12888;170236;32.80;494;04.08.31.354
12884;170238;32.80;495;04.08.31.354
12888;170241;32.80;496;04.08.31.364
12852;170240;32.80;497;04.08.31.364
12884;170235;32.80;498;04.08.31.364
12896;170241;32.80;499;04.08.31.364
12888;170232;32.80;500;04.08.31.452
12888;170238;32.80;501;04.08.31.452
12904;170241;32.80;502;04.08.31.452
12888;170238;32.80;503;04.08.31.452
12860;170231;32.80;504;04.08.31.452
12896;170233;32.80;505;04.08.31.452
12888;170235;32.80;506;04.08.31.452
12916;170235;32.80;507;04.08.31.452
12916;170234;32.80;508;04.08.31.485
12884;170229;32.80;509;04.08.31.485
12880;170234;32.80;510;04.08.31.485
12904;170226;32.80;511;04.08.31.485
12896;170232;32.80;512;04.08.31.485
12896;170229;32.80;513;04.08.31.485
12888;170232;32.80;514;04.08.31.485
12872;170232;32.80;515;04.08.31.485
12852;170226;32.80;516;04.08.31.485
12896;170234;32.80;517;04.08.31.485
12860;170233;32.80;518;04.08.31.485
12892;170238;32.80;519;04.08.31.485
12876;170229;32.80;520;04.08.31.485
12896;170232;32.80;521;04.08.31.496
12892;170225;32.80;522;04.08.31.496
12868;170229;32.80;523;04.08.31.496
12928;170233;32.80;524;04.08.31.496
12880;170230;32.80;525;04.08.31.573
12884;170235;32.80;526;04.08.31.573
12880;170231;32.80;527;04.08.31.573
12884;170233;32.80;528;04.08.31.573
12892;170235;32.80;529;04.08.31.573
12928;170230;32.80;530;04.08.31.573
12888;170231;32.80;531;04.08.31.573
12892;170231;32.80;532;04.08.31.573
12900;170236;32.80;533;04.08.31.584
12884;170239;32.80;534;04.08.31.584
12884;170227;32.80;535;04.08.31.584
12900;170241;32.80;536;04.08.31.584
12880;170240;32.80;537;04.08.31.584
12884;170246;32.80;538;04.08.31.584
12900;170247;32.80;539;04.08.31.584
12900;170235;32.80;540;04.08.31.584
12868;170239;32.80;541;04.08.31.584
12904;170228;32.80;542;04.08.31.584
12876;170239;32.80;543;04.08.31.595
12888;170239;32.80;544;04.08.31.595
12920;170239;32.80;545;04.08.31.595
12896;170239;32.80;546;04.08.31.595
12880;170241;32.80;547;04.08.31.595
12880;170243;32.80;548;04.08.31.595
12876;170249;32.80;549;04.08.31.595
12880;170248;32.80;550;04.08.31.705
12896;170247;32.80;551;04.08.31.705
12896;170248;32.80;552;04.08.31.705
12856;170257;32.80;553;04.08.31.705
12896;170254;32.80;554;04.08.31.705
12928;170255;32.80;555;04.08.31.716
12872;170254;32.80;556;04.08.31.716
12912;170254;32.80;557;04.08.31.716
12868;170257;32.80;558;04.08.31.716
12888;170255;32.80;559;04.08.31.716
12892;170259;32.80;560;04.08.31.716
12888;170263;32.80;561;04.08.31.716
12896;170256;32.80;562;04.08.31.716
12920;170258;32.80;563;04.08.31.716
12880;170264;32.80;564;04.08.31.727
12916;170264;32.80;565;04.08.31.727
12904;170264;32.80;566;04.08.31.727
12892;170265;32.80;567;04.08.31.727
12896;170259;32.80;568;04.08.31.727
12884;170265;32.80;569;04.08.31.727
12876;170268;32.80;570;04.08.31.727
12912;170267;32.80;571;04.08.31.727
12888;170271;32.80;572;04.08.31.727
12876;170272;32.80;573;04.08.31.737
12920;170275;32.80;574;04.08.31.737
12876;170277;32.80;575;04.08.31.825
12904;170268;32.80;576;04.08.31.826
12880;170270;32.80;577;04.08.31.837
12900;170277;32.80;578;04.08.31.837
12900;170282;32.80;579;04.08.31.837
12884;170268;32.80;580;04.08.31.837
12872;170281;32.80;581;04.08.31.837
12888;170280;32.80;582;04.08.31.837
12876;170276;32.80;583;04.08.31.837
12892;170274;32.80;584;04.08.31.837
12912;170282;32.80;585;04.08.31.837
12872;170277;32.80;586;04.08.31.837
12904;170287;32.80;587;04.08.31.837
12912;170274;32.80;588;04.08.31.837
12876;170290;32.80;589;04.08.31.837
12876;170282;32.80;590;04.08.31.848
12900;170285;32.80;591;04.08.31.848
12912;170290;32.80;592;04.08.31.848
12860;170297;32.80;593;04.08.31.848
12912;170290;32.80;594;04.08.31.848
12884;170293;32.80;595;04.08.31.848
12928;170287;32.80;596;04.08.31.848
12912;170283;32.80;597;04.08.31.848
12884;170289;32.80;598;04.08.31.848
12908;170290;32.80;599;04.08.31.848
12920;170289;32.80;600;04.08.31.991
12900;170289;32.80;601;04.08.31.991
12888;170293;32.80;602;04.08.31.991
12876;170302;32.80;603;04.08.31.991
12876;170298;32.80;604;04.08.31.991
12888;170296;32.80;605;04.08.31.991
12876;170294;32.80;606;04.08.31.991
12872;170296;32.80;607;04.08.31.991
12912;170299;32.80;608;04.08.32.023
12892;170300;32.80;609;04.08.32.023
12884;170304;32.80;610;04.08.32.023
12872;170307;32.80;611;04.08.32.023
12916;170307;32.80;612;04.08.32.023
12912;170309;32.80;613;04.08.32.023
12892;170313;32.80;614;04.08.32.023
12860;170316;32.80;615;04.08.32.023
12900;170309;32.80;616;04.08.32.023
12900;170308;32.80;617;04.08.32.023
12888;170318;32.80;618;04.08.32.023
12900;170320;32.80;619;04.08.32.023
12912;170318;32.80;620;04.08.32.034
12908;170321;32.80;621;04.08.32.034
12900;170311;32.80;622;04.08.32.034
12928;170305;32.80;623;04.08.32.034
12892;170307;32.80;624;04.08.32.034
12888;170302;32.84;625;04.08.32.078
12884;170309;32.84;626;04.08.32.078
12888;170311;32.84;627;04.08.32.078
12900;170302;32.84;628;04.08.32.078
12912;170291;32.84;629;04.08.32.078
12892;170285;32.84;630;04.08.32.078
12904;170289;32.84;631;04.08.32.078
12900;170283;32.84;632;04.08.32.078
12904;170281;32.84;633;04.08.32.089
12908;170279;32.84;634;04.08.32.089
12892;170273;32.84;635;04.08.32.089
12888;170259;32.84;636;04.08.32.089
12944;170266;32.84;637;04.08.32.089
12876;170258;32.84;638;04.08.32.089
12896;170266;32.84;639;04.08.32.089
12884;170257;32.84;640;04.08.32.089
12892;170249;32.84;641;04.08.32.089
12888;170250;32.84;642;04.08.32.111
12900;170242;32.84;643;04.08.32.111
12888;170233;32.84;644;04.08.32.111
12896;170241;32.84;645;04.08.32.111
12888;170243;32.84;646;04.08.32.111
12876;170243;32.84;647;04.08.32.111
12884;170241;32.84;648;04.08.32.111
12904;170243;32.84;649;04.08.32.111
12872;170239;32.84;650;04.08.32.199
12900;170239;32.84;651;04.08.32.199
12884;170241;32.84;652;04.08.32.210
12900;170240;32.84;653;04.08.32.210
12876;170236;32.84;654;04.08.32.210
12888;170236;32.84;655;04.08.32.210
12880;170231;32.84;656;04.08.32.210
12876;170239;32.84;657;04.08.32.210
12872;170235;32.84;658;04.08.32.210
12876;170227;32.84;659;04.08.32.210
12892;170223;32.84;660;04.08.32.210
12900;170235;32.84;661;04.08.32.210
12900;170230;32.84;662;04.08.32.210
12880;170226;32.84;663;04.08.32.210
12900;170227;32.84;664;04.08.32.210
12860;170229;32.84;665;04.08.32.210
12928;170230;32.84;666;04.08.32.210
12912;170222;32.84;667;04.08.32.220
12900;170225;32.84;668;04.08.32.220
12900;170223;32.84;669;04.08.32.220
12860;170223;32.84;670;04.08.32.220
12876;170229;32.84;671;04.08.32.220
12900;170232;32.84;672;04.08.32.220
12904;170232;32.84;673;04.08.32.220
12912;170234;32.84;674;04.08.32.220
12888;170235;32.80;675;04.08.32.352
12896;170227;32.80;676;04.08.32.352
12896;170230;32.80;677;04.08.32.352
12928;170226;32.80;678;04.08.32.352
12912;170232;32.80;679;04.08.32.352
12896;170234;32.80;680;04.08.32.352
12908;170232;32.80;681;04.08.32.352
12912;170229;32.80;682;04.08.32.352
12900;170224;32.80;683;04.08.32.363
12860;170220;32.80;684;04.08.32.363
12896;170230;32.80;685;04.08.32.363
12892;170227;32.80;686;04.08.32.363
12896;170232;32.80;687;04.08.32.363
12892;170227;32.80;688;04.08.32.363
12888;170227;32.80;689;04.08.32.363
12892;170228;32.80;690;04.08.32.363
12880;170217;32.80;691;04.08.32.363
12896;170222;32.80;692;04.08.32.385
12856;170224;32.80;693;04.08.32.385
12880;170220;32.80;694;04.08.32.385
12888;170212;32.80;695;04.08.32.385
12892;170222;32.80;696;04.08.32.385
12904;170220;32.80;697;04.08.32.385
12928;170217;32.80;698;04.08.32.385
12900;170221;32.80;699;04.08.32.385
12896;170219;32.80;700;04.08.32.460
12912;170226;32.80;701;04.08.32.460
12904;170218;32.80;702;04.08.32.460
12892;170229;32.80;703;04.08.32.460
12884;170220;32.80;704;04.08.32.460
12896;170222;32.80;705;04.08.32.460
12888;170226;32.80;706;04.08.32.460
12876;170226;32.80;707;04.08.32.460
12908;170225;32.80;708;04.08.32.471
12900;170229;32.80;709;04.08.32.471
12896;170229;32.80;710;04.08.32.471
12932;170224;32.80;711;04.08.32.471
12912;170224;32.80;712;04.08.32.471
12904;170222;32.80;713;04.08.32.471
12884;170226;32.80;714;04.08.32.471
12896;170231;32.80;715;04.08.32.471
12884;170224;32.80;716;04.08.32.471
12872;170232;32.80;717;04.08.32.471
12900;170231;32.80;718;04.08.32.471
12916;170241;32.80;719;04.08.32.471
12908;170234;32.80;720;04.08.32.471
12892;170230;32.80;721;04.08.32.472
12884;170234;32.80;722;04.08.32.483
12896;170237;32.80;723;04.08.32.483
12892;170245;32.80;724;04.08.32.483
12880;170245;32.80;725;04.08.32.571
12904;170239;32.80;726;04.08.32.571
12900;170235;32.80;727;04.08.32.571
12860;170236;32.80;728;04.08.32.571
12900;170240;32.80;729;04.08.32.571
12896;170239;32.80;730;04.08.32.582
12892;170241;32.80;731;04.08.32.582
12908;170240;32.80;732;04.08.32.582
12884;170250;32.80;733;04.08.32.582
12928;170239;32.80;734;04.08.32.582
12880;170246;32.80;735;04.08.32.582
12892;170239;32.80;736;04.08.32.582
12892;170242;32.80;737;04.08.32.582
12908;170245;32.80;738;04.08.32.582
12876;170254;32.80;739;04.08.32.593
12908;170246;32.80;740;04.08.32.593
12900;170248;32.80;741;04.08.32.593
12904;170249;32.80;742;04.08.32.604
12912;170250;32.80;743;04.08.32.604
12900;170250;32.80;744;04.08.32.604
12900;170252;32.80;745;04.08.32.604
12892;170254;32.80;746;04.08.32.604
12904;170255;32.80;747;04.08.32.615
12904;170256;32.80;748;04.08.32.615
12884;170259;32.80;749;04.08.32.615
12896;170251;32.80;750;04.08.32.692
12904;170260;32.80;751;04.08.32.692
12940;170263;32.80;752;04.08.32.703
12900;170261;32.80;753;04.08.32.703
12880;170254;32.80;754;04.08.32.703
12860;170250;32.80;755;04.08.32.703
12884;170257;32.80;756;04.08.32.703
12904;170261;32.80;757;04.08.32.703
12896;170267;32.80;758;04.08.32.703
12912;170259;32.80;759;04.08.32.703
12896;170263;32.80;760;04.08.32.703
12888;170266;32.80;761;04.08.32.703
12888;170261;32.80;762;04.08.32.703
12864;170257;32.80;763;04.08.32.703
12888;170261;32.80;764;04.08.32.714
12872;170265;32.80;765;04.08.32.714
12920;170271;32.80;766;04.08.32.714
12888;170262;32.80;767;04.08.32.714
12888;170267;32.80;768;04.08.32.714
12884;170267;32.80;769;04.08.32.714
12912;170274;32.80;770;04.08.32.714
12900;170268;32.80;771;04.08.32.714
12904;170276;32.80;772;04.08.32.714
12908;170286;32.80;773;04.08.32.714
12928;170270;32.80;774;04.08.32.714
12912;170279;32.84;775;04.08.32.834
12928;170276;32.84;776;04.08.32.834
12868;170273;32.84;777;04.08.32.834
12876;170278;32.84;778;04.08.32.834
12896;170280;32.84;779;04.08.32.834
12912;170277;32.84;780;04.08.32.834
12896;170283;32.84;781;04.08.32.834
12912;170292;32.84;782;04.08.32.834
12896;170286;32.84;783;04.08.32.834
12908;170281;32.84;784;04.08.32.834
12912;170288;32.84;785;04.08.32.834
12860;170283;32.84;786;04.08.32.845
12912;170287;32.84;787;04.08.32.845
12892;170285;32.84;788;04.08.32.845
12880;170289;32.84;789;04.08.32.845
12896;170286;32.84;790;04.08.32.845
12888;170279;32.84;791;04.08.32.845
12888;170281;32.84;792;04.08.32.845
12908;170272;32.84;793;04.08.32.845
12904;170266;32.84;794;04.08.32.845
12884;170262;32.84;795;04.08.32.845
12900;170252;32.84;796;04.08.32.845
12920;170256;32.84;797;04.08.32.845
12884;170242;32.84;798;04.08.32.856
12908;170256;32.84;799;04.08.32.856
12904;170244;32.84;800;04.08.32.966
12884;170243;32.84;801;04.08.32.966
12888;170232;32.84;802;04.08.32.966
12908;170226;32.84;803;04.08.32.966
12876;170233;32.84;804;04.08.32.966
12920;170226;32.84;805;04.08.32.966
12880;170226;32.84;806;04.08.32.966
12892;170223;32.84;807;04.08.32.977
12912;170213;32.84;808;04.08.32.977
12912;170219;32.84;809;04.08.32.977
12876;170211;32.84;810;04.08.32.977
12904;170205;32.84;811;04.08.32.977
12872;170212;32.84;812;04.08.32.977
12872;170213;32.84;813;04.08.32.977
12884;170212;32.84;814;04.08.32.977
12888;170202;32.84;815;04.08.32.977
12920;170208;32.84;816;04.08.32.977
12900;170210;32.84;817;04.08.32.977
12888;170202;32.84;818;04.08.32.977
12860;170209;32.84;819;04.08.32.977
12884;170199;32.84;820;04.08.32.988
12916;170200;32.84;821;04.08.32.988
12908;170206;32.84;822;04.08.32.988
12876;170210;32.84;823;04.08.32.988
12884;170200;32.84;824;04.08.32.988
12876;170211;32.80;825;04.08.33.076
12896;170209;32.80;826;04.08.33.076
12904;170203;32.80;827;04.08.33.076
12904;170209;32.80;828;04.08.33.076
12920;170198;32.80;829;04.08.33.087
12884;170205;32.80;830;04.08.33.087
12880;170204;32.80;831;04.08.33.087
12908;170200;32.80;832;04.08.33.087
12888;170203;32.80;833;04.08.33.087
12892;170193;32.80;834;04.08.33.087
12888;170201;32.80;835;04.08.33.087
12860;170197;32.80;836;04.08.33.087
12884;170195;32.80;837;04.08.33.098
12908;170206;32.80;838;04.08.33.098
12896;170209;32.80;839;04.08.33.098
12892;170196;32.80;840;04.08.33.098
12892;170201;32.80;841;04.08.33.098
12896;170206;32.80;842;04.08.33.098
12884;170202;32.80;843;04.08.33.098
12896;170201;32.80;844;04.08.33.098
12892;170203;32.80;845;04.08.33.098
12884;170202;32.80;846;04.08.33.098
12916;170207;32.80;847;04.08.33.098
12892;170205;32.80;848;04.08.33.098
12904;170210;32.80;849;04.08.33.098
12880;170202;32.80;850;04.08.33.207
12904;170198;32.80;851;04.08.33.207
12920;170208;32.80;852;04.08.33.207
12900;170207;32.80;853;04.08.33.207
12944;170200;32.80;854;04.08.33.207
12880;170202;32.80;855;04.08.33.207
12880;170196;32.80;856;04.08.33.207
12884;170199;32.80;857;04.08.33.207
12888;170196;32.80;858;04.08.33.207
12904;170194;32.80;859;04.08.33.207
12896;170195;32.80;860;04.08.33.207
12892;170202;32.80;861;04.08.33.207
12896;170199;32.80;862;04.08.33.207
12872;170195;32.80;863;04.08.33.218
12912;170200;32.80;864;04.08.33.218
12928;170197;32.80;865;04.08.33.218
12892;170200;32.80;866;04.08.33.218
12904;170194;32.80;867;04.08.33.218
12876;170200;32.80;868;04.08.33.218
12900;170202;32.80;869;04.08.33.218
12892;170199;32.80;870;04.08.33.218
12896;170196;32.80;871;04.08.33.218
12892;170202;32.80;872;04.08.33.218
12920;170204;32.80;873;04.08.33.218
12912;170207;32.80;874;04.08.33.218
12892;170200;32.80;875;04.08.33.328
12884;170207;32.80;876;04.08.33.328
12892;170212;32.80;877;04.08.33.328
12888;170206;32.80;878;04.08.33.328
12884;170211;32.80;879;04.08.33.328
12912;170211;32.80;880;04.08.33.328
12860;170209;32.80;881;04.08.33.328
12868;170207;32.80;882;04.08.33.328
12888;170220;32.80;883;04.08.33.339
12912;170211;32.80;884;04.08.33.339
12896;170220;32.80;885;04.08.33.339
12900;170223;32.80;886;04.08.33.339
12884;170218;32.80;887;04.08.33.339
12908;170226;32.80;888;04.08.33.339
12900;170221;32.80;889;04.08.33.339
12888;170219;32.80;890;04.08.33.339
12904;170222;32.80;891;04.08.33.339
12892;170224;32.80;892;04.08.33.350
12896;170229;32.80;893;04.08.33.350
12904;170224;32.80;894;04.08.33.350
12904;170233;32.80;895;04.08.33.350
12936;170234;32.80;896;04.08.33.350
12908;170227;32.80;897;04.08.33.350
12896;170231;32.80;898;04.08.33.350
12928;170223;32.80;899;04.08.33.350
12884;170237;32.80;900;04.08.33.458
12900;170224;32.80;901;04.08.33.458
12884;170232;32.80;902;04.08.33.458
12904;170221;32.80;903;04.08.33.458
12904;170240;32.80;904;04.08.33.469
12892;170234;32.80;905;04.08.33.469
12912;170234;32.80;906;04.08.33.469
12888;170236;32.80;907;04.08.33.469
12884;170234;32.80;908;04.08.33.469
12928;170240;32.80;909;04.08.33.469
12888;170235;32.80;910;04.08.33.469
12908;170233;32.80;911;04.08.33.469
12904;170243;32.80;912;04.08.33.469
12912;170239;32.80;913;04.08.33.469
12892;170241;32.80;914;04.08.33.469
12912;170241;32.80;915;04.08.33.469
12904;170238;32.80;916;04.08.33.480
12876;170243;32.80;917;04.08.33.480
12876;170241;32.80;918;04.08.33.480
12944;170248;32.80;919;04.08.33.480
12888;170242;32.80;920;04.08.33.480
12896;170251;32.80;921;04.08.33.480
12880;170248;32.80;922;04.08.33.480
12888;170248;32.80;923;04.08.33.480
12904;170247;32.80;924;04.08.33.480
12876;170254;32.80;925;04.08.33.579
12916;170254;32.80;926;04.08.33.579
12896;170252;32.80;927;04.08.33.579
12884;170260;32.80;928;04.08.33.579
12884;170250;32.80;929;04.08.33.579
12872;170257;32.80;930;04.08.33.579
12896;170255;32.80;931;04.08.33.579
12928;170264;32.80;932;04.08.33.579
12888;170259;32.80;933;04.08.33.590
12888;170258;32.80;934;04.08.33.590
12896;170254;32.80;935;04.08.33.590
12896;170260;32.80;936;04.08.33.590
12912;170264;32.80;937;04.08.33.590
12888;170271;32.80;938;04.08.33.590
12896;170264;32.80;939;04.08.33.590
12876;170265;32.80;940;04.08.33.590
12896;170269;32.80;941;04.08.33.590
12904;170264;32.80;942;04.08.33.590
12892;170263;32.80;943;04.08.33.590
12900;170275;32.80;944;04.08.33.590
12880;170276;32.80;945;04.08.33.601
12900;170270;32.80;946;04.08.33.601
12900;170270;32.80;947;04.08.33.601
12892;170269;32.80;948;04.08.33.601
12904;170267;32.80;949;04.08.33.601
12860;170263;32.80;950;04.08.33.700
12888;170262;32.80;951;04.08.33.700
12912;170258;32.80;952;04.08.33.700
12884;170263;32.80;953;04.08.33.700
12876;170239;32.80;954;04.08.33.700
12904;170250;32.80;955;04.08.33.700
12892;170246;32.80;956;04.08.33.700
12864;170237;32.80;957;04.08.33.700
12888;170242;32.80;958;04.08.33.700
12924;170231;32.80;959;04.08.33.700
12880;170226;32.80;960;04.08.33.711
12900;170233;32.80;961;04.08.33.711
12868;170229;32.80;962;04.08.33.711
12928;170223;32.80;963;04.08.33.711
12912;170221;32.80;964;04.08.33.711
12928;170221;32.80;965;04.08.33.711
12892;170217;32.80;966;04.08.33.711
12896;170212;32.80;967;04.08.33.711
12896;170212;32.80;968;04.08.33.711
12896;170212;32.80;969;04.08.33.711
12884;170206;32.80;970;04.08.33.711
12916;170210;32.80;971;04.08.33.711
12916;170208;32.80;972;04.08.33.711
12880;170209;32.80;973;04.08.33.722
12892;170204;32.80;974;04.08.33.722
12896;170205;32.80;975;04.08.33.820
12928;170202;32.80;976;04.08.33.820
12896;170203;32.80;977;04.08.33.820
12904;170196;32.80;978;04.08.33.820
12900;170196;32.80;979;04.08.33.820
12880;170204;32.80;980;04.08.33.820
12876;170202;32.80;981;04.08.33.831
12896;170204;32.80;982;04.08.33.831
12884;170204;32.80;983;04.08.33.831
12900;170194;32.80;984;04.08.33.831
12876;170194;32.80;985;04.08.33.831
12892;170195;32.80;986;04.08.33.831
12912;170196;32.80;987;04.08.33.831
12880;170202;32.80;988;04.08.33.831
12904;170198;32.80;989;04.08.33.831
12912;170190;32.80;990;04.08.33.831
12912;170191;32.80;991;04.08.33.831
12904;170191;32.80;992;04.08.33.831
12908;170196;32.80;993;04.08.33.831
12884;170190;32.80;994;04.08.33.842
12892;170201;32.80;995;04.08.33.842
12880;170200;32.80;996;04.08.33.842
12900;170194;32.80;997;04.08.33.842
12908;170199;32.80;998;04.08.33.842
12908;170200;32.80;999;04.08.33.842
12900;170196;32.80;000;04.08.33.951
12888;170198;32.80;001;04.08.33.951
12908;170194;32.80;002;04.08.33.962
12864;170199;32.80;003;04.08.33.962
12884;170200;32.80;004;04.08.33.962
12880;170187;32.80;005;04.08.33.962
12860;170198;32.80;006;04.08.33.962
12888;170207;32.80;007;04.08.33.962
12920;170194;32.80;008;04.08.33.962
12888;170192;32.80;009;04.08.33.962
12904;170199;32.80;010;04.08.33.962
12900;170195;32.80;011;04.08.33.962
12864;170203;32.80;012;04.08.33.962
12896;170199;32.80;013;04.08.33.962
12928;170193;32.80;014;04.08.33.973
12904;170197;32.80;015;04.08.33.973
12888;170195;32.80;016;04.08.33.973
12884;170188;32.80;017;04.08.33.973
12880;170190;32.80;018;04.08.33.973
12860;170192;32.80;019;04.08.33.973
12900;170195;32.80;020;04.08.33.973
12900;170198;32.80;021;04.08.33.973
12888;170197;32.80;022;04.08.33.973
12904;170201;32.80;023;04.08.33.973
12912;170192;32.80;024;04.08.33.973
12876;170192;32.80;025;04.08.34.094
12928;170197;32.80;026;04.08.34.094
12896;170197;32.80;027;04.08.34.094
12872;170189;32.80;028;04.08.34.094
12892;170193;32.80;029;04.08.34.094
12884;170197;32.80;030;04.08.34.094
12912;170200;32.80;031;04.08.34.094
12892;170198;32.80;032;04.08.34.094
12892;170193;32.80;033;04.08.34.094
12896;170197;32.80;034;04.08.34.094
12920;170193;32.80;035;04.08.34.105
12904;170195;32.80;036;04.08.34.105
12876;170196;32.80;037;04.08.34.105
12876;170189;32.80;038;04.08.34.105
12888;170201;32.80;039;04.08.34.105
12888;170200;32.80;040;04.08.34.105
12900;170207;32.80;041;04.08.34.105
12864;170210;32.80;042;04.08.34.105
12892;170206;32.80;043;04.08.34.105
12872;170208;32.80;044;04.08.34.105
12896;170208;32.80;045;04.08.34.105
12896;170205;32.80;046;04.08.34.105
12912;170206;32.80;047;04.08.34.116
12912;170210;32.80;048;04.08.34.116
12932;170206;32.80;049;04.08.34.116
12896;170212;32.80;050;04.08.34.204
12916;170213;32.80;051;04.08.34.204
12896;170216;32.80;052;04.08.34.204
12884;170207;32.80;053;04.08.34.204
12888;170219;32.80;054;04.08.34.204
12892;170221;32.80;055;04.08.34.204
12916;170219;32.80;056;04.08.34.204
12860;170222;32.80;057;04.08.34.204
12904;170224;32.80;058;04.08.34.214
12892;170224;32.80;059;04.08.34.214
12888;170222;32.80;060;04.08.34.214
12904;170227;32.80;061;04.08.34.214
12900;170225;32.80;062;04.08.34.214
12896;170224;32.80;063;04.08.34.225
12892;170222;32.80;064;04.08.34.225
12896;170223;32.80;065;04.08.34.225
12872;170226;32.80;066;04.08.34.225
12908;170219;32.80;067;04.08.34.225
12880;170225;32.80;068;04.08.34.225
12860;170222;32.80;069;04.08.34.225
12876;170231;32.80;070;04.08.34.225
12912;170231;32.80;071;04.08.34.225
12860;170234;32.80;072;04.08.34.225
12864;170233;32.80;073;04.08.34.225
12900;170231;32.80;074;04.08.34.225
12896;170234;32.80;075;04.08.34.324
12884;170235;32.80;076;04.08.34.324
12888;170234;32.80;077;04.08.34.335
12900;170234;32.80;078;04.08.34.335
12888;170233;32.80;079;04.08.34.335
12900;170235;32.80;080;04.08.34.335
12884;170242;32.80;081;04.08.34.335
12880;170243;32.80;082;04.08.34.335
12904;170238;32.80;083;04.08.34.335
12912;170245;32.80;084;04.08.34.335
12884;170240;32.80;085;04.08.34.335
12900;170246;32.80;086;04.08.34.335
12876;170246;32.80;087;04.08.34.335
12868;170251;32.80;088;04.08.34.335
12896;170245;32.80;089;04.08.34.335
12892;170248;32.80;090;04.08.34.335
12900;170247;32.80;091;04.08.34.346
12876;170250;32.80;092;04.08.34.346
12916;170255;32.80;093;04.08.34.346
12908;170251;32.80;094;04.08.34.346
12872;170258;32.80;095;04.08.34.346
12904;170255;32.80;096;04.08.34.346
12884;170257;32.80;097;04.08.34.346
12904;170251;32.80;098;04.08.34.346
12960;170258;32.80;099;04.08.34.346
12880;170258;32.80;100;04.08.34.456
12904;170257;32.80;101;04.08.34.456
12928;170254;32.80;102;04.08.34.456
12896;170248;32.80;103;04.08.34.456
12904;170247;32.80;104;04.08.34.456
12880;170242;32.80;105;04.08.34.456
12892;170233;32.80;106;04.08.34.456
12884;170236;32.80;107;04.08.34.456
12880;170231;32.80;108;04.08.34.456
12932;170225;32.80;109;04.08.34.456
12888;170222;32.80;110;04.08.34.456
12860;170213;32.80;111;04.08.34.456
12860;170210;32.80;112;04.08.34.467
12888;170213;32.80;113;04.08.34.467
12876;170213;32.80;114;04.08.34.467
12860;170209;32.80;115;04.08.34.467
12892;170202;32.80;116;04.08.34.467
12884;170195;32.80;117;04.08.34.467
12876;170200;32.80;118;04.08.34.467
12884;170199;32.80;119;04.08.34.467
12876;170189;32.80;120;04.08.34.467
12888;170193;32.80;121;04.08.34.467
12896;170190;32.80;122;04.08.34.467
12900;170193;32.80;123;04.08.34.467
12884;170185;32.80;124;04.08.34.467
12928;170189;32.80;125;04.08.34.577
12888;170186;32.80;126;04.08.34.577
12884;170188;32.80;127;04.08.34.577
12904;170183;32.80;128;04.08.34.577
12884;170184;32.80;129;04.08.34.577
12880;170184;32.80;130;04.08.34.577
12896;170194;32.80;131;04.08.34.577
12892;170191;32.80;132;04.08.34.577
12892;170180;32.80;133;04.08.34.588
12872;170190;32.80;134;04.08.34.588
12876;170187;32.80;135;04.08.34.588
12900;170177;32.80;136;04.08.34.588
12892;170184;32.80;137;04.08.34.588
12888;170180;32.80;138;04.08.34.588
12904;170183;32.80;139;04.08.34.588
12908;170180;32.80;140;04.08.34.588
12912;170174;32.80;141;04.08.34.588
12896;170178;32.80;142;04.08.34.588
12852;170165;32.80;143;04.08.34.588
12904;170173;32.80;144;04.08.34.588
12892;170165;32.80;145;04.08.34.588
12908;170180;32.80;146;04.08.34.599
12892;170176;32.80;147;04.08.34.599
12908;170180;32.80;148;04.08.34.599
12900;170185;32.80;149;04.08.34.599
12860;170180;32.80;150;04.08.34.698
12876;170180;32.80;151;04.08.34.698
12888;170180;32.80;152;04.08.34.698
12876;170177;32.80;153;04.08.34.698
12896;170180;32.80;154;04.08.34.698
12900;170179;32.80;155;04.08.34.698
12896;170178;32.80;156;04.08.34.708
12912;170180;32.80;157;04.08.34.708
12904;170176;32.80;158;04.08.34.708
12892;170185;32.80;159;04.08.34.708
12884;170178;32.80;160;04.08.34.708
12900;170171;32.80;161;04.08.34.708
12900;170179;32.80;162;04.08.34.708
12880;170166;32.80;163;04.08.34.719
12904;170175;32.80;164;04.08.34.719
12888;170174;32.80;165;04.08.34.719
12892;170171;32.80;166;04.08.34.719
12888;170175;32.80;167;04.08.34.719
12892;170176;32.80;168;04.08.34.719
12908;170172;32.80;169;04.08.34.719
12928;170173;32.80;170;04.08.34.719
12896;170175;32.80;171;04.08.34.719
12888;170172;32.80;172;04.08.34.719
12900;170185;32.80;173;04.08.34.730
12908;170168;32.80;174;04.08.34.730
12892;170172;32.80;175;04.08.34.818
12904;170167;32.80;176;04.08.34.818
12908;170171;32.80;177;04.08.34.829
12892;170183;32.80;178;04.08.34.829
12892;170163;32.80;179;04.08.34.829
12928;170171;32.80;180;04.08.34.829
12884;170167;32.80;181;04.08.34.829
12912;170174;32.80;182;04.08.34.829
12912;170168;32.80;183;04.08.34.829
12908;170176;32.80;184;04.08.34.829
12888;170177;32.80;185;04.08.34.829
12896;170175;32.80;186;04.08.34.829
12896;170176;32.80;187;04.08.34.829
12896;170181;32.80;188;04.08.34.829
12876;170175;32.80;189;04.08.34.829
12936;170188;32.80;190;04.08.34.840
12884;170178;32.80;191;04.08.34.840
12876;170181;32.80;192;04.08.34.840
12860;170190;32.80;193;04.08.34.840
12912;170182;32.80;194;04.08.34.840
12868;170180;32.80;195;04.08.34.840
12884;170185;32.80;196;04.08.34.840
12876;170188;32.80;197;04.08.34.840
12912;170186;32.80;198;04.08.34.840
12916;170185;32.80;199;04.08.34.840
12916;170189;32.80;200;04.08.34.954
12900;170194;32.80;201;04.08.34.954
12880;170194;32.80;202;04.08.34.954
12892;170190;32.80;203;04.08.34.954
12884;170191;32.80;204;04.08.34.954
12900;170193;32.80;205;04.08.34.954
12884;170188;32.80;206;04.08.34.954
12916;170191;32.80;207;04.08.34.954
12892;170184;32.80;208;04.08.34.954
12876;170199;32.80;209;04.08.34.954
12928;170192;32.80;210;04.08.34.954
12888;170192;32.80;211;04.08.34.954
12896;170204;32.80;212;04.08.34.954
12864;170200;32.80;213;04.08.34.954
12892;170199;32.80;214;04.08.34.955
12896;170197;32.80;215;04.08.34.955
12936;170198;32.80;216;04.08.34.955
12896;170200;32.80;217;04.08.34.966
12896;170199;32.80;218;04.08.34.966
12888;170191;32.80;219;04.08.34.966
12900;170198;32.80;220;04.08.34.966
12904;170208;32.80;221;04.08.34.966
12888;170202;32.80;222;04.08.34.966
12876;170195;32.80;223;04.08.34.966
12936;170202;32.80;224;04.08.34.966
12892;170205;32.80;225;04.08.35.076
12908;170206;32.80;226;04.08.35.086
12876;170205;32.80;227;04.08.35.086
12900;170202;32.80;228;04.08.35.086
12892;170209;32.80;229;04.08.35.086
12860;170203;32.80;230;04.08.35.086
12904;170205;32.80;231;04.08.35.086
12896;170210;32.80;232;04.08.35.086
12912;170210;32.80;233;04.08.35.086
12880;170208;32.80;234;04.08.35.086
12928;170214;32.80;235;04.08.35.086
12912;170210;32.80;236;04.08.35.086
12880;170216;32.80;237;04.08.35.086
12904;170216;32.80;238;04.08.35.097
12900;170216;32.80;239;04.08.35.097
12884;170219;32.80;240;04.08.35.097
12896;170211;32.80;241;04.08.35.097
12900;170214;32.80;242;04.08.35.097
12884;170224;32.80;243;04.08.35.097
12892;170229;32.80;244;04.08.35.097
12928;170221;32.80;245;04.08.35.097
12888;170225;32.80;246;04.08.35.097
12912;170222;32.80;247;04.08.35.097
12904;170222;32.80;248;04.08.35.097
12924;170228;32.80;249;04.08.35.097
12880;170221;32.80;250;04.08.35.229
12888;170219;32.80;251;04.08.35.229
12932;170229;32.80;252;04.08.35.229
12860;170209;32.80;253;04.08.35.229
12912;170216;32.80;254;04.08.35.229
12888;170206;32.80;255;04.08.35.229
12920;170203;32.80;256;04.08.35.229
12900;170193;32.80;257;04.08.35.229
12904;170200;32.80;258;04.08.35.240
12900;170193;32.80;259;04.08.35.240
12880;170195;32.80;260;04.08.35.240
12900;170191;32.80;261;04.08.35.240
12896;170182;32.80;262;04.08.35.240
12900;170186;32.80;263;04.08.35.240
12900;170173;32.80;264;04.08.35.240
12880;170175;32.80;265;04.08.35.240
12884;170171;32.80;266;04.08.35.240
12860;170169;32.80;267;04.08.35.251
12904;170169;32.80;268;04.08.35.251
12876;170171;32.80;269;04.08.35.251
12896;170166;32.80;270;04.08.35.251
12892;170164;32.80;271;04.08.35.251
12904;170158;32.80;272;04.08.35.251
12892;170156;32.80;273;04.08.35.251
12900;170159;32.80;274;04.08.35.251
12876;170159;32.84;275;04.08.35.328
12892;170152;32.84;276;04.08.35.328
12900;170156;32.84;277;04.08.35.328
12908;170153;32.84;278;04.08.35.328
12908;170153;32.84;279;04.08.35.328
12908;170149;32.84;280;04.08.35.328
12912;170152;32.84;281;04.08.35.339
12884;170142;32.84;282;04.08.35.339
12908;170146;32.84;283;04.08.35.361
12916;170139;32.84;284;04.08.35.361
12896;170144;32.84;285;04.08.35.361
12900;170140;32.84;286;04.08.35.361
12912;170149;32.84;287;04.08.35.361
12896;170143;32.84;288;04.08.35.361
12884;170144;32.84;289;04.08.35.372
12880;170139;32.84;290;04.08.35.372
12888;170134;32.84;291;04.08.35.372
12912;170140;32.84;292;04.08.35.372
12888;170137;32.84;293;04.08.35.372
12908;170139;32.84;294;04.08.35.372
12884;170141;32.84;295;04.08.35.372
12916;170133;32.84;296;04.08.35.372
12908;170142;32.84;297;04.08.35.372
12888;170144;32.84;298;04.08.35.372
12896;170143;32.84;299;04.08.35.372
12884;170137;32.84;300;04.08.35.448
12888;170138;32.84;301;04.08.35.459
12912;170143;32.84;302;04.08.35.459
12868;170137;32.84;303;04.08.35.459
12900;170137;32.84;304;04.08.35.459
12896;170141;32.84;305;04.08.35.459
12880;170144;32.84;306;04.08.35.459
12928;170133;32.84;307;04.08.35.459
12884;170135;32.84;308;04.08.35.459
12896;170136;32.84;309;04.08.35.459
12896;170141;32.84;310;04.08.35.459
12884;170145;32.84;311;04.08.35.459
12904;170137;32.84;312;04.08.35.459
12884;170142;32.84;313;04.08.35.459
12912;170135;32.84;314;04.08.35.470
12896;170146;32.84;315;04.08.35.470
12904;170137;32.84;316;04.08.35.470
12928;170132;32.84;317;04.08.35.470
12912;170138;32.84;318;04.08.35.470
12868;170136;32.84;319;04.08.35.470
12892;170138;32.84;320;04.08.35.470
12880;170132;32.84;321;04.08.35.470
12892;170128;32.84;322;04.08.35.470
12912;170126;32.84;323;04.08.35.470
12924;170134;32.84;324;04.08.35.470
12892;170126;32.84;325;04.08.35.602
12860;170136;32.84;326;04.08.35.602
12896;170135;32.84;327;04.08.35.602
12888;170131;32.84;328;04.08.35.602
12904;170136;32.84;329;04.08.35.602
12880;170132;32.84;330;04.08.35.602
12888;170139;32.84;331;04.08.35.602
12888;170137;32.84;332;04.08.35.602
12888;170143;32.84;333;04.08.35.613
12904;170147;32.84;334;04.08.35.613
12880;170132;32.84;335;04.08.35.613
12892;170139;32.84;336;04.08.35.613
12880;170144;32.84;337;04.08.35.613
12892;170142;32.84;338;04.08.35.613
12908;170144;32.84;339;04.08.35.613
12900;170149;32.84;340;04.08.35.613
12888;170154;32.84;341;04.08.35.613
12876;170154;32.84;342;04.08.35.624
12876;170153;32.84;343;04.08.35.624
12860;170150;32.84;344;04.08.35.624
12880;170150;32.84;345;04.08.35.624
12880;170159;32.84;346;04.08.35.624
12892;170164;32.84;347;04.08.35.624
12868;170155;32.84;348;04.08.35.624
12872;170156;32.84;349;04.08.35.624
12896;170166;32.84;350;04.08.35.700
12908;170152;32.84;351;04.08.35.700
12888;170161;32.84;352;04.08.35.700
12884;170162;32.84;353;04.08.35.700
12876;170160;32.84;354;04.08.35.700
12908;170158;32.84;355;04.08.35.700
12904;170165;32.84;356;04.08.35.700
12892;170158;32.84;357;04.08.35.700
12892;170169;32.84;358;04.08.35.722
12888;170161;32.84;359;04.08.35.722
12892;170166;32.84;360;04.08.35.722
12900;170168;32.84;361;04.08.35.722
12892;170171;32.84;362;04.08.35.722
12876;170177;32.84;363;04.08.35.722
12912;170164;32.84;364;04.08.35.722
12872;170170;32.84;365;04.08.35.733
12872;170167;32.84;366;04.08.35.733
12908;170173;32.84;367;04.08.35.733
12876;170185;32.84;368;04.08.35.733
12912;170172;32.84;369;04.08.35.733
12892;170177;32.84;370;04.08.35.733
12928;170175;32.84;371;04.08.35.733
12892;170181;32.84;372;04.08.35.733
12904;170177;32.84;373;04.08.35.733
12912;170180;32.84;374;04.08.35.733
12896;170184;32.80;375;04.08.35.821
12892;170188;32.80;376;04.08.35.821
12892;170185;32.80;377;04.08.35.821
12928;170182;32.80;378;04.08.35.821
12888;170186;32.80;379;04.08.35.832
12920;170187;32.80;380;04.08.35.832
12912;170187;32.80;381;04.08.35.832
12912;170190;32.80;382;04.08.35.832
12880;170193;32.80;383;04.08.35.832
12876;170189;32.80;384;04.08.35.832
12896;170187;32.80;385;04.08.35.832
12896;170193;32.80;386;04.08.35.832
12876;170198;32.80;387;04.08.35.832
12896;170197;32.80;388;04.08.35.832
12892;170203;32.80;389;04.08.35.832
12892;170194;32.80;390;04.08.35.832
12876;170203;32.80;391;04.08.35.832
12908;170200;32.80;392;04.08.35.865
12892;170195;32.80;393;04.08.35.865
12896;170200;32.80;394;04.08.35.865
12928;170189;32.80;395;04.08.35.865
12908;170202;32.80;396;04.08.35.876
12892;170198;32.80;397;04.08.35.876
12892;170202;32.80;398;04.08.35.876
12896;170210;32.80;399;04.08.35.876
12896;170204;32.80;400;04.08.35.953
12904;170202;32.80;401;04.08.35.953
12888;170214;32.80;402;04.08.35.953
12912;170212;32.80;403;04.08.35.953
12888;170198;32.80;404;04.08.35.953
12908;170204;32.80;405;04.08.35.953
12884;170202;32.80;406;04.08.35.953
12916;170196;32.80;407;04.08.35.953
12884;170196;32.80;408;04.08.35.953
12904;170190;32.80;409;04.08.35.953
12892;170190;32.80;410;04.08.35.953
12884;170181;32.80;411;04.08.35.953
12900;170172;32.80;412;04.08.35.953
12876;170175;32.80;413;04.08.35.964
12872;170169;32.80;414;04.08.35.964
12908;170174;32.80;415;04.08.35.964
12900;170169;32.80;416;04.08.35.964
12884;170165;32.80;417;04.08.35.964
12872;170155;32.80;418;04.08.35.964
12876;170158;32.80;419;04.08.35.964
12876;170158;32.80;420;04.08.35.964
12876;170157;32.80;421;04.08.35.964
12876;170142;32.80;422;04.08.35.964
12880;170152;32.80;423;04.08.35.964
12884;170145;32.80;424;04.08.35.964
12920;170146;32.80;425;04.08.36.084
12904;170145;32.80;426;04.08.36.084
12884;170147;32.80;427;04.08.36.084
12884;170138;32.80;428;04.08.36.084
12876;170145;32.80;429;04.08.36.084
12896;170140;32.80;430;04.08.36.084
12872;170136;32.80;431;04.08.36.084
12900;170140;32.80;432;04.08.36.084
12864;170142;32.80;433;04.08.36.084
12896;170130;32.80;434;04.08.36.095
12916;170140;32.80;435;04.08.36.095
12908;170132;32.80;436;04.08.36.095
12888;170132;32.80;437;04.08.36.095
12880;170133;32.80;438;04.08.36.095
12880;170138;32.80;439;04.08.36.095
12896;170138;32.80;440;04.08.36.095
12888;170138;32.80;441;04.08.36.095
12884;170139;32.80;442;04.08.36.095
12880;170135;32.80;443;04.08.36.095
12896;170131;32.80;444;04.08.36.095
12868;170133;32.80;445;04.08.36.095
12884;170142;32.80;446;04.08.36.095
12868;170134;32.80;447;04.08.36.106
12876;170127;32.80;448;04.08.36.106
12900;170133;32.80;449;04.08.36.106
12884;170135;32.80;450;04.08.36.216
12900;170129;32.80;451;04.08.36.216
12876;170125;32.80;452;04.08.36.216
12876;170145;32.80;453;04.08.36.216
12892;170142;32.80;454;04.08.36.216
12892;170139;32.80;455;04.08.36.227
12880;170135;32.80;456;04.08.36.227
