gsr; bvp; skt; skt2; Cont; time
12904;170485;34.00;950;03.47.59.955
12884;170492;34.00;951;03.47.59.955
12916;170496;34.00;952;03.47.59.955
12872;170496;34.00;953;03.47.59.955
12884;170498;34.00;954;03.47.59.955
12928;170511;34.00;955;03.47.59.955
12880;170511;34.00;956;03.47.59.955
12920;170510;34.00;957;03.47.59.955
12904;170514;34.00;958;03.47.59.955
12896;170521;34.00;959;03.47.59.966
12892;170532;34.00;960;03.47.59.966
12928;170529;34.00;961;03.47.59.966
12896;170531;34.00;962;03.47.59.966
12860;170531;34.00;963;03.47.59.966
12896;170531;34.00;964;03.47.59.966
12892;170541;34.00;965;03.47.59.966
12916;170541;34.00;966;03.47.59.966
12896;170543;34.00;967;03.47.59.966
12900;170541;34.00;968;03.47.59.966
12928;170549;34.00;969;03.47.59.966
12900;170544;34.00;970;03.47.59.966
12876;170545;34.00;971;03.47.59.966
12896;170533;34.00;972;03.47.59.977
12896;170544;34.00;973;03.47.59.977
12884;170542;34.00;974;03.47.59.977
12908;170544;34.00;975;03.48.00.086
12932;170546;34.00;976;03.48.00.086
12912;170555;34.00;977;03.48.00.086
12900;170552;34.00;978;03.48.00.086
12928;170551;34.00;979;03.48.00.086
12912;170551;34.00;980;03.48.00.097
12932;170551;34.00;981;03.48.00.097
12920;170555;34.00;982;03.48.00.097
12908;170556;34.00;983;03.48.00.097
12900;170553;34.00;984;03.48.00.097
12892;170558;34.00;985;03.48.00.097
12924;170567;34.00;986;03.48.00.097
12904;170562;34.00;987;03.48.00.097
12892;170566;34.00;988;03.48.00.097
12892;170568;34.00;989;03.48.00.097
12912;170565;34.00;990;03.48.00.097
12944;170580;34.00;991;03.48.00.097
12896;170577;34.00;992;03.48.00.108
12892;170590;34.00;993;03.48.00.108
12912;170597;34.00;994;03.48.00.108
12908;170595;34.00;995;03.48.00.108
12892;170603;34.00;996;03.48.00.108
12916;170605;34.00;997;03.48.00.108
12876;170608;34.00;998;03.48.00.108
12920;170613;34.00;999;03.48.00.108
12880;170620;34.00;000;03.48.00.218
12936;170624;34.00;001;03.48.00.229
12896;170635;34.00;002;03.48.00.229
12912;170635;34.00;003;03.48.00.229
12884;170638;34.00;004;03.48.00.229
12908;170633;34.00;005;03.48.00.229
12932;170642;34.00;006;03.48.00.229
12916;170642;34.00;007;03.48.00.229
12904;170645;34.00;008;03.48.00.229
12900;170649;34.00;009;03.48.00.229
12892;170663;34.00;010;03.48.00.229
12900;170655;34.00;011;03.48.00.229
12900;170663;34.00;012;03.48.00.229
12880;170665;34.00;013;03.48.00.240
12884;170672;34.00;014;03.48.00.240
12924;170662;34.00;015;03.48.00.240
12896;170674;34.00;016;03.48.00.240
12896;170667;34.00;017;03.48.00.240
12884;170678;34.00;018;03.48.00.240
12900;170672;34.00;019;03.48.00.240
12904;170678;34.00;020;03.48.00.240
12892;170675;34.00;021;03.48.00.240
12924;170678;34.00;022;03.48.00.240
12892;170677;34.00;023;03.48.00.240
12900;170680;34.00;024;03.48.00.240
12892;170671;34.00;025;03.48.00.338
12928;170684;34.00;026;03.48.00.338
12924;170684;34.00;027;03.48.00.338
12896;170685;34.00;028;03.48.00.338
12920;170687;34.00;029;03.48.00.338
12896;170689;34.00;030;03.48.00.338
12900;170683;34.00;031;03.48.00.338
12900;170674;34.00;032;03.48.00.338
12888;170684;34.00;033;03.48.00.349
12880;170682;34.00;034;03.48.00.349
12900;170685;34.00;035;03.48.00.349
12876;170678;34.00;036;03.48.00.349
12928;170682;34.00;037;03.48.00.349
12908;170679;34.00;038;03.48.00.349
12928;170680;34.00;039;03.48.00.349
12892;170683;34.00;040;03.48.00.349
12920;170676;34.00;041;03.48.00.349
12904;170677;34.00;042;03.48.00.360
12884;170690;34.00;043;03.48.00.360
12928;170686;34.00;044;03.48.00.360
12904;170685;34.00;045;03.48.00.360
12916;170684;34.00;046;03.48.00.360
12900;170696;34.00;047;03.48.00.360
12900;170695;34.00;048;03.48.00.360
12904;170693;34.00;049;03.48.00.360
12892;170693;34.00;050;03.48.00.459
12928;170690;34.00;051;03.48.00.459
12908;170697;34.00;052;03.48.00.459
12912;170691;34.00;053;03.48.00.459
12908;170693;34.00;054;03.48.00.459
12900;170703;34.00;055;03.48.00.459
12884;170693;34.00;056;03.48.00.459
12888;170701;34.00;057;03.48.00.470
12928;170697;34.00;058;03.48.00.470
12896;170701;34.00;059;03.48.00.470
12904;170704;34.00;060;03.48.00.470
12924;170707;34.00;061;03.48.00.470
12884;170699;34.00;062;03.48.00.470
12912;170711;34.00;063;03.48.00.470
12900;170710;34.00;064;03.48.00.470
12928;170709;34.00;065;03.48.00.470
12912;170707;34.00;066;03.48.00.470
12900;170709;34.00;067;03.48.00.470
12896;170713;34.00;068;03.48.00.470
12928;170713;34.00;069;03.48.00.481
12928;170712;34.00;070;03.48.00.481
12896;170719;34.00;071;03.48.00.481
12912;170723;34.00;072;03.48.00.481
12924;170719;34.00;073;03.48.00.481
12944;170718;34.00;074;03.48.00.481
12912;170725;34.00;075;03.48.00.579
12932;170725;34.00;076;03.48.00.579
12892;170730;34.00;077;03.48.00.590
12924;170730;34.00;078;03.48.00.590
12896;170726;34.00;079;03.48.00.590
12900;170723;34.00;080;03.48.00.590
12900;170733;34.00;081;03.48.00.590
12924;170729;34.00;082;03.48.00.590
12884;170736;34.00;083;03.48.00.590
12892;170735;34.00;084;03.48.00.590
12888;170738;34.00;085;03.48.00.590
12900;170726;34.00;086;03.48.00.590
12916;170743;34.00;087;03.48.00.590
12892;170734;34.00;088;03.48.00.590
12928;170743;34.00;089;03.48.00.590
12928;170741;34.00;090;03.48.00.601
12888;170742;34.00;091;03.48.00.601
12912;170736;34.00;092;03.48.00.601
12912;170740;34.00;093;03.48.00.601
12892;170738;34.00;094;03.48.00.601
12928;170742;34.00;095;03.48.00.601
12912;170743;34.00;096;03.48.00.601
12904;170742;34.00;097;03.48.00.601
12884;170739;34.00;098;03.48.00.601
12924;170747;34.00;099;03.48.00.601
12908;170745;34.00;100;03.48.00.720
12900;170742;34.00;101;03.48.00.720
12928;170746;34.00;102;03.48.00.720
12888;170756;34.00;103;03.48.00.720
12900;170743;34.00;104;03.48.00.720
12888;170750;34.00;105;03.48.00.720
12896;170753;34.00;106;03.48.00.720
12904;170755;34.00;107;03.48.00.720
12912;170748;34.00;108;03.48.00.720
12900;170745;34.00;109;03.48.00.720
12924;170756;34.00;110;03.48.00.731
12928;170752;34.00;111;03.48.00.731
12916;170750;34.00;112;03.48.00.731
12900;170751;34.00;113;03.48.00.731
12896;170748;34.00;114;03.48.00.731
12924;170750;34.00;115;03.48.00.731
12892;170751;34.00;116;03.48.00.731
12896;170749;34.00;117;03.48.00.731
12944;170746;34.00;118;03.48.00.731
12916;170751;34.00;119;03.48.00.731
12928;170752;34.00;120;03.48.00.731
12904;170744;34.00;121;03.48.00.731
12928;170747;34.00;122;03.48.00.743
12892;170750;34.00;123;03.48.00.743
12908;170754;34.00;124;03.48.00.743
12892;170747;34.00;125;03.48.00.831
12908;170756;34.00;126;03.48.00.831
12896;170750;34.00;127;03.48.00.831
12896;170752;34.00;128;03.48.00.831
12900;170749;34.00;129;03.48.00.831
12896;170752;34.00;130;03.48.00.831
12892;170747;34.00;131;03.48.00.831
12924;170754;34.00;132;03.48.00.831
12884;170741;34.00;133;03.48.00.842
12924;170743;34.00;134;03.48.00.842
12892;170736;34.00;135;03.48.00.842
12904;170736;34.00;136;03.48.00.842
12908;170729;34.00;137;03.48.00.842
12904;170729;34.00;138;03.48.00.842
12928;170717;34.00;139;03.48.00.842
12892;170720;34.00;140;03.48.00.853
12928;170718;34.00;141;03.48.00.853
12920;170710;34.00;142;03.48.00.853
12896;170705;34.00;143;03.48.00.853
12904;170699;34.00;144;03.48.00.853
12872;170693;34.00;145;03.48.00.853
12904;170691;34.00;146;03.48.00.853
12904;170683;34.00;147;03.48.00.853
12888;170683;34.00;148;03.48.00.853
12928;170674;34.00;149;03.48.00.853
12908;170670;33.96;150;03.48.00.952
12912;170656;33.96;151;03.48.00.952
12884;170665;33.96;152;03.48.00.952
12884;170660;33.96;153;03.48.00.952
12896;170658;33.96;154;03.48.00.963
12900;170655;33.96;155;03.48.00.963
12884;170652;33.96;156;03.48.00.963
12916;170649;33.96;157;03.48.00.963
12904;170655;33.96;158;03.48.00.963
12916;170652;33.96;159;03.48.00.963
12892;170650;33.96;160;03.48.00.963
12912;170648;33.96;161;03.48.00.963
12900;170649;33.96;162;03.48.00.963
12908;170650;33.96;163;03.48.00.963
12908;170652;33.96;164;03.48.00.963
12880;170651;33.96;165;03.48.00.963
12928;170646;33.96;166;03.48.00.963
12884;170651;33.96;167;03.48.00.974
12876;170655;33.96;168;03.48.00.974
12928;170648;33.96;169;03.48.00.974
12916;170647;33.96;170;03.48.00.974
12884;170661;33.96;171;03.48.00.974
12892;170653;33.96;172;03.48.00.974
12912;170644;33.96;173;03.48.00.974
12904;170656;33.96;174;03.48.00.974
12920;170648;33.96;175;03.48.01.084
12916;170655;33.96;176;03.48.01.084
12872;170647;33.96;177;03.48.01.084
12884;170661;33.96;178;03.48.01.084
12900;170657;33.96;179;03.48.01.084
12904;170651;33.96;180;03.48.01.084
12896;170658;33.96;181;03.48.01.084
12896;170661;33.96;182;03.48.01.084
12884;170661;33.96;183;03.48.01.084
12892;170663;33.96;184;03.48.01.084
12900;170663;33.96;185;03.48.01.084
12892;170666;33.96;186;03.48.01.084
12892;170665;33.96;187;03.48.01.084
12904;170666;33.96;188;03.48.01.094
12892;170665;33.96;189;03.48.01.094
12884;170664;33.96;190;03.48.01.094
12892;170660;33.96;191;03.48.01.094
12900;170667;33.96;192;03.48.01.094
12904;170662;33.96;193;03.48.01.094
12892;170660;33.96;194;03.48.01.094
12888;170661;33.96;195;03.48.01.094
12896;170664;33.96;196;03.48.01.094
12928;170664;33.96;197;03.48.01.094
12912;170661;33.96;198;03.48.01.094
12908;170658;33.96;199;03.48.01.094
12904;170666;34.00;200;03.48.01.215
12904;170650;34.00;201;03.48.01.215
12912;170655;34.00;202;03.48.01.215
12900;170661;34.00;203;03.48.01.215
12904;170664;34.00;204;03.48.01.215
12912;170659;34.00;205;03.48.01.215
12900;170652;34.00;206;03.48.01.215
12928;170657;34.00;207;03.48.01.215
12904;170655;34.00;208;03.48.01.215
12916;170658;34.00;209;03.48.01.226
12936;170655;34.00;210;03.48.01.226
12892;170656;34.00;211;03.48.01.226
12928;170652;34.00;212;03.48.01.226
12900;170650;34.00;213;03.48.01.226
12932;170666;34.00;214;03.48.01.226
12912;170658;34.00;215;03.48.01.226
12876;170661;34.00;216;03.48.01.226
12928;170660;34.00;217;03.48.01.226
12892;170655;34.00;218;03.48.01.226
12908;170661;34.00;219;03.48.01.226
12876;170654;34.00;220;03.48.01.226
12912;170659;34.00;221;03.48.01.226
12892;170662;34.00;222;03.48.01.226
12892;170662;34.00;223;03.48.01.237
12908;170662;34.00;224;03.48.01.237
12916;170661;34.00;225;03.48.01.357
12924;170664;34.00;226;03.48.01.357
12944;170669;34.00;227;03.48.01.357
12904;170666;34.00;228;03.48.01.357
12896;170669;34.00;229;03.48.01.357
12912;170662;34.00;230;03.48.01.369
12900;170667;34.00;231;03.48.01.369
12888;170679;34.00;232;03.48.01.369
12900;170669;34.00;233;03.48.01.369
12900;170660;34.00;234;03.48.01.369
12908;170662;34.00;235;03.48.01.369
12904;170663;34.00;236;03.48.01.369
12912;170670;34.00;237;03.48.01.369
12880;170666;34.00;238;03.48.01.369
12900;170672;34.00;239;03.48.01.369
12908;170670;34.00;240;03.48.01.369
12884;170676;34.00;241;03.48.01.369
12900;170673;34.00;242;03.48.01.369
12896;170671;34.00;243;03.48.01.380
12912;170669;34.00;244;03.48.01.380
12916;170670;34.00;245;03.48.01.380
12912;170664;34.00;246;03.48.01.380
12892;170672;34.00;247;03.48.01.380
12896;170671;34.00;248;03.48.01.380
12932;170672;34.00;249;03.48.01.380
12892;170673;33.96;250;03.48.01.457
12896;170677;33.96;251;03.48.01.457
12896;170668;33.96;252;03.48.01.457
12896;170670;33.96;253;03.48.01.467
12888;170672;33.96;254;03.48.01.467
12908;170673;33.96;255;03.48.01.467
12928;170666;33.96;256;03.48.01.467
12900;170675;33.96;257;03.48.01.467
12920;170670;33.96;258;03.48.01.478
12916;170677;33.96;259;03.48.01.489
12892;170674;33.96;260;03.48.01.489
12888;170681;33.96;261;03.48.01.489
12892;170684;33.96;262;03.48.01.489
12916;170677;33.96;263;03.48.01.489
12892;170674;33.96;264;03.48.01.489
12944;170683;33.96;265;03.48.01.489
12888;170682;33.96;266;03.48.01.489
12884;170680;33.96;267;03.48.01.489
12928;170681;33.96;268;03.48.01.489
12876;170692;33.96;269;03.48.01.489
12912;170686;33.96;270;03.48.01.489
12900;170684;33.96;271;03.48.01.489
12912;170690;33.96;272;03.48.01.489
12920;170682;33.96;273;03.48.01.500
12916;170693;33.96;274;03.48.01.500
12892;170689;33.96;275;03.48.01.588
12880;170697;33.96;276;03.48.01.588
12888;170690;33.96;277;03.48.01.588
12912;170687;33.96;278;03.48.01.588
12884;170696;33.96;279;03.48.01.588
12904;170692;33.96;280;03.48.01.588
12892;170693;33.96;281;03.48.01.588
12896;170693;33.96;282;03.48.01.588
12928;170705;33.96;283;03.48.01.588
12888;170706;33.96;284;03.48.01.588
12912;170700;33.96;285;03.48.01.588
12904;170705;33.96;286;03.48.01.588
12892;170701;33.96;287;03.48.01.599
12896;170712;33.96;288;03.48.01.599
12896;170703;33.96;289;03.48.01.599
12928;170704;33.96;290;03.48.01.599
12884;170708;33.96;291;03.48.01.599
12904;170715;33.96;292;03.48.01.621
12928;170707;33.96;293;03.48.01.621
12888;170712;33.96;294;03.48.01.621
12900;170709;33.96;295;03.48.01.621
12896;170712;33.96;296;03.48.01.621
12892;170717;33.96;297;03.48.01.621
12920;170716;33.96;298;03.48.01.621
12912;170713;33.96;299;03.48.01.621
12928;170715;34.00;300;03.48.01.709
12928;170722;34.00;301;03.48.01.709
12892;170717;34.00;302;03.48.01.709
12908;170719;34.00;303;03.48.01.709
12884;170712;34.00;304;03.48.01.709
12912;170712;34.00;305;03.48.01.709
12888;170712;34.00;306;03.48.01.709
12900;170715;34.00;307;03.48.01.709
12912;170715;34.00;308;03.48.01.720
12928;170715;34.00;309;03.48.01.720
12928;170709;34.00;310;03.48.01.720
12884;170705;34.00;311;03.48.01.720
12880;170707;34.00;312;03.48.01.720
12908;170694;34.00;313;03.48.01.720
12920;170702;34.00;314;03.48.01.720
12896;170694;34.00;315;03.48.01.720
12900;170690;34.00;316;03.48.01.720
12932;170689;34.00;317;03.48.01.720
12912;170676;34.00;318;03.48.01.720
12936;170680;34.00;319;03.48.01.720
12896;170677;34.00;320;03.48.01.720
12896;170677;34.00;321;03.48.01.731
12896;170677;34.00;322;03.48.01.731
12888;170668;34.00;323;03.48.01.731
12904;170677;34.00;324;03.48.01.731
12928;170668;34.00;325;03.48.01.851
12912;170661;34.00;326;03.48.01.851
12920;170664;34.00;327;03.48.01.851
12876;170669;34.00;328;03.48.01.862
12896;170664;34.00;329;03.48.01.862
12896;170659;34.00;330;03.48.01.862
12908;170655;34.00;331;03.48.01.862
12908;170658;34.00;332;03.48.01.862
12896;170659;34.00;333;03.48.01.862
12888;170660;34.00;334;03.48.01.862
12908;170647;34.00;335;03.48.01.862
12908;170658;34.00;336;03.48.01.862
12896;170655;34.00;337;03.48.01.862
12892;170651;34.00;338;03.48.01.862
12884;170653;34.00;339;03.48.01.862
12916;170651;34.00;340;03.48.01.862
12872;170653;34.00;341;03.48.01.873
12920;170653;34.00;342;03.48.01.873
12908;170648;34.00;343;03.48.01.873
12912;170639;34.00;344;03.48.01.873
12900;170637;34.00;345;03.48.01.873
12928;170638;34.00;346;03.48.01.873
12896;170629;34.00;347;03.48.01.873
12900;170636;34.00;348;03.48.01.873
12944;170634;34.00;349;03.48.01.873
12892;170632;34.00;350;03.48.01.961
12860;170629;34.00;351;03.48.01.961
12908;170631;34.00;352;03.48.01.961
12916;170630;34.00;353;03.48.01.961
12928;170636;34.00;354;03.48.01.961
12912;170621;34.00;355;03.48.01.961
12928;170633;34.00;356;03.48.01.961
12928;170630;34.00;357;03.48.01.961
12920;170626;34.00;358;03.48.01.994
12892;170630;34.00;359;03.48.01.994
12892;170624;34.00;360;03.48.01.994
12936;170631;34.00;361;03.48.01.994
12936;170624;34.00;362;03.48.01.994
12928;170626;34.00;363;03.48.01.994
12896;170622;34.00;364;03.48.01.994
12900;170627;34.00;365;03.48.01.994
12892;170620;34.00;366;03.48.01.994
12900;170623;34.00;367;03.48.01.994
12916;170628;34.00;368;03.48.01.994
12904;170624;34.00;369;03.48.01.994
12900;170630;34.00;370;03.48.01.994
12876;170625;34.00;371;03.48.02.005
12892;170621;34.00;372;03.48.02.005
12928;170623;34.00;373;03.48.02.005
12928;170614;34.00;374;03.48.02.005
12888;170622;34.00;375;03.48.02.082
12892;170617;34.00;376;03.48.02.082
12888;170615;34.00;377;03.48.02.082
12900;170615;34.00;378;03.48.02.082
12892;170605;34.00;379;03.48.02.082
12916;170611;34.00;380;03.48.02.082
12904;170611;34.00;381;03.48.02.082
12896;170611;34.00;382;03.48.02.082
12880;170620;34.00;383;03.48.02.093
12912;170612;34.00;384;03.48.02.093
12892;170616;34.00;385;03.48.02.093
12892;170613;34.00;386;03.48.02.093
12900;170620;34.00;387;03.48.02.093
12904;170613;34.00;388;03.48.02.093
12900;170617;34.00;389;03.48.02.093
12912;170618;34.00;390;03.48.02.093
12928;170625;34.00;391;03.48.02.093
12900;170615;34.00;392;03.48.02.093
12896;170632;34.00;393;03.48.02.104
12892;170623;34.00;394;03.48.02.104
12884;170621;34.00;395;03.48.02.104
12904;170622;34.00;396;03.48.02.104
12892;170625;34.00;397;03.48.02.104
12900;170632;34.00;398;03.48.02.104
12924;170621;34.00;399;03.48.02.104
12900;170633;33.96;400;03.48.02.213
12892;170625;33.96;401;03.48.02.213
12908;170626;33.96;402;03.48.02.213
12912;170625;33.96;403;03.48.02.213
12888;170628;33.96;404;03.48.02.213
12892;170628;33.96;405;03.48.02.213
12916;170631;33.96;406;03.48.02.224
12932;170635;33.96;407;03.48.02.224
12928;170636;33.96;408;03.48.02.224
12920;170635;33.96;409;03.48.02.224
12884;170634;33.96;410;03.48.02.224
12904;170634;33.96;411;03.48.02.224
12908;170642;33.96;412;03.48.02.224
12860;170639;33.96;413;03.48.02.224
12888;170637;33.96;414;03.48.02.224
12908;170636;33.96;415;03.48.02.224
12892;170646;33.96;416;03.48.02.224
12892;170641;33.96;417;03.48.02.224
12888;170648;33.96;418;03.48.02.235
12892;170648;33.96;419;03.48.02.235
12888;170646;33.96;420;03.48.02.235
12908;170649;33.96;421;03.48.02.235
12928;170653;33.96;422;03.48.02.235
12916;170640;33.96;423;03.48.02.235
12900;170646;33.96;424;03.48.02.235
12892;170658;33.96;425;03.48.02.345
12912;170651;33.96;426;03.48.02.345
12900;170647;33.96;427;03.48.02.356
12892;170660;33.96;428;03.48.02.356
12928;170659;33.96;429;03.48.02.356
12908;170659;33.96;430;03.48.02.356
12876;170656;33.96;431;03.48.02.356
12900;170659;33.96;432;03.48.02.356
12892;170660;33.96;433;03.48.02.356
12884;170662;33.96;434;03.48.02.356
12876;170661;33.96;435;03.48.02.356
12916;170661;33.96;436;03.48.02.356
12908;170668;33.96;437;03.48.02.356
12884;170671;33.96;438;03.48.02.356
12908;170667;33.96;439;03.48.02.356
12904;170669;33.96;440;03.48.02.367
12904;170669;33.96;441;03.48.02.367
12896;170672;33.96;442;03.48.02.367
12912;170673;33.96;443;03.48.02.367
12868;170661;33.96;444;03.48.02.367
12904;170663;33.96;445;03.48.02.367
12908;170670;33.96;446;03.48.02.367
12928;170675;33.96;447;03.48.02.367
12912;170671;33.96;448;03.48.02.367
12908;170673;33.96;449;03.48.02.367
12884;170673;33.96;450;03.48.02.466
12892;170667;33.96;451;03.48.02.466
12888;170666;33.96;452;03.48.02.466
12876;170665;33.96;453;03.48.02.466
12888;170667;33.96;454;03.48.02.466
12892;170663;33.96;455;03.48.02.466
12912;170660;33.96;456;03.48.02.466
12884;170662;33.96;457;03.48.02.466
12900;170662;33.96;458;03.48.02.487
12896;170671;33.96;459;03.48.02.487
12912;170672;33.96;460;03.48.02.487
12904;170665;33.96;461;03.48.02.487
12900;170658;33.96;462;03.48.02.487
12924;170660;33.96;463;03.48.02.487
12924;170657;33.96;464;03.48.02.487
12864;170662;33.96;465;03.48.02.487
12900;170665;33.96;466;03.48.02.487
12928;170669;33.96;467;03.48.02.487
12896;170662;33.96;468;03.48.02.487
12912;170672;33.96;469;03.48.02.498
12912;170659;33.96;470;03.48.02.498
12912;170672;33.96;471;03.48.02.498
12888;170668;33.96;472;03.48.02.498
12912;170672;33.96;473;03.48.02.498
12928;170663;33.96;474;03.48.02.498
12908;170667;33.96;475;03.48.02.597
12900;170675;33.96;476;03.48.02.597
12928;170680;33.96;477;03.48.02.597
12892;170665;33.96;478;03.48.02.597
12916;170675;33.96;479;03.48.02.597
12908;170669;33.96;480;03.48.02.597
12876;170675;33.96;481;03.48.02.597
12904;170673;33.96;482;03.48.02.597
12872;170680;33.96;483;03.48.02.619
12916;170670;33.96;484;03.48.02.619
12904;170675;33.96;485;03.48.02.619
12920;170676;33.96;486;03.48.02.619
12896;170674;33.96;487;03.48.02.619
12880;170682;33.96;488;03.48.02.619
12908;170678;33.96;489;03.48.02.619
12908;170668;33.96;490;03.48.02.619
12884;170671;33.96;491;03.48.02.630
12900;170679;33.96;492;03.48.02.630
12908;170673;33.96;493;03.48.02.630
12892;170670;33.96;494;03.48.02.630
12888;170666;33.96;495;03.48.02.630
12912;170657;33.96;496;03.48.02.630
12920;170662;33.96;497;03.48.02.630
12892;170644;33.96;498;03.48.02.630
12932;170648;33.96;499;03.48.02.630
12896;170640;33.96;500;03.48.02.707
12892;170636;33.96;501;03.48.02.707
12880;170640;33.96;502;03.48.02.707
12896;170631;33.96;503;03.48.02.707
12880;170623;33.96;504;03.48.02.718
12884;170613;33.96;505;03.48.02.718
12880;170618;33.96;506;03.48.02.718
12896;170613;33.96;507;03.48.02.718
12896;170601;33.96;508;03.48.02.718
12916;170591;33.96;509;03.48.02.718
12892;170597;33.96;510;03.48.02.718
12864;170586;33.96;511;03.48.02.718
12876;170577;33.96;512;03.48.02.718
12916;170570;33.96;513;03.48.02.718
12888;170568;33.96;514;03.48.02.718
12928;170573;33.96;515;03.48.02.718
12912;170558;33.96;516;03.48.02.718
12860;170561;33.96;517;03.48.02.718
12888;170558;33.96;518;03.48.02.729
12904;170553;33.96;519;03.48.02.729
12916;170550;33.96;520;03.48.02.729
12892;170558;33.96;521;03.48.02.729
12888;170554;33.96;522;03.48.02.729
12916;170544;33.96;523;03.48.02.729
12912;170548;33.96;524;03.48.02.729
12912;170554;33.96;525;03.48.02.850
12904;170551;33.96;526;03.48.02.850
12904;170544;33.96;527;03.48.02.850
12896;170548;33.96;528;03.48.02.850
12916;170543;33.96;529;03.48.02.850
12884;170538;33.96;530;03.48.02.850
12928;170547;33.96;531;03.48.02.850
12908;170541;33.96;532;03.48.02.850
12904;170543;33.96;533;03.48.02.850
12920;170542;33.96;534;03.48.02.850
12880;170532;33.96;535;03.48.02.850
12896;170545;33.96;536;03.48.02.850
12876;170543;33.96;537;03.48.02.860
12880;170542;33.96;538;03.48.02.860
12892;170542;33.96;539;03.48.02.860
12912;170538;33.96;540;03.48.02.860
12900;170548;33.96;541;03.48.02.860
12896;170553;33.96;542;03.48.02.860
12928;170550;33.96;543;03.48.02.860
12904;170552;33.96;544;03.48.02.860
12888;170545;33.96;545;03.48.02.860
12928;170557;33.96;546;03.48.02.860
12944;170554;33.96;547;03.48.02.860
12884;170545;33.96;548;03.48.02.860
12900;170553;33.96;549;03.48.02.860
12884;170556;33.96;550;03.48.02.981
12896;170556;33.96;551;03.48.02.981
12904;170563;33.96;552;03.48.02.981
12932;170552;33.96;553;03.48.02.981
12900;170564;33.96;554;03.48.02.981
12908;170557;33.96;555;03.48.02.981
12916;170559;33.96;556;03.48.02.981
12900;170556;33.96;557;03.48.02.981
12908;170561;33.96;558;03.48.02.981
12904;170567;33.96;559;03.48.02.981
12900;170557;33.96;560;03.48.02.992
12908;170562;33.96;561;03.48.02.992
12904;170560;33.96;562;03.48.02.992
12884;170563;33.96;563;03.48.02.992
12896;170556;33.96;564;03.48.02.992
12928;170564;33.96;565;03.48.02.992
12888;170563;33.96;566;03.48.02.992
12904;170562;33.96;567;03.48.02.992
12896;170566;33.96;568;03.48.02.992
12892;170561;33.96;569;03.48.02.992
12912;170565;33.96;570;03.48.02.992
12904;170566;33.96;571;03.48.02.992
12888;170567;33.96;572;03.48.02.992
12892;170564;33.96;573;03.48.03.003
12916;170568;33.96;574;03.48.03.003
12900;170562;33.96;575;03.48.03.080
12912;170565;33.96;576;03.48.03.080
12928;170567;33.96;577;03.48.03.080
12920;170570;33.96;578;03.48.03.080
12912;170565;33.96;579;03.48.03.080
12900;170565;33.96;580;03.48.03.080
12892;170562;33.96;581;03.48.03.091
12904;170568;33.96;582;03.48.03.091
12892;170565;33.96;583;03.48.03.091
12904;170564;33.96;584;03.48.03.091
12900;170568;33.96;585;03.48.03.091
12888;170568;33.96;586;03.48.03.091
12912;170567;33.96;587;03.48.03.091
12920;170559;33.96;588;03.48.03.091
12912;170566;33.96;589;03.48.03.091
12908;170566;33.96;590;03.48.03.091
12900;170571;33.96;591;03.48.03.091
12896;170562;33.96;592;03.48.03.113
12920;170570;33.96;593;03.48.03.113
12896;170569;33.96;594;03.48.03.113
12908;170569;33.96;595;03.48.03.113
12912;170565;33.96;596;03.48.03.113
12904;170567;33.96;597;03.48.03.113
12892;170577;33.96;598;03.48.03.124
12928;170575;33.96;599;03.48.03.124
12900;170577;34.00;600;03.48.03.201
12916;170582;34.00;601;03.48.03.201
12900;170581;34.00;602;03.48.03.201
12900;170585;34.00;603;03.48.03.212
12892;170585;34.00;604;03.48.03.212
12876;170586;34.00;605;03.48.03.212
12892;170587;34.00;606;03.48.03.212
12924;170586;34.00;607;03.48.03.212
12892;170580;34.00;608;03.48.03.212
12888;170593;34.00;609;03.48.03.212
12884;170595;34.00;610;03.48.03.212
12892;170599;34.00;611;03.48.03.212
12912;170604;34.00;612;03.48.03.212
12928;170597;34.00;613;03.48.03.212
12892;170603;34.00;614;03.48.03.212
12904;170605;34.00;615;03.48.03.212
12892;170598;34.00;616;03.48.03.223
12920;170602;34.00;617;03.48.03.223
12892;170609;34.00;618;03.48.03.223
12908;170616;34.00;619;03.48.03.223
12892;170610;34.00;620;03.48.03.223
12900;170620;34.00;621;03.48.03.223
12916;170619;34.00;622;03.48.03.223
12884;170611;34.00;623;03.48.03.223
12916;170614;34.00;624;03.48.03.223
12900;170619;34.00;625;03.48.03.343
12928;170621;34.00;626;03.48.03.343
12900;170620;34.00;627;03.48.03.343
12884;170621;34.00;628;03.48.03.343
12928;170631;34.00;629;03.48.03.343
12904;170626;34.00;630;03.48.03.343
12912;170626;34.00;631;03.48.03.343
12916;170629;34.00;632;03.48.03.343
12896;170632;34.00;633;03.48.03.343
12892;170634;34.00;634;03.48.03.343
12908;170634;34.00;635;03.48.03.343
12892;170631;34.00;636;03.48.03.343
12928;170637;34.00;637;03.48.03.354
12892;170640;34.00;638;03.48.03.354
12912;170634;34.00;639;03.48.03.354
12928;170648;34.00;640;03.48.03.354
12936;170647;34.00;641;03.48.03.354
12896;170647;34.00;642;03.48.03.354
12896;170647;34.00;643;03.48.03.354
12908;170649;34.00;644;03.48.03.354
12912;170647;34.00;645;03.48.03.354
12892;170654;34.00;646;03.48.03.354
12904;170648;34.00;647;03.48.03.354
12928;170653;34.00;648;03.48.03.354
12904;170652;34.00;649;03.48.03.365
12924;170647;33.96;650;03.48.03.475
12928;170646;33.96;651;03.48.03.475
12928;170660;33.96;652;03.48.03.475
12872;170658;33.96;653;03.48.03.475
12912;170664;33.96;654;03.48.03.475
12920;170658;33.96;655;03.48.03.475
12920;170659;33.96;656;03.48.03.475
12900;170664;33.96;657;03.48.03.475
12872;170661;33.96;658;03.48.03.486
12892;170666;33.96;659;03.48.03.486
12928;170665;33.96;660;03.48.03.486
12912;170672;33.96;661;03.48.03.486
12884;170672;33.96;662;03.48.03.486
12900;170673;33.96;663;03.48.03.486
12892;170663;33.96;664;03.48.03.486
12904;170674;33.96;665;03.48.03.486
12892;170670;33.96;666;03.48.03.486
12876;170666;33.96;667;03.48.03.486
12904;170672;33.96;668;03.48.03.486
12932;170685;33.96;669;03.48.03.486
12928;170676;33.96;670;03.48.03.486
12908;170681;33.96;671;03.48.03.497
12920;170674;33.96;672;03.48.03.497
12900;170681;33.96;673;03.48.03.497
12904;170678;33.96;674;03.48.03.497
12880;170677;33.96;675;03.48.03.607
12888;170675;33.96;676;03.48.03.607
12892;170676;33.96;677;03.48.03.607
12912;170684;33.96;678;03.48.03.607
12908;170680;33.96;679;03.48.03.617
12884;170667;33.96;680;03.48.03.617
12904;170661;33.96;681;03.48.03.617
12916;170674;33.96;682;03.48.03.617
12892;170664;33.96;683;03.48.03.617
12884;170658;33.96;684;03.48.03.617
12908;170650;33.96;685;03.48.03.617
12924;170645;33.96;686;03.48.03.617
12900;170645;33.96;687;03.48.03.617
12900;170632;33.96;688;03.48.03.617
12912;170633;33.96;689;03.48.03.617
12900;170625;33.96;690;03.48.03.617
12912;170622;33.96;691;03.48.03.617
12908;170619;33.96;692;03.48.03.628
12908;170612;33.96;693;03.48.03.628
12884;170616;33.96;694;03.48.03.628
12900;170607;33.96;695;03.48.03.628
12916;170599;33.96;696;03.48.03.628
12916;170600;33.96;697;03.48.03.628
12912;170588;33.96;698;03.48.03.628
12892;170587;33.96;699;03.48.03.628
12884;170571;33.96;700;03.48.03.705
12908;170569;33.96;701;03.48.03.716
12912;170568;33.96;702;03.48.03.716
12892;170566;33.96;703;03.48.03.716
12904;170570;33.96;704;03.48.03.716
12888;170567;33.96;705;03.48.03.716
12904;170558;33.96;706;03.48.03.716
12944;170568;33.96;707;03.48.03.716
12928;170558;33.96;708;03.48.03.716
12904;170560;33.96;709;03.48.03.716
12892;170562;33.96;710;03.48.03.716
12916;170557;33.96;711;03.48.03.716
12904;170561;33.96;712;03.48.03.716
12892;170563;33.96;713;03.48.03.716
12924;170560;33.96;714;03.48.03.727
12880;170559;33.96;715;03.48.03.727
12916;170561;33.96;716;03.48.03.727
12896;170569;33.96;717;03.48.03.727
12904;170560;33.96;718;03.48.03.727
12904;170564;33.96;719;03.48.03.727
12896;170554;33.96;720;03.48.03.727
12928;170560;33.96;721;03.48.03.727
12912;170561;33.96;722;03.48.03.727
12928;170555;33.96;723;03.48.03.727
12904;170558;33.96;724;03.48.03.727
12896;170555;33.96;725;03.48.03.837
12876;170555;33.96;726;03.48.03.837
12908;170558;33.96;727;03.48.03.837
12888;170554;33.96;728;03.48.03.837
12920;170560;33.96;729;03.48.03.837
12896;170558;33.96;730;03.48.03.837
12916;170552;33.96;731;03.48.03.837
12892;170561;33.96;732;03.48.03.837
12900;170550;33.96;733;03.48.03.837
12916;170554;33.96;734;03.48.03.837
12892;170549;33.96;735;03.48.03.848
12908;170551;33.96;736;03.48.03.848
12896;170550;33.96;737;03.48.03.848
12900;170558;33.96;738;03.48.03.848
12904;170563;33.96;739;03.48.03.848
12892;170552;33.96;740;03.48.03.848
12880;170550;33.96;741;03.48.03.848
12916;170554;33.96;742;03.48.03.848
12860;170553;33.96;743;03.48.03.848
12916;170555;33.96;744;03.48.03.848
12872;170553;33.96;745;03.48.03.848
12916;170552;33.96;746;03.48.03.848
12872;170557;33.96;747;03.48.03.848
12908;170554;33.96;748;03.48.03.859
12928;170549;33.96;749;03.48.03.859
12924;170549;33.96;750;03.48.03.969
12928;170544;33.96;751;03.48.03.969
12908;170550;33.96;752;03.48.03.969
12892;170554;33.96;753;03.48.03.969
12928;170547;33.96;754;03.48.03.969
12892;170539;33.96;755;03.48.03.969
12928;170549;33.96;756;03.48.03.980
12944;170550;33.96;757;03.48.03.980
12920;170558;33.96;758;03.48.03.980
12904;170555;33.96;759;03.48.03.980
12936;170546;33.96;760;03.48.03.980
12892;170548;33.96;761;03.48.03.980
12896;170558;33.96;762;03.48.03.980
12916;170550;33.96;763;03.48.03.980
12908;170547;33.96;764;03.48.03.980
12888;170553;33.96;765;03.48.03.980
12900;170555;33.96;766;03.48.03.980
12904;170560;33.96;767;03.48.03.980
12916;170562;33.96;768;03.48.03.980
12884;170554;33.96;769;03.48.03.990
12900;170555;33.96;770;03.48.03.990
12928;170551;33.96;771;03.48.03.990
12912;170553;33.96;772;03.48.03.990
12884;170559;33.96;773;03.48.03.990
12880;170559;33.96;774;03.48.03.990
12880;170561;33.96;775;03.48.04.078
12908;170566;33.96;776;03.48.04.078
12920;170562;33.96;777;03.48.04.078
12884;170567;33.96;778;03.48.04.089
12908;170571;33.96;779;03.48.04.089
12876;170567;33.96;780;03.48.04.089
12892;170573;33.96;781;03.48.04.089
12908;170570;33.96;782;03.48.04.089
12900;170575;33.96;783;03.48.04.089
12900;170570;33.96;784;03.48.04.089
12920;170565;33.96;785;03.48.04.100
12892;170569;33.96;786;03.48.04.100
12892;170561;33.96;787;03.48.04.100
12892;170565;33.96;788;03.48.04.100
12892;170571;33.96;789;03.48.04.100
12892;170572;33.96;790;03.48.04.100
12892;170570;33.96;791;03.48.04.100
12928;170569;33.96;792;03.48.04.100
12916;170567;33.96;793;03.48.04.100
12908;170574;33.96;794;03.48.04.100
12876;170570;33.96;795;03.48.04.100
12904;170572;33.96;796;03.48.04.100
12892;170573;33.96;797;03.48.04.100
12908;170569;33.96;798;03.48.04.111
12896;170574;33.96;799;03.48.04.111
12892;170570;34.00;800;03.48.04.210
12872;170578;34.00;801;03.48.04.210
12892;170577;34.00;802;03.48.04.210
12928;170581;34.00;803;03.48.04.210
12904;170580;34.00;804;03.48.04.210
12916;170572;34.00;805;03.48.04.210
12892;170574;34.00;806;03.48.04.210
12912;170578;34.00;807;03.48.04.210
12888;170579;34.00;808;03.48.04.221
12884;170582;34.00;809;03.48.04.221
12920;170580;34.00;810;03.48.04.221
12888;170582;34.00;811;03.48.04.221
12908;170583;34.00;812;03.48.04.221
12904;170579;34.00;813;03.48.04.221
12912;170582;34.00;814;03.48.04.221
12908;170579;34.00;815;03.48.04.221
12912;170589;34.00;816;03.48.04.221
12892;170587;34.00;817;03.48.04.243
12916;170592;34.00;818;03.48.04.243
12880;170589;34.00;819;03.48.04.243
12900;170590;34.00;820;03.48.04.243
12896;170590;34.00;821;03.48.04.243
12904;170593;34.00;822;03.48.04.243
12904;170591;34.00;823;03.48.04.243
12928;170592;34.00;824;03.48.04.243
12892;170600;34.00;825;03.48.04.331
12892;170592;34.00;826;03.48.04.331
12900;170592;34.00;827;03.48.04.331
12892;170582;34.00;828;03.48.04.331
12892;170595;34.00;829;03.48.04.331
12916;170600;34.00;830;03.48.04.331
12892;170602;34.00;831;03.48.04.331
12900;170600;34.00;832;03.48.04.331
12888;170608;34.00;833;03.48.04.331
12928;170604;34.00;834;03.48.04.342
12896;170598;34.00;835;03.48.04.342
12884;170607;34.00;836;03.48.04.342
12904;170610;34.00;837;03.48.04.342
12880;170608;34.00;838;03.48.04.342
12912;170613;34.00;839;03.48.04.342
12904;170618;34.00;840;03.48.04.342
12892;170624;34.00;841;03.48.04.342
12892;170615;34.00;842;03.48.04.342
12936;170622;34.00;843;03.48.04.342
12904;170621;34.00;844;03.48.04.342
12912;170614;34.00;845;03.48.04.342
12892;170628;34.00;846;03.48.04.342
12920;170621;34.00;847;03.48.04.353
12876;170623;34.00;848;03.48.04.353
12908;170630;34.00;849;03.48.04.353
12912;170619;33.96;850;03.48.04.462
12896;170626;33.96;851;03.48.04.462
12896;170618;33.96;852;03.48.04.462
12900;170624;33.96;853;03.48.04.462
12884;170625;33.96;854;03.48.04.462
12896;170618;33.96;855;03.48.04.463
12888;170629;33.96;856;03.48.04.474
12860;170616;33.96;857;03.48.04.474
12876;170631;33.96;858;03.48.04.474
12896;170626;33.96;859;03.48.04.474
12900;170622;33.96;860;03.48.04.474
12876;170630;33.96;861;03.48.04.474
12860;170630;33.96;862;03.48.04.474
12912;170629;33.96;863;03.48.04.474
12896;170637;33.96;864;03.48.04.474
12900;170625;33.96;865;03.48.04.474
12884;170625;33.96;866;03.48.04.474
12896;170622;33.96;867;03.48.04.474
12912;170624;33.96;868;03.48.04.474
12904;170617;33.96;869;03.48.04.485
12908;170612;33.96;870;03.48.04.485
12900;170623;33.96;871;03.48.04.485
12932;170608;33.96;872;03.48.04.485
12904;170596;33.96;873;03.48.04.485
12916;170600;33.96;874;03.48.04.485
12884;170587;33.96;875;03.48.04.595
12912;170588;33.96;876;03.48.04.595
12908;170583;33.96;877;03.48.04.606
12884;170576;33.96;878;03.48.04.606
12888;170574;33.96;879;03.48.04.606
12912;170570;33.96;880;03.48.04.606
12896;170568;33.96;881;03.48.04.606
12908;170566;33.96;882;03.48.04.606
12896;170560;33.96;883;03.48.04.606
12892;170569;33.96;884;03.48.04.606
12928;170564;33.96;885;03.48.04.606
12920;170561;33.96;886;03.48.04.617
12908;170560;33.96;887;03.48.04.617
12892;170560;33.96;888;03.48.04.617
12896;170555;33.96;889;03.48.04.617
12904;170558;33.96;890;03.48.04.617
12880;170558;33.96;891;03.48.04.617
12896;170547;33.96;892;03.48.04.617
12892;170560;33.96;893;03.48.04.617
12900;170550;33.96;894;03.48.04.617
12912;170549;33.96;895;03.48.04.617
12896;170553;33.96;896;03.48.04.617
12892;170549;33.96;897;03.48.04.617
12872;170545;33.96;898;03.48.04.617
12932;170543;33.96;899;03.48.04.628
12900;170548;34.00;900;03.48.04.716
12936;170540;34.00;901;03.48.04.716
12912;170541;34.00;902;03.48.04.716
12920;170537;34.00;903;03.48.04.716
12880;170538;34.00;904;03.48.04.716
12928;170535;34.00;905;03.48.04.716
12892;170525;34.00;906;03.48.04.716
12904;170525;34.00;907;03.48.04.716
12908;170529;34.00;908;03.48.04.737
12896;170525;34.00;909;03.48.04.737
12904;170527;34.00;910;03.48.04.737
12904;170521;34.00;911;03.48.04.737
12896;170512;34.00;912;03.48.04.737
12924;170521;34.00;913;03.48.04.737
12916;170513;34.00;914;03.48.04.737
12908;170512;34.00;915;03.48.04.737
12908;170520;34.00;916;03.48.04.737
12892;170517;34.00;917;03.48.04.737
12912;170515;34.00;918;03.48.04.737
12916;170511;34.00;919;03.48.04.737
12880;170507;34.00;920;03.48.04.748
12928;170512;34.00;921;03.48.04.748
12928;170509;34.00;922;03.48.04.748
12916;170511;34.00;923;03.48.04.748
12904;170514;34.00;924;03.48.04.748
12916;170513;34.00;925;03.48.04.836
12928;170510;34.00;926;03.48.04.836
12916;170507;34.00;927;03.48.04.836
12904;170512;34.00;928;03.48.04.836
12892;170507;34.00;929;03.48.04.836
12884;170508;34.00;930;03.48.04.836
12936;170499;34.00;931;03.48.04.836
12876;170508;34.00;932;03.48.04.847
12912;170510;34.00;933;03.48.04.847
12908;170502;34.00;934;03.48.04.847
12896;170517;34.00;935;03.48.04.847
12916;170507;34.00;936;03.48.04.847
12908;170505;34.00;937;03.48.04.847
12900;170507;34.00;938;03.48.04.847
12904;170512;34.00;939;03.48.04.847
12900;170508;34.00;940;03.48.04.847
12912;170507;34.00;941;03.48.04.847
12892;170508;34.00;942;03.48.04.847
12932;170513;34.00;943;03.48.04.847
12916;170515;34.00;944;03.48.04.847
12908;170517;34.00;945;03.48.04.858
12908;170519;34.00;946;03.48.04.858
12916;170527;34.00;947;03.48.04.858
12904;170515;34.00;948;03.48.04.858
12908;170506;34.00;949;03.48.04.858
12944;170525;33.96;950;03.48.04.967
12920;170518;33.96;951;03.48.04.967
12920;170522;33.96;952;03.48.04.967
12892;170523;33.96;953;03.48.04.978
12908;170518;33.96;954;03.48.04.978
12924;170525;33.96;955;03.48.04.978
12912;170525;33.96;956;03.48.04.978
12936;170531;33.96;957;03.48.04.978
12912;170535;33.96;958;03.48.04.978
12892;170528;33.96;959;03.48.04.978
12912;170532;33.96;960;03.48.04.978
12892;170525;33.96;961;03.48.04.978
12876;170529;33.96;962;03.48.04.978
12888;170526;33.96;963;03.48.04.978
12888;170529;33.96;964;03.48.04.978
12912;170530;33.96;965;03.48.04.978
12884;170535;33.96;966;03.48.04.989
12912;170536;33.96;967;03.48.04.989
12904;170529;33.96;968;03.48.04.989
12904;170536;33.96;969;03.48.04.989
12892;170534;33.96;970;03.48.04.989
12916;170536;33.96;971;03.48.04.989
12896;170533;33.96;972;03.48.04.989
12924;170539;33.96;973;03.48.04.989
12896;170539;33.96;974;03.48.04.989
12876;170536;33.96;975;03.48.05.088
12904;170537;33.96;976;03.48.05.099
12904;170542;33.96;977;03.48.05.099
12904;170539;33.96;978;03.48.05.099
12876;170543;33.96;979;03.48.05.099
12904;170543;33.96;980;03.48.05.099
12896;170543;33.96;981;03.48.05.099
12892;170544;33.96;982;03.48.05.099
12900;170554;33.96;983;03.48.05.099
12896;170549;33.96;984;03.48.05.099
12928;170546;33.96;985;03.48.05.099
12936;170550;33.96;986;03.48.05.099
12892;170555;33.96;987;03.48.05.099
12904;170548;33.96;988;03.48.05.110
12892;170559;33.96;989;03.48.05.110
12912;170562;33.96;990;03.48.05.110
12892;170562;33.96;991;03.48.05.110
12884;170559;33.96;992;03.48.05.110
12924;170566;33.96;993;03.48.05.110
12900;170559;33.96;994;03.48.05.110
12920;170566;33.96;995;03.48.05.110
12920;170564;33.96;996;03.48.05.110
12896;170566;33.96;997;03.48.05.110
12908;170561;33.96;998;03.48.05.110
12928;170562;33.96;999;03.48.05.110
12868;170565;34.00;000;03.48.05.209
12892;170572;34.00;001;03.48.05.209
12928;170567;34.00;002;03.48.05.209
12916;170565;34.00;003;03.48.05.209
12908;170564;34.00;004;03.48.05.209
12912;170574;34.00;005;03.48.05.209
12888;170573;34.00;006;03.48.05.209
12892;170569;34.00;007;03.48.05.209
12900;170575;34.00;008;03.48.05.231
12924;170574;34.00;009;03.48.05.231
12876;170569;34.00;010;03.48.05.231
12892;170568;34.00;011;03.48.05.231
12936;170578;34.00;012;03.48.05.231
12932;170569;34.00;013;03.48.05.231
12928;170576;34.00;014;03.48.05.231
12928;170586;34.00;015;03.48.05.231
12928;170586;34.00;016;03.48.05.242
12928;170577;34.00;017;03.48.05.242
12892;170578;34.00;018;03.48.05.242
12896;170586;34.00;019;03.48.05.242
12896;170574;34.00;020;03.48.05.242
12912;170577;34.00;021;03.48.05.242
12904;170583;34.00;022;03.48.05.242
12920;170585;34.00;023;03.48.05.242
12916;170576;34.00;024;03.48.05.242
12888;170589;34.00;025;03.48.05.340
12876;170584;34.00;026;03.48.05.340
12896;170587;34.00;027;03.48.05.340
12908;170582;34.00;028;03.48.05.340
12904;170591;34.00;029;03.48.05.340
12892;170580;34.00;030;03.48.05.340
12904;170586;34.00;031;03.48.05.351
12884;170587;34.00;032;03.48.05.351
12900;170589;34.00;033;03.48.05.373
12908;170594;34.00;034;03.48.05.373
12916;170594;34.00;035;03.48.05.373
12896;170585;34.00;036;03.48.05.373
12904;170587;34.00;037;03.48.05.373
12892;170594;34.00;038;03.48.05.384
12912;170589;34.00;039;03.48.05.384
12896;170593;34.00;040;03.48.05.384
12912;170599;34.00;041;03.48.05.384
12936;170596;34.00;042;03.48.05.384
12892;170602;34.00;043;03.48.05.384
12892;170593;34.00;044;03.48.05.384
12912;170603;34.00;045;03.48.05.384
12924;170602;34.00;046;03.48.05.384
12936;170606;34.00;047;03.48.05.384
12916;170606;34.00;048;03.48.05.384
12928;170599;34.00;049;03.48.05.384
12908;170593;34.00;050;03.48.05.461
12920;170599;34.00;051;03.48.05.461
12904;170582;34.00;052;03.48.05.472
12928;170587;34.00;053;03.48.05.472
12912;170580;34.00;054;03.48.05.472
12880;170584;34.00;055;03.48.05.472
12908;170568;34.00;056;03.48.05.472
12928;170573;34.00;057;03.48.05.472
12928;170570;34.00;058;03.48.05.472
12916;170559;34.00;059;03.48.05.472
12932;170560;34.00;060;03.48.05.483
12892;170565;34.00;061;03.48.05.483
12888;170546;34.00;062;03.48.05.483
12916;170552;34.00;063;03.48.05.483
12896;170546;34.00;064;03.48.05.483
12912;170549;34.00;065;03.48.05.483
12912;170557;34.00;066;03.48.05.483
12932;170548;34.00;067;03.48.05.483
12888;170541;34.00;068;03.48.05.483
12888;170531;34.00;069;03.48.05.494
12924;170533;34.00;070;03.48.05.494
12892;170526;34.00;071;03.48.05.494
12892;170528;34.00;072;03.48.05.494
12908;170527;34.00;073;03.48.05.494
12908;170524;34.00;074;03.48.05.494
12908;170528;34.00;075;03.48.05.604
12904;170526;34.00;076;03.48.05.604
12928;170534;34.00;077;03.48.05.604
12892;170528;34.00;078;03.48.05.604
12872;170538;34.00;079;03.48.05.604
12888;170533;34.00;080;03.48.05.604
12908;170534;34.00;081;03.48.05.604
12908;170523;34.00;082;03.48.05.604
12928;170530;34.00;083;03.48.05.615
12908;170533;34.00;084;03.48.05.615
12904;170522;34.00;085;03.48.05.615
12908;170531;34.00;086;03.48.05.615
12912;170526;34.00;087;03.48.05.615
12876;170523;34.00;088;03.48.05.615
12912;170518;34.00;089;03.48.05.615
12912;170527;34.00;090;03.48.05.615
12884;170528;34.00;091;03.48.05.615
12908;170519;34.00;092;03.48.05.626
12920;170523;34.00;093;03.48.05.626
12892;170527;34.00;094;03.48.05.626
12920;170520;34.00;095;03.48.05.626
12928;170527;34.00;096;03.48.05.626
12924;170520;34.00;097;03.48.05.626
12908;170526;34.00;098;03.48.05.626
12944;170531;34.00;099;03.48.05.626
12888;170520;34.00;100;03.48.05.713
12892;170528;34.00;101;03.48.05.713
12904;170531;34.00;102;03.48.05.713
12892;170526;34.00;103;03.48.05.713
12900;170537;34.00;104;03.48.05.713
12920;170531;34.00;105;03.48.05.713
12928;170532;34.00;106;03.48.05.713
12900;170533;34.00;107;03.48.05.724
12908;170538;34.00;108;03.48.05.734
12876;170529;34.00;109;03.48.05.734
12892;170528;34.00;110;03.48.05.734
12892;170531;34.00;111;03.48.05.734
12888;170523;34.00;112;03.48.05.734
12900;170518;34.00;113;03.48.05.734
12908;170523;34.00;114;03.48.05.745
12892;170525;34.00;115;03.48.05.745
12888;170525;34.00;116;03.48.05.745
12892;170522;34.00;117;03.48.05.745
12884;170515;34.00;118;03.48.05.745
12936;170513;34.00;119;03.48.05.745
12900;170516;34.00;120;03.48.05.745
12912;170519;34.00;121;03.48.05.745
12888;170521;34.00;122;03.48.05.745
12920;170514;34.00;123;03.48.05.745
12936;170515;34.00;124;03.48.05.745
12884;170510;34.00;125;03.48.05.855
12912;170515;34.00;126;03.48.05.855
12892;170512;34.00;127;03.48.05.855
12920;170508;34.00;128;03.48.05.855
12928;170506;34.00;129;03.48.05.855
12892;170516;34.00;130;03.48.05.855
12908;170507;34.00;131;03.48.05.855
12924;170508;34.00;132;03.48.05.855
12912;170509;34.00;133;03.48.05.866
12916;170509;34.00;134;03.48.05.866
12892;170507;34.00;135;03.48.05.866
12920;170503;34.00;136;03.48.05.877
12920;170508;34.00;137;03.48.05.877
12928;170509;34.00;138;03.48.05.877
12912;170510;34.00;139;03.48.05.877
12928;170507;34.00;140;03.48.05.877
12900;170512;34.00;141;03.48.05.877
12912;170521;34.00;142;03.48.05.877
12912;170508;34.00;143;03.48.05.877
12892;170519;34.00;144;03.48.05.888
12896;170519;34.00;145;03.48.05.888
12904;170515;34.00;146;03.48.05.888
12892;170515;34.00;147;03.48.05.888
12888;170517;34.00;148;03.48.05.888
12904;170517;34.00;149;03.48.05.888
12904;170525;33.96;150;03.48.05.963
12892;170523;33.96;151;03.48.05.963
12920;170521;33.96;152;03.48.05.963
12908;170524;33.96;153;03.48.05.963
12900;170526;33.96;154;03.48.05.963
12892;170526;33.96;155;03.48.05.963
12908;170521;33.96;156;03.48.05.963
12892;170533;33.96;157;03.48.05.963
12884;170534;33.96;158;03.48.05.963
12928;170538;33.96;159;03.48.05.963
12888;170532;33.96;160;03.48.05.963
12880;170524;33.96;161;03.48.05.975
12896;170540;33.96;162;03.48.05.975
12912;170552;33.96;163;03.48.05.975
12880;170529;33.96;164;03.48.05.975
12900;170552;33.96;165;03.48.05.975
12904;170546;33.96;166;03.48.05.975
12888;170539;33.96;167;03.48.06.019
12888;170553;33.96;168;03.48.06.019
12892;170557;33.96;169;03.48.06.019
12924;170559;33.96;170;03.48.06.019
12920;170558;33.96;171;03.48.06.019
12912;170557;33.96;172;03.48.06.019
12892;170552;33.96;173;03.48.06.019
12932;170555;33.96;174;03.48.06.019
12904;170558;33.96;175;03.48.06.097
12900;170555;33.96;176;03.48.06.097
12908;170558;33.96;177;03.48.06.097
12900;170559;33.96;178;03.48.06.097
12904;170560;33.96;179;03.48.06.097
12916;170555;33.96;180;03.48.06.097
12904;170560;33.96;181;03.48.06.097
12944;170553;33.96;182;03.48.06.097
12884;170560;33.96;183;03.48.06.098
12912;170553;33.96;184;03.48.06.098
12916;170560;33.96;185;03.48.06.109
12916;170557;33.96;186;03.48.06.109
12912;170562;33.96;187;03.48.06.109
12872;170554;33.96;188;03.48.06.109
12888;170556;33.96;189;03.48.06.109
12900;170558;33.96;190;03.48.06.109
12908;170556;33.96;191;03.48.06.109
12888;170563;33.96;192;03.48.06.109
12892;170564;33.96;193;03.48.06.109
12892;170570;33.96;194;03.48.06.109
12892;170568;33.96;195;03.48.06.109
12892;170575;33.96;196;03.48.06.109
12900;170567;33.96;197;03.48.06.109
12904;170567;33.96;198;03.48.06.109
12932;170569;33.96;199;03.48.06.121
12908;170574;34.00;200;03.48.06.208
12908;170584;34.00;201;03.48.06.208
12896;170577;34.00;202;03.48.06.208
12920;170579;34.00;203;03.48.06.208
12916;170573;34.00;204;03.48.06.208
12908;170585;34.00;205;03.48.06.208
12928;170581;34.00;206;03.48.06.208
12928;170584;34.00;207;03.48.06.219
12936;170587;34.00;208;03.48.06.230
12912;170586;34.00;209;03.48.06.230
12892;170581;34.00;210;03.48.06.230
12864;170586;34.00;211;03.48.06.230
12916;170593;34.00;212;03.48.06.230
12912;170594;34.00;213;03.48.06.230
12916;170591;34.00;214;03.48.06.230
12884;170599;34.00;215;03.48.06.241
12896;170595;34.00;216;03.48.06.241
12904;170601;34.00;217;03.48.06.274
12892;170599;34.00;218;03.48.06.274
12892;170592;34.00;219;03.48.06.274
12932;170599;34.00;220;03.48.06.274
12892;170601;34.00;221;03.48.06.274
12892;170603;34.00;222;03.48.06.274
12924;170602;34.00;223;03.48.06.274
12916;170604;34.00;224;03.48.06.285
12924;170607;34.00;225;03.48.06.328
12876;170604;34.00;226;03.48.06.328
12860;170605;34.00;227;03.48.06.328
12912;170598;34.00;228;03.48.06.339
12892;170605;34.00;229;03.48.06.339
12908;170594;34.00;230;03.48.06.339
12900;170600;34.00;231;03.48.06.339
12928;170600;34.00;232;03.48.06.339
12896;170589;34.00;233;03.48.06.339
12912;170585;34.00;234;03.48.06.339
12884;170572;34.00;235;03.48.06.339
12900;170581;34.00;236;03.48.06.339
12892;170568;34.00;237;03.48.06.339
12908;170559;34.00;238;03.48.06.339
12912;170566;34.00;239;03.48.06.339
12896;170556;34.00;240;03.48.06.339
12908;170549;34.00;241;03.48.06.350
12900;170549;34.00;242;03.48.06.371
12860;170546;34.00;243;03.48.06.371
12912;170529;34.00;244;03.48.06.371
12912;170543;34.00;245;03.48.06.371
12892;170531;34.00;246;03.48.06.371
12892;170534;34.00;247;03.48.06.371
12892;170523;34.00;248;03.48.06.371
12904;170532;34.00;249;03.48.06.371
12904;170525;34.00;250;03.48.06.459
12920;170522;34.00;251;03.48.06.459
12900;170515;34.00;252;03.48.06.459
12892;170516;34.00;253;03.48.06.459
12916;170509;34.00;254;03.48.06.459
12912;170514;34.00;255;03.48.06.459
12904;170509;34.00;256;03.48.06.459
12924;170505;34.00;257;03.48.06.459
12904;170512;34.00;258;03.48.06.470
12904;170508;34.00;259;03.48.06.470
12888;170512;34.00;260;03.48.06.470
12912;170511;34.00;261;03.48.06.470
12900;170506;34.00;262;03.48.06.470
12928;170514;34.00;263;03.48.06.470
12892;170508;34.00;264;03.48.06.470
12884;170499;34.00;265;03.48.06.470
12900;170509;34.00;266;03.48.06.470
12880;170514;34.00;267;03.48.06.482
12916;170509;34.00;268;03.48.06.482
12928;170500;34.00;269;03.48.06.482
12916;170489;34.00;270;03.48.06.482
12876;170500;34.00;271;03.48.06.482
12896;170507;34.00;272;03.48.06.482
12884;170503;34.00;273;03.48.06.482
12920;170502;34.00;274;03.48.06.482
12904;170502;34.00;275;03.48.06.591
12888;170503;34.00;276;03.48.06.591
12896;170508;34.00;277;03.48.06.591
12888;170506;34.00;278;03.48.06.591
12928;170510;34.00;279;03.48.06.591
12900;170507;34.00;280;03.48.06.591
12900;170503;34.00;281;03.48.06.591
12908;170501;34.00;282;03.48.06.591
12888;170501;34.00;283;03.48.06.602
12896;170510;34.00;284;03.48.06.602
12928;170506;34.00;285;03.48.06.602
12916;170503;34.00;286;03.48.06.602
12892;170504;34.00;287;03.48.06.602
12860;170507;34.00;288;03.48.06.602
12888;170499;34.00;289;03.48.06.602
12928;170509;34.00;290;03.48.06.602
12912;170507;34.00;291;03.48.06.602
12896;170503;34.00;292;03.48.06.602
12916;170501;34.00;293;03.48.06.602
12892;170502;34.00;294;03.48.06.602
12864;170507;34.00;295;03.48.06.602
12900;170508;34.00;296;03.48.06.603
12912;170506;34.00;297;03.48.06.614
12900;170503;34.00;298;03.48.06.614
12916;170503;34.00;299;03.48.06.614
12920;170507;34.00;300;03.48.06.724
12892;170502;34.00;301;03.48.06.724
12916;170503;34.00;302;03.48.06.724
12880;170504;34.00;303;03.48.06.724
12884;170501;34.00;304;03.48.06.724
12896;170507;34.00;305;03.48.06.735
12896;170514;34.00;306;03.48.06.735
12888;170505;34.00;307;03.48.06.735
12896;170511;34.00;308;03.48.06.735
12892;170515;34.00;309;03.48.06.735
12928;170509;34.00;310;03.48.06.735
12928;170516;34.00;311;03.48.06.735
12896;170513;34.00;312;03.48.06.735
12888;170507;34.00;313;03.48.06.735
12912;170514;34.00;314;03.48.06.735
12900;170511;34.00;315;03.48.06.735
12896;170513;34.00;316;03.48.06.735
12904;170510;34.00;317;03.48.06.735
12916;170520;34.00;318;03.48.06.746
12900;170519;34.00;319;03.48.06.746
12920;170523;34.00;320;03.48.06.746
12928;170523;34.00;321;03.48.06.746
12892;170525;34.00;322;03.48.06.746
12896;170524;34.00;323;03.48.06.746
12908;170529;34.00;324;03.48.06.746
12884;170530;34.00;325;03.48.06.834
12892;170521;34.00;326;03.48.06.834
12900;170528;34.00;327;03.48.06.845
12928;170533;34.00;328;03.48.06.845
12876;170535;34.00;329;03.48.06.845
12904;170535;34.00;330;03.48.06.845
12928;170535;34.00;331;03.48.06.845
12904;170541;34.00;332;03.48.06.845
12920;170535;34.00;333;03.48.06.856
12940;170527;34.00;334;03.48.06.867
12920;170539;34.00;335;03.48.06.867
12904;170534;34.00;336;03.48.06.867
12912;170532;34.00;337;03.48.06.867
12892;170538;34.00;338;03.48.06.867
12900;170538;34.00;339;03.48.06.867
12908;170547;34.00;340;03.48.06.867
12908;170540;34.00;341;03.48.06.867
12916;170542;34.00;342;03.48.06.867
12912;170546;34.00;343;03.48.06.867
12904;170555;34.00;344;03.48.06.867
12892;170546;34.00;345;03.48.06.867
12884;170544;34.00;346;03.48.06.867
12892;170550;34.00;347;03.48.06.867
12900;170538;34.00;348;03.48.06.878
12888;170544;34.00;349;03.48.06.878
12880;170548;33.96;350;03.48.06.964
12872;170549;33.96;351;03.48.06.964
12916;170547;33.96;352;03.48.06.964
12904;170545;33.96;353;03.48.06.964
12900;170548;33.96;354;03.48.06.964
12904;170548;33.96;355;03.48.06.964
12916;170554;33.96;356;03.48.06.964
12872;170559;33.96;357;03.48.06.964
12896;170555;33.96;358;03.48.06.964
12920;170556;33.96;359;03.48.06.964
12876;170556;33.96;360;03.48.06.975
12880;170556;33.96;361;03.48.06.975
12872;170566;33.96;362;03.48.06.975
12904;170563;33.96;363;03.48.06.975
12904;170559;33.96;364;03.48.06.975
12892;170561;33.96;365;03.48.06.975
12904;170560;33.96;366;03.48.06.975
12896;170565;33.96;367;03.48.06.975
12888;170554;33.96;368;03.48.06.975
12900;170562;33.96;369;03.48.06.975
12896;170565;33.96;370;03.48.06.975
12896;170577;33.96;371;03.48.06.975
12892;170573;33.96;372;03.48.06.975
12884;170581;33.96;373;03.48.06.986
12932;170585;33.96;374;03.48.06.986
12912;170587;33.96;375;03.48.07.085
12900;170587;33.96;376;03.48.07.085
12928;170585;33.96;377;03.48.07.085
12908;170598;33.96;378;03.48.07.085
12928;170587;33.96;379;03.48.07.085
12876;170591;33.96;380;03.48.07.085
12892;170592;33.96;381;03.48.07.096
12904;170597;33.96;382;03.48.07.096
12896;170601;33.96;383;03.48.07.096
12904;170597;33.96;384;03.48.07.096
12904;170604;33.96;385;03.48.07.096
12884;170607;33.96;386;03.48.07.096
12892;170606;33.96;387;03.48.07.096
12892;170613;33.96;388;03.48.07.096
12872;170606;33.96;389;03.48.07.096
12896;170616;33.96;390;03.48.07.096
12908;170619;33.96;391;03.48.07.096
12892;170626;33.96;392;03.48.07.107
12928;170623;33.96;393;03.48.07.107
12896;170613;33.96;394;03.48.07.107
12904;170625;33.96;395;03.48.07.107
12884;170629;33.96;396;03.48.07.107
12932;170635;33.96;397;03.48.07.107
12908;170623;33.96;398;03.48.07.107
12920;170634;33.96;399;03.48.07.107
12928;170638;33.96;400;03.48.07.217
12916;170643;33.96;401;03.48.07.217
12876;170639;33.96;402;03.48.07.217
12876;170649;33.96;403;03.48.07.228
12912;170646;33.96;404;03.48.07.228
12884;170654;33.96;405;03.48.07.228
12920;170657;33.96;406;03.48.07.228
12892;170653;33.96;407;03.48.07.228
12908;170660;33.96;408;03.48.07.228
12892;170649;33.96;409;03.48.07.228
12892;170668;33.96;410;03.48.07.228
12916;170655;33.96;411;03.48.07.228
12928;170659;33.96;412;03.48.07.228
12876;170652;33.96;413;03.48.07.228
12892;170656;33.96;414;03.48.07.228
12896;170644;33.96;415;03.48.07.228
12896;170647;33.96;416;03.48.07.239
12892;170639;33.96;417;03.48.07.239
12912;170640;33.96;418;03.48.07.239
12908;170629;33.96;419;03.48.07.239
12896;170629;33.96;420;03.48.07.239
12900;170620;33.96;421;03.48.07.239
12876;170618;33.96;422;03.48.07.239
12908;170626;33.96;423;03.48.07.239
12900;170614;33.96;424;03.48.07.239
12908;170616;33.96;425;03.48.07.337
12904;170611;33.96;426;03.48.07.337
12896;170615;33.96;427;03.48.07.337
12912;170610;33.96;428;03.48.07.337
12904;170611;33.96;429;03.48.07.337
12920;170602;33.96;430;03.48.07.337
12892;170595;33.96;431;03.48.07.337
12900;170596;33.96;432;03.48.07.337
12924;170592;33.96;433;03.48.07.359
12904;170599;33.96;434;03.48.07.359
12900;170596;33.96;435;03.48.07.359
12892;170597;33.96;436;03.48.07.359
12896;170592;33.96;437;03.48.07.359
12912;170599;33.96;438;03.48.07.359
12912;170590;33.96;439;03.48.07.359
12892;170591;33.96;440;03.48.07.359
12920;170587;33.96;441;03.48.07.359
12896;170590;33.96;442;03.48.07.359
12932;170594;33.96;443;03.48.07.359
12908;170591;33.96;444;03.48.07.359
12908;170601;33.96;445;03.48.07.370
12892;170588;33.96;446;03.48.07.370
12872;170582;33.96;447;03.48.07.370
12928;170601;33.96;448;03.48.07.370
12944;170586;33.96;449;03.48.07.370
12912;170587;34.00;450;03.48.07.458
12900;170588;34.00;451;03.48.07.458
12916;170582;34.00;452;03.48.07.458
12916;170582;34.00;453;03.48.07.458
12892;170586;34.00;454;03.48.07.458
12912;170588;34.00;455;03.48.07.458
12916;170576;34.00;456;03.48.07.458
12884;170580;34.00;457;03.48.07.458
12888;170580;34.00;458;03.48.07.469
12904;170572;34.00;459;03.48.07.469
12900;170576;34.00;460;03.48.07.469
12900;170573;34.00;461;03.48.07.469
12892;170581;34.00;462;03.48.07.469
12932;170575;34.00;463;03.48.07.469
12912;170575;34.00;464;03.48.07.469
12920;170580;34.00;465;03.48.07.469
12896;170573;34.00;466;03.48.07.469
12896;170578;34.00;467;03.48.07.469
12904;170583;34.00;468;03.48.07.480
12924;170565;34.00;469;03.48.07.480
12936;170577;34.00;470;03.48.07.480
12908;170573;34.00;471;03.48.07.480
12892;170575;34.00;472;03.48.07.480
12928;170567;34.00;473;03.48.07.480
12892;170582;34.00;474;03.48.07.480
12872;170572;34.00;475;03.48.07.578
12908;170567;34.00;476;03.48.07.578
12904;170578;34.00;477;03.48.07.578
12912;170569;34.00;478;03.48.07.578
12916;170576;34.00;479;03.48.07.590
12892;170579;34.00;480;03.48.07.590
12912;170574;34.00;481;03.48.07.590
12908;170574;34.00;482;03.48.07.590
12884;170582;34.00;483;03.48.07.590
12892;170569;34.00;484;03.48.07.590
12912;170578;34.00;485;03.48.07.590
12920;170575;34.00;486;03.48.07.590
12928;170567;34.00;487;03.48.07.590
12896;170569;34.00;488;03.48.07.590
12892;170570;34.00;489;03.48.07.590
12912;170572;34.00;490;03.48.07.590
12920;170577;34.00;491;03.48.07.590
12872;170584;34.00;492;03.48.07.590
12904;170576;34.00;493;03.48.07.590
12892;170570;34.00;494;03.48.07.601
12884;170573;34.00;495;03.48.07.601
12896;170591;34.00;496;03.48.07.601
12916;170586;34.00;497;03.48.07.601
12928;170586;34.00;498;03.48.07.601
12916;170578;34.00;499;03.48.07.601
12916;170585;33.96;500;03.48.07.711
12920;170582;33.96;501;03.48.07.722
12908;170584;33.96;502;03.48.07.722
12900;170587;33.96;503;03.48.07.722
12892;170586;33.96;504;03.48.07.722
12892;170586;33.96;505;03.48.07.722
12912;170590;33.96;506;03.48.07.722
12904;170587;33.96;507;03.48.07.722
12928;170594;33.96;508;03.48.07.722
12892;170591;33.96;509;03.48.07.722
12892;170589;33.96;510;03.48.07.722
12924;170601;33.96;511;03.48.07.722
12908;170597;33.96;512;03.48.07.722
12872;170602;33.96;513;03.48.07.722
12912;170600;33.96;514;03.48.07.723
12900;170609;33.96;515;03.48.07.734
12916;170607;33.96;516;03.48.07.734
12880;170609;33.96;517;03.48.07.734
12896;170606;33.96;518;03.48.07.734
12904;170607;33.96;519;03.48.07.734
12880;170609;33.96;520;03.48.07.734
12888;170608;33.96;521;03.48.07.734
12884;170611;33.96;522;03.48.07.734
12904;170603;33.96;523;03.48.07.734
12920;170611;33.96;524;03.48.07.734
12900;170618;33.96;525;03.48.07.854
12872;170612;33.96;526;03.48.07.854
12904;170619;33.96;527;03.48.07.854
12892;170619;33.96;528;03.48.07.854
12892;170620;33.96;529;03.48.07.854
12928;170612;33.96;530;03.48.07.854
12900;170619;33.96;531;03.48.07.854
12892;170623;33.96;532;03.48.07.854
12924;170627;33.96;533;03.48.07.854
12904;170626;33.96;534;03.48.07.854
12912;170624;33.96;535;03.48.07.854
12892;170621;33.96;536;03.48.07.865
12896;170631;33.96;537;03.48.07.865
12892;170622;33.96;538;03.48.07.865
12904;170624;33.96;539;03.48.07.865
12908;170628;33.96;540;03.48.07.865
12892;170631;33.96;541;03.48.07.865
12900;170636;33.96;542;03.48.07.865
12876;170635;33.96;543;03.48.07.865
12876;170631;33.96;544;03.48.07.865
12912;170635;33.96;545;03.48.07.865
12944;170642;33.96;546;03.48.07.865
12900;170640;33.96;547;03.48.07.865
12912;170647;33.96;548;03.48.07.865
12892;170638;33.96;549;03.48.07.876
12896;170643;34.00;550;03.48.07.964
12904;170639;34.00;551;03.48.07.964
12908;170644;34.00;552;03.48.07.964
12892;170637;34.00;553;03.48.07.964
12884;170653;34.00;554;03.48.07.964
12904;170644;34.00;555;03.48.07.964
12908;170642;34.00;556;03.48.07.964
12904;170647;34.00;557;03.48.07.964
12892;170647;34.00;558;03.48.07.975
12912;170647;34.00;559;03.48.07.975
12884;170641;34.00;560;03.48.07.975
12892;170641;34.00;561;03.48.07.975
12916;170647;34.00;562;03.48.07.975
12892;170648;34.00;563;03.48.07.975
12896;170643;34.00;564;03.48.07.975
12920;170640;34.00;565;03.48.07.986
12904;170642;34.00;566;03.48.07.986
12932;170643;34.00;567;03.48.07.986
12916;170644;34.00;568;03.48.07.986
12908;170647;34.00;569;03.48.07.986
12916;170636;34.00;570;03.48.07.986
12892;170639;34.00;571;03.48.07.986
12896;170646;34.00;572;03.48.07.986
12904;170647;34.00;573;03.48.07.986
12892;170652;34.00;574;03.48.07.986
12896;170654;34.00;575;03.48.08.087
12888;170653;34.00;576;03.48.08.087
12920;170657;34.00;577;03.48.08.087
12884;170651;34.00;578;03.48.08.087
12876;170649;34.00;579;03.48.08.087
12884;170650;34.00;580;03.48.08.087
12924;170642;34.00;581;03.48.08.098
12876;170647;34.00;582;03.48.08.098
12896;170645;34.00;583;03.48.08.098
12904;170641;34.00;584;03.48.08.098
12928;170639;34.00;585;03.48.08.098
12916;170628;34.00;586;03.48.08.098
12912;170622;34.00;587;03.48.08.098
12904;170620;34.00;588;03.48.08.098
12872;170611;34.00;589;03.48.08.098
12892;170613;34.00;590;03.48.08.098
12900;170607;34.00;591;03.48.08.098
12876;170606;34.00;592;03.48.08.098
12912;170611;34.00;593;03.48.08.098
12908;170606;34.00;594;03.48.08.098
12896;170592;34.00;595;03.48.08.098
12908;170591;34.00;596;03.48.08.109
12912;170585;34.00;597;03.48.08.109
12880;170591;34.00;598;03.48.08.109
12872;170591;34.00;599;03.48.08.109
12892;170592;34.00;600;03.48.08.208
12904;170576;34.00;601;03.48.08.208
12928;170582;34.00;602;03.48.08.208
12920;170571;34.00;603;03.48.08.208
12880;170577;34.00;604;03.48.08.219
12892;170577;34.00;605;03.48.08.219
12916;170579;34.00;606;03.48.08.219
12892;170582;34.00;607;03.48.08.219
12908;170571;34.00;608;03.48.08.219
12928;170573;34.00;609;03.48.08.219
12908;170576;34.00;610;03.48.08.219
12912;170575;34.00;611;03.48.08.219
12928;170573;34.00;612;03.48.08.219
12900;170571;34.00;613;03.48.08.219
12904;170578;34.00;614;03.48.08.219
12904;170583;34.00;615;03.48.08.219
12928;170578;34.00;616;03.48.08.219
12916;170580;34.00;617;03.48.08.230
12892;170577;34.00;618;03.48.08.230
12892;170572;34.00;619;03.48.08.230
12876;170570;34.00;620;03.48.08.230
12928;170580;34.00;621;03.48.08.230
12928;170569;34.00;622;03.48.08.230
12916;170572;34.00;623;03.48.08.230
12924;170569;34.00;624;03.48.08.230
12888;170567;34.00;625;03.48.08.351
12904;170576;34.00;626;03.48.08.351
12912;170573;34.00;627;03.48.08.351
12912;170570;34.00;628;03.48.08.351
12928;170577;34.00;629;03.48.08.351
12904;170571;34.00;630;03.48.08.351
12944;170573;34.00;631;03.48.08.351
12900;170573;34.00;632;03.48.08.351
12900;170575;34.00;633;03.48.08.351
12892;170570;34.00;634;03.48.08.351
12896;170574;34.00;635;03.48.08.351
12888;170572;34.00;636;03.48.08.351
12920;170581;34.00;637;03.48.08.362
12928;170576;34.00;638;03.48.08.362
12908;170583;34.00;639;03.48.08.362
12916;170581;34.00;640;03.48.08.362
12892;170579;34.00;641;03.48.08.362
12896;170579;34.00;642;03.48.08.362
12924;170580;34.00;643;03.48.08.373
12920;170573;34.00;644;03.48.08.373
12900;170588;34.00;645;03.48.08.373
12896;170582;34.00;646;03.48.08.373
12892;170584;34.00;647;03.48.08.373
12888;170590;34.00;648;03.48.08.373
12936;170588;34.00;649;03.48.08.373
12900;170589;34.00;650;03.48.08.460
12912;170595;34.00;651;03.48.08.460
12900;170592;34.00;652;03.48.08.460
12928;170591;34.00;653;03.48.08.460
12892;170589;34.00;654;03.48.08.460
12928;170591;34.00;655;03.48.08.460
12908;170585;34.00;656;03.48.08.460
12896;170588;34.00;657;03.48.08.460
12888;170592;34.00;658;03.48.08.471
12904;170590;34.00;659;03.48.08.471
12888;170588;34.00;660;03.48.08.471
12892;170590;34.00;661;03.48.08.471
12876;170589;34.00;662;03.48.08.471
12888;170593;34.00;663;03.48.08.471
12908;170602;34.00;664;03.48.08.471
12904;170593;34.00;665;03.48.08.471
12944;170598;34.00;666;03.48.08.471
12912;170597;34.00;667;03.48.08.482
12892;170600;34.00;668;03.48.08.482
12908;170605;34.00;669;03.48.08.482
12900;170607;34.00;670;03.48.08.482
12892;170603;34.00;671;03.48.08.482
12884;170616;34.00;672;03.48.08.482
12896;170607;34.00;673;03.48.08.482
12920;170609;34.00;674;03.48.08.482
12888;170602;34.00;675;03.48.08.581
12900;170606;34.00;676;03.48.08.581
12912;170612;34.00;677;03.48.08.581
12928;170615;34.00;678;03.48.08.581
12920;170615;34.00;679;03.48.08.581
12892;170615;34.00;680;03.48.08.581
12892;170617;34.00;681;03.48.08.592
12884;170615;34.00;682;03.48.08.592
12932;170608;34.00;683;03.48.08.592
12920;170619;34.00;684;03.48.08.592
12908;170612;34.00;685;03.48.08.592
12916;170615;34.00;686;03.48.08.592
12892;170618;34.00;687;03.48.08.592
12912;170620;34.00;688;03.48.08.592
12892;170613;34.00;689;03.48.08.592
12920;170619;34.00;690;03.48.08.592
12908;170609;34.00;691;03.48.08.592
12908;170620;34.00;692;03.48.08.592
12888;170626;34.00;693;03.48.08.592
12892;170616;34.00;694;03.48.08.603
12884;170613;34.00;695;03.48.08.603
12896;170627;34.00;696;03.48.08.603
12900;170628;34.00;697;03.48.08.603
12912;170618;34.00;698;03.48.08.603
12912;170624;34.00;699;03.48.08.603
12880;170624;33.96;700;03.48.08.713
12924;170620;33.96;701;03.48.08.713
12916;170627;33.96;702;03.48.08.724
12920;170633;33.96;703;03.48.08.724
12908;170628;33.96;704;03.48.08.724
12908;170621;33.96;705;03.48.08.724
12904;170636;33.96;706;03.48.08.724
12900;170634;33.96;707;03.48.08.724
12884;170632;33.96;708;03.48.08.724
12892;170633;33.96;709;03.48.08.724
12888;170644;33.96;710;03.48.08.724
12904;170638;33.96;711;03.48.08.724
12892;170645;33.96;712;03.48.08.724
12904;170649;33.96;713;03.48.08.724
12896;170652;33.96;714;03.48.08.724
12908;170650;33.96;715;03.48.08.724
12896;170655;33.96;716;03.48.08.735
12900;170653;33.96;717;03.48.08.735
12912;170656;33.96;718;03.48.08.735
12880;170658;33.96;719;03.48.08.735
12892;170660;33.96;720;03.48.08.735
12888;170663;33.96;721;03.48.08.735
12884;170654;33.96;722;03.48.08.735
12868;170657;33.96;723;03.48.08.735
12884;170664;33.96;724;03.48.08.735
12904;170660;33.96;725;03.48.08.844
12916;170675;33.96;726;03.48.08.844
12896;170662;33.96;727;03.48.08.844
12904;170673;33.96;728;03.48.08.844
12896;170668;33.96;729;03.48.08.844
12884;170662;33.96;730;03.48.08.844
12892;170666;33.96;731;03.48.08.844
12916;170671;33.96;732;03.48.08.844
12900;170657;33.96;733;03.48.08.844
12892;170663;33.96;734;03.48.08.844
12888;170678;33.96;735;03.48.08.844
12912;170678;33.96;736;03.48.08.855
12892;170673;33.96;737;03.48.08.855
12896;170673;33.96;738;03.48.08.855
12896;170685;33.96;739;03.48.08.855
12892;170686;33.96;740;03.48.08.855
12892;170678;33.96;741;03.48.08.855
12888;170681;33.96;742;03.48.08.855
12900;170687;33.96;743;03.48.08.855
12916;170683;33.96;744;03.48.08.855
12884;170683;33.96;745;03.48.08.855
12908;170686;33.96;746;03.48.08.855
12900;170691;33.96;747;03.48.08.855
12900;170689;33.96;748;03.48.08.855
12908;170692;33.96;749;03.48.08.866
12884;170694;34.00;750;03.48.08.964
12860;170693;34.00;751;03.48.08.964
12876;170700;34.00;752;03.48.08.964
12916;170695;34.00;753;03.48.08.964
12892;170703;34.00;754;03.48.08.964
12904;170695;34.00;755;03.48.08.964
12888;170700;34.00;756;03.48.08.975
12936;170703;34.00;757;03.48.08.975
12896;170702;34.00;758;03.48.08.975
12920;170699;34.00;759;03.48.08.975
12904;170695;34.00;760;03.48.08.975
12908;170680;34.00;761;03.48.08.975
12916;170697;34.00;762;03.48.08.975
12916;170676;34.00;763;03.48.08.975
12884;170690;34.00;764;03.48.08.975
12908;170682;34.00;765;03.48.08.975
12892;170676;34.00;766;03.48.08.975
12884;170676;34.00;767;03.48.08.986
12904;170668;34.00;768;03.48.08.986
12888;170672;34.00;769;03.48.08.986
12896;170669;34.00;770;03.48.08.986
12916;170662;34.00;771;03.48.08.986
12900;170658;34.00;772;03.48.08.986
12888;170654;34.00;773;03.48.08.986
12944;170643;34.00;774;03.48.08.986
12884;170651;34.00;775;03.48.09.085
12908;170642;34.00;776;03.48.09.085
12900;170640;34.00;777;03.48.09.085
12904;170637;34.00;778;03.48.09.096
12920;170641;34.00;779;03.48.09.096
12928;170626;34.00;780;03.48.09.096
12872;170628;34.00;781;03.48.09.096
12904;170621;34.00;782;03.48.09.096
12892;170626;34.00;783;03.48.09.118
12884;170625;34.00;784;03.48.09.118
12892;170615;34.00;785;03.48.09.118
12916;170622;34.00;786;03.48.09.129
12904;170616;34.00;787;03.48.09.129
12892;170621;34.00;788;03.48.09.129
12860;170612;34.00;789;03.48.09.129
12900;170614;34.00;790;03.48.09.129
12912;170615;34.00;791;03.48.09.129
12900;170602;34.00;792;03.48.09.129
12928;170608;34.00;793;03.48.09.129
12900;170607;34.00;794;03.48.09.129
12896;170610;34.00;795;03.48.09.129
12892;170603;34.00;796;03.48.09.129
12904;170610;34.00;797;03.48.09.129
12944;170609;34.00;798;03.48.09.129
12932;170608;34.00;799;03.48.09.140
12880;170604;34.00;800;03.48.09.216
12892;170610;34.00;801;03.48.09.216
12896;170599;34.00;802;03.48.09.216
12928;170596;34.00;803;03.48.09.216
12924;170605;34.00;804;03.48.09.216
12924;170609;34.00;805;03.48.09.216
12884;170599;34.00;806;03.48.09.216
12892;170603;34.00;807;03.48.09.216
12876;170593;34.00;808;03.48.09.216
12920;170599;34.00;809;03.48.09.216
12900;170599;34.00;810;03.48.09.216
12888;170593;34.00;811;03.48.09.216
12932;170594;34.00;812;03.48.09.216
12904;170601;34.00;813;03.48.09.227
12900;170601;34.00;814;03.48.09.227
12896;170598;34.00;815;03.48.09.227
12908;170600;34.00;816;03.48.09.227
12892;170599;34.00;817;03.48.09.227
12892;170594;34.00;818;03.48.09.227
12904;170598;34.00;819;03.48.09.227
12904;170590;34.00;820;03.48.09.227
12904;170597;34.00;821;03.48.09.227
12892;170597;34.00;822;03.48.09.227
12908;170595;34.00;823;03.48.09.227
12908;170595;34.00;824;03.48.09.227
12908;170598;34.00;825;03.48.09.348
12916;170603;34.00;826;03.48.09.348
12912;170600;34.00;827;03.48.09.348
12900;170599;34.00;828;03.48.09.348
12888;170607;34.00;829;03.48.09.348
12924;170599;34.00;830;03.48.09.348
12928;170598;34.00;831;03.48.09.348
12928;170596;34.00;832;03.48.09.348
12892;170596;34.00;833;03.48.09.348
12892;170592;34.00;834;03.48.09.359
12884;170595;34.00;835;03.48.09.359
12928;170592;34.00;836;03.48.09.359
12904;170600;34.00;837;03.48.09.359
12892;170603;34.00;838;03.48.09.359
12928;170599;34.00;839;03.48.09.359
12924;170594;34.00;840;03.48.09.359
12916;170598;34.00;841;03.48.09.359
12928;170592;34.00;842;03.48.09.359
12896;170598;34.00;843;03.48.09.359
12936;170599;34.00;844;03.48.09.359
12880;170602;34.00;845;03.48.09.359
12932;170598;34.00;846;03.48.09.359
12880;170604;34.00;847;03.48.09.370
12876;170604;34.00;848;03.48.09.370
12904;170610;34.00;849;03.48.09.370
12876;170608;33.96;850;03.48.09.480
12912;170609;33.96;851;03.48.09.480
12900;170608;33.96;852;03.48.09.480
12900;170605;33.96;853;03.48.09.480
12884;170606;33.96;854;03.48.09.491
12900;170608;33.96;855;03.48.09.491
12928;170616;33.96;856;03.48.09.491
12940;170617;33.96;857;03.48.09.491
12904;170610;33.96;858;03.48.09.491
12912;170616;33.96;859;03.48.09.491
12932;170622;33.96;860;03.48.09.491
12908;170621;33.96;861;03.48.09.491
12904;170623;33.96;862;03.48.09.491
12904;170621;33.96;863;03.48.09.491
12884;170615;33.96;864;03.48.09.491
12904;170624;33.96;865;03.48.09.491
12892;170629;33.96;866;03.48.09.491
12928;170627;33.96;867;03.48.09.502
12892;170627;33.96;868;03.48.09.502
12920;170637;33.96;869;03.48.09.502
12928;170635;33.96;870;03.48.09.502
12908;170638;33.96;871;03.48.09.502
12904;170641;33.96;872;03.48.09.513
12912;170643;33.96;873;03.48.09.513
12908;170634;33.96;874;03.48.09.513
12884;170637;33.96;875;03.48.09.578
12892;170650;33.96;876;03.48.09.578
12884;170638;33.96;877;03.48.09.589
12860;170642;33.96;878;03.48.09.589
12900;170644;33.96;879;03.48.09.589
12908;170649;33.96;880;03.48.09.589
12892;170648;33.96;881;03.48.09.589
12888;170642;33.96;882;03.48.09.589
12912;170647;33.96;883;03.48.09.589
12880;170640;33.96;884;03.48.09.589
12928;170661;33.96;885;03.48.09.589
12888;170646;33.96;886;03.48.09.589
12912;170653;33.96;887;03.48.09.589
12896;170652;33.96;888;03.48.09.589
12884;170655;33.96;889;03.48.09.600
12896;170658;33.96;890;03.48.09.600
12896;170654;33.96;891;03.48.09.600
12876;170656;33.96;892;03.48.09.600
12880;170653;33.96;893;03.48.09.600
12920;170655;33.96;894;03.48.09.600
12876;170658;33.96;895;03.48.09.600
12860;170654;33.96;896;03.48.09.600
12896;170657;33.96;897;03.48.09.600
12904;170654;33.96;898;03.48.09.600
12916;170654;33.96;899;03.48.09.600
12912;170658;34.00;900;03.48.09.710
12912;170654;34.00;901;03.48.09.710
12904;170668;34.00;902;03.48.09.710
12892;170661;34.00;903;03.48.09.710
12924;170655;34.00;904;03.48.09.710
12912;170656;34.00;905;03.48.09.710
12884;170658;34.00;906;03.48.09.710
12932;170665;34.00;907;03.48.09.710
12896;170670;34.00;908;03.48.09.710
12892;170661;34.00;909;03.48.09.710
12928;170671;34.00;910;03.48.09.710
12872;170670;34.00;911;03.48.09.721
12916;170661;34.00;912;03.48.09.721
12912;170674;34.00;913;03.48.09.721
12892;170673;34.00;914;03.48.09.721
12860;170668;34.00;915;03.48.09.721
12928;170662;34.00;916;03.48.09.721
12884;170672;34.00;917;03.48.09.721
12884;170674;34.00;918;03.48.09.721
12892;170673;34.00;919;03.48.09.721
12908;170665;34.00;920;03.48.09.721
12884;170666;34.00;921;03.48.09.721
12896;170675;34.00;922;03.48.09.721
12908;170676;34.00;923;03.48.09.721
12936;170676;34.00;924;03.48.09.732
12896;170682;34.00;925;03.48.09.842
12916;170687;34.00;926;03.48.09.842
12904;170686;34.00;927;03.48.09.842
12896;170679;34.00;928;03.48.09.842
12896;170687;34.00;929;03.48.09.842
12908;170680;34.00;930;03.48.09.842
12904;170678;34.00;931;03.48.09.842
12908;170684;34.00;932;03.48.09.853
12904;170686;34.00;933;03.48.09.853
12896;170691;34.00;934;03.48.09.853
12904;170683;34.00;935;03.48.09.853
12888;170685;34.00;936;03.48.09.853
12912;170688;34.00;937;03.48.09.853
12912;170688;34.00;938;03.48.09.853
12908;170696;34.00;939;03.48.09.853
12892;170690;34.00;940;03.48.09.853
12884;170701;34.00;941;03.48.09.853
12896;170703;34.00;942;03.48.09.853
12896;170696;34.00;943;03.48.09.853
12900;170692;34.00;944;03.48.09.853
12888;170693;34.00;945;03.48.09.864
12876;170694;34.00;946;03.48.09.864
12876;170686;34.00;947;03.48.09.864
12880;170688;34.00;948;03.48.09.864
12924;170687;34.00;949;03.48.09.864
12892;170678;34.00;950;03.48.09.973
12896;170673;34.00;951;03.48.09.973
12920;170674;34.00;952;03.48.09.973
12904;170664;34.00;953;03.48.09.984
12908;170662;34.00;954;03.48.09.984
12896;170662;34.00;955;03.48.09.984
12908;170652;34.00;956;03.48.09.984
12912;170650;34.00;957;03.48.09.984
12892;170648;34.00;958;03.48.09.984
12912;170645;34.00;959;03.48.09.984
12928;170643;34.00;960;03.48.09.984
12896;170634;34.00;961;03.48.09.984
12912;170628;34.00;962;03.48.09.984
12872;170638;34.00;963;03.48.09.984
12892;170644;34.00;964;03.48.09.984
12892;170629;34.00;965;03.48.09.995
12904;170636;34.00;966;03.48.09.995
12892;170637;34.00;967;03.48.09.995
12904;170641;34.00;968;03.48.09.995
12908;170627;34.00;969;03.48.09.995
12920;170641;34.00;970;03.48.09.995
12888;170643;34.00;971;03.48.09.995
12912;170643;34.00;972;03.48.09.995
12892;170642;34.00;973;03.48.09.995
12920;170638;34.00;974;03.48.09.995
12876;170649;34.00;975;03.48.10.116
12912;170653;34.00;976;03.48.10.116
12892;170660;34.00;977;03.48.10.116
12884;170661;34.00;978;03.48.10.116
12892;170665;34.00;979;03.48.10.116
12896;170666;34.00;980;03.48.10.116
12904;170662;34.00;981;03.48.10.116
12904;170656;34.00;982;03.48.10.116
12896;170660;34.00;983;03.48.10.116
12896;170667;34.00;984;03.48.10.116
12928;170674;34.00;985;03.48.10.116
12876;170672;34.00;986;03.48.10.116
12892;170668;34.00;987;03.48.10.116
12924;170667;34.00;988;03.48.10.127
12900;170672;34.00;989;03.48.10.127
12876;170674;34.00;990;03.48.10.127
12892;170671;34.00;991;03.48.10.127
12896;170670;34.00;992;03.48.10.127
12904;170673;34.00;993;03.48.10.127
12896;170668;34.00;994;03.48.10.127
12900;170677;34.00;995;03.48.10.127
12904;170667;34.00;996;03.48.10.127
12896;170676;34.00;997;03.48.10.127
12888;170678;34.00;998;03.48.10.127
12928;170676;34.00;999;03.48.10.127
12896;170674;34.00;000;03.48.10.215
12904;170677;34.00;001;03.48.10.215
12904;170676;34.00;002;03.48.10.215
12880;170678;34.00;003;03.48.10.215
12884;170677;34.00;004;03.48.10.215
12892;170675;34.00;005;03.48.10.215
12916;170674;34.00;006;03.48.10.215
12896;170672;34.00;007;03.48.10.215
12892;170677;34.00;008;03.48.10.226
12912;170676;34.00;009;03.48.10.226
12884;170673;34.00;010;03.48.10.226
12880;170673;34.00;011;03.48.10.226
12904;170674;34.00;012;03.48.10.226
12928;170673;34.00;013;03.48.10.226
12888;170678;34.00;014;03.48.10.226
12896;170670;34.00;015;03.48.10.226
12928;170671;34.00;016;03.48.10.226
12912;170660;34.00;017;03.48.10.226
12880;170672;34.00;018;03.48.10.226
12892;170661;34.00;019;03.48.10.226
12928;170666;34.00;020;03.48.10.226
12904;170668;34.00;021;03.48.10.226
12960;170665;34.00;022;03.48.10.237
12900;170659;34.00;023;03.48.10.237
12936;170654;34.00;024;03.48.10.237
12908;170658;34.00;025;03.48.10.334
12920;170657;34.00;026;03.48.10.334
12912;170663;34.00;027;03.48.10.334
12908;170663;34.00;028;03.48.10.335
12896;170654;34.00;029;03.48.10.345
12900;170656;34.00;030;03.48.10.345
12888;170662;34.00;031;03.48.10.345
12892;170666;34.00;032;03.48.10.345
12904;170664;34.00;033;03.48.10.345
12896;170666;34.00;034;03.48.10.345
12888;170664;34.00;035;03.48.10.345
12908;170667;34.00;036;03.48.10.345
12920;170671;34.00;037;03.48.10.345
12892;170669;34.00;038;03.48.10.355
12880;170654;34.00;039;03.48.10.355
12920;170674;34.00;040;03.48.10.355
12888;170667;34.00;041;03.48.10.355
12892;170665;34.00;042;03.48.10.355
12900;170673;34.00;043;03.48.10.355
12876;170681;34.00;044;03.48.10.355
12888;170673;34.00;045;03.48.10.355
12876;170673;34.00;046;03.48.10.355
12912;170668;34.00;047;03.48.10.355
12936;170675;34.00;048;03.48.10.355
12908;170673;34.00;049;03.48.10.355
12904;170680;34.00;050;03.48.10.476
12916;170680;34.00;051;03.48.10.476
12892;170682;34.00;052;03.48.10.476
12900;170679;34.00;053;03.48.10.476
12928;170686;34.00;054;03.48.10.476
12900;170690;34.00;055;03.48.10.476
12912;170683;34.00;056;03.48.10.476
12932;170688;34.00;057;03.48.10.476
12916;170697;34.00;058;03.48.10.476
12912;170693;34.00;059;03.48.10.476
12892;170693;34.00;060;03.48.10.476
12892;170694;34.00;061;03.48.10.476
12900;170695;34.00;062;03.48.10.486
12908;170699;34.00;063;03.48.10.486
12888;170708;34.00;064;03.48.10.486
12912;170695;34.00;065;03.48.10.486
12876;170701;34.00;066;03.48.10.486
12888;170703;34.00;067;03.48.10.486
12908;170704;34.00;068;03.48.10.486
12892;170709;34.00;069;03.48.10.486
12892;170701;34.00;070;03.48.10.486
12892;170707;34.00;071;03.48.10.486
12904;170710;34.00;072;03.48.10.486
12884;170712;34.00;073;03.48.10.486
12908;170709;34.00;074;03.48.10.498
12880;170713;34.00;075;03.48.10.607
12928;170711;34.00;076;03.48.10.607
12920;170721;34.00;077;03.48.10.607
12888;170721;34.00;078;03.48.10.607
12892;170710;34.00;079;03.48.10.607
12924;170715;34.00;080;03.48.10.607
12904;170711;34.00;081;03.48.10.607
12884;170725;34.00;082;03.48.10.617
12892;170722;34.00;083;03.48.10.617
12884;170724;34.00;084;03.48.10.617
12864;170726;34.00;085;03.48.10.617
12892;170725;34.00;086;03.48.10.617
12920;170734;34.00;087;03.48.10.617
12892;170734;34.00;088;03.48.10.617
12908;170723;34.00;089;03.48.10.617
12892;170741;34.00;090;03.48.10.617
12892;170736;34.00;091;03.48.10.617
12920;170737;34.00;092;03.48.10.617
12920;170740;34.00;093;03.48.10.617
12916;170743;34.00;094;03.48.10.617
12884;170755;34.00;095;03.48.10.628
12908;170748;34.00;096;03.48.10.628
12920;170748;34.00;097;03.48.10.628
12908;170751;34.00;098;03.48.10.628
12892;170751;34.00;099;03.48.10.628
12904;170766;33.96;100;03.48.10.705
12896;170761;33.96;101;03.48.10.705
12900;170768;33.96;102;03.48.10.705
12916;170759;33.96;103;03.48.10.705
12892;170767;33.96;104;03.48.10.716
12920;170763;33.96;105;03.48.10.716
12904;170766;33.96;106;03.48.10.716
12916;170766;33.96;107;03.48.10.716
12900;170767;33.96;108;03.48.10.716
12896;170762;33.96;109;03.48.10.716
12892;170773;33.96;110;03.48.10.716
12896;170773;33.96;111;03.48.10.716
12916;170774;33.96;112;03.48.10.716
12908;170777;33.96;113;03.48.10.716
12928;170786;33.96;114;03.48.10.716
12904;170784;33.96;115;03.48.10.716
12912;170787;33.96;116;03.48.10.716
12908;170786;33.96;117;03.48.10.727
12928;170791;33.96;118;03.48.10.727
12912;170782;33.96;119;03.48.10.727
12888;170792;33.96;120;03.48.10.727
12876;170798;33.96;121;03.48.10.727
12876;170794;33.96;122;03.48.10.727
12920;170797;33.96;123;03.48.10.727
12888;170787;33.96;124;03.48.10.727
12876;170805;33.96;125;03.48.10.836
12896;170802;33.96;126;03.48.10.836
12908;170800;33.96;127;03.48.10.836
12880;170798;33.96;128;03.48.10.836
12872;170799;33.96;129;03.48.10.836
12892;170806;33.96;130;03.48.10.836
12880;170798;33.96;131;03.48.10.836
12912;170798;33.96;132;03.48.10.836
12912;170797;33.96;133;03.48.10.836
12916;170794;33.96;134;03.48.10.836
12912;170797;33.96;135;03.48.10.836
12900;170789;33.96;136;03.48.10.836
12928;170788;33.96;137;03.48.10.847
12896;170787;33.96;138;03.48.10.847
12920;170788;33.96;139;03.48.10.847
12904;170782;33.96;140;03.48.10.847
12876;170781;33.96;141;03.48.10.847
12916;170770;33.96;142;03.48.10.858
12900;170773;33.96;143;03.48.10.858
12892;170768;33.96;144;03.48.10.858
12888;170764;33.96;145;03.48.10.858
12924;170762;33.96;146;03.48.10.858
12908;170765;33.96;147;03.48.10.858
12928;170756;33.96;148;03.48.10.858
12924;170747;33.96;149;03.48.10.858
12900;170751;33.96;150;03.48.10.968
12860;170739;33.96;151;03.48.10.968
12928;170739;33.96;152;03.48.10.968
12912;170740;33.96;153;03.48.10.968
12888;170741;33.96;154;03.48.10.968
12884;170745;33.96;155;03.48.10.968
12908;170742;33.96;156;03.48.10.968
12896;170742;33.96;157;03.48.10.968
12892;170741;33.96;158;03.48.10.979
12904;170739;33.96;159;03.48.10.979
12896;170740;33.96;160;03.48.10.979
12928;170746;33.96;161;03.48.10.979
12892;170750;33.96;162;03.48.10.979
12920;170749;33.96;163;03.48.10.979
12924;170741;33.96;164;03.48.10.979
12896;170753;33.96;165;03.48.10.979
12884;170754;33.96;166;03.48.10.979
12908;170755;33.96;167;03.48.10.979
12904;170758;33.96;168;03.48.10.979
12888;170755;33.96;169;03.48.10.979
12892;170755;33.96;170;03.48.10.979
12880;170756;33.96;171;03.48.10.990
12936;170762;33.96;172;03.48.10.990
12876;170755;33.96;173;03.48.10.990
12916;170762;33.96;174;03.48.10.990
12892;170760;33.96;175;03.48.11.099
12900;170763;33.96;176;03.48.11.099
12892;170758;33.96;177;03.48.11.099
12916;170768;33.96;178;03.48.11.099
12908;170765;33.96;179;03.48.11.110
12928;170772;33.96;180;03.48.11.110
12880;170768;33.96;181;03.48.11.110
12888;170763;33.96;182;03.48.11.110
12892;170773;33.96;183;03.48.11.110
12884;170776;33.96;184;03.48.11.110
12876;170776;33.96;185;03.48.11.110
12896;170772;33.96;186;03.48.11.110
12904;170776;33.96;187;03.48.11.110
12904;170770;33.96;188;03.48.11.110
12900;170776;33.96;189;03.48.11.110
12904;170775;33.96;190;03.48.11.110
12884;170778;33.96;191;03.48.11.110
12924;170778;33.96;192;03.48.11.121
12912;170780;33.96;193;03.48.11.121
12900;170781;33.96;194;03.48.11.121
12920;170790;33.96;195;03.48.11.121
12920;170786;33.96;196;03.48.11.132
12904;170779;33.96;197;03.48.11.132
12880;170790;33.96;198;03.48.11.132
12932;170792;33.96;199;03.48.11.132
12892;170789;33.96;200;03.48.11.209
12888;170793;33.96;201;03.48.11.220
12892;170785;33.96;202;03.48.11.220
12888;170788;33.96;203;03.48.11.220
12912;170787;33.96;204;03.48.11.220
12884;170788;33.96;205;03.48.11.220
12888;170797;33.96;206;03.48.11.220
12892;170792;33.96;207;03.48.11.220
12908;170792;33.96;208;03.48.11.231
12904;170793;33.96;209;03.48.11.231
12916;170785;33.96;210;03.48.11.231
12916;170791;33.96;211;03.48.11.231
12912;170785;33.96;212;03.48.11.231
12892;170797;33.96;213;03.48.11.231
12896;170789;33.96;214;03.48.11.231
12884;170789;33.96;215;03.48.11.231
12908;170794;33.96;216;03.48.11.231
12892;170798;33.96;217;03.48.11.231
12892;170796;33.96;218;03.48.11.242
12932;170800;33.96;219;03.48.11.242
12912;170802;33.96;220;03.48.11.242
12892;170806;33.96;221;03.48.11.242
12896;170806;33.96;222;03.48.11.242
12896;170810;33.96;223;03.48.11.242
12916;170809;33.96;224;03.48.11.242
12908;170816;33.96;225;03.48.11.340
12912;170816;33.96;226;03.48.11.340
12928;170808;33.96;227;03.48.11.340
12888;170821;33.96;228;03.48.11.340
12904;170815;33.96;229;03.48.11.340
12896;170813;33.96;230;03.48.11.340
12892;170826;33.96;231;03.48.11.340
12900;170825;33.96;232;03.48.11.340
12900;170825;33.96;233;03.48.11.340
12892;170820;33.96;234;03.48.11.351
12896;170827;33.96;235;03.48.11.351
12896;170822;33.96;236;03.48.11.351
12896;170823;33.96;237;03.48.11.351
12900;170827;33.96;238;03.48.11.351
12904;170826;33.96;239;03.48.11.351
12888;170831;33.96;240;03.48.11.351
12900;170830;33.96;241;03.48.11.351
12904;170830;33.96;242;03.48.11.351
12920;170830;33.96;243;03.48.11.351
12900;170834;33.96;244;03.48.11.351
12912;170835;33.96;245;03.48.11.351
12900;170835;33.96;246;03.48.11.351
12916;170847;33.96;247;03.48.11.351
12920;170842;33.96;248;03.48.11.362
12932;170840;33.96;249;03.48.11.362
12892;170842;34.00;250;03.48.11.472
12904;170842;34.00;251;03.48.11.472
12908;170838;34.00;252;03.48.11.472
12876;170843;34.00;253;03.48.11.472
12888;170848;34.00;254;03.48.11.472
12896;170847;34.00;255;03.48.11.472
12912;170855;34.00;256;03.48.11.483
12912;170838;34.00;257;03.48.11.483
12896;170851;34.00;258;03.48.11.483
12908;170857;34.00;259;03.48.11.483
12908;170848;34.00;260;03.48.11.483
12896;170849;34.00;261;03.48.11.483
12892;170854;34.00;262;03.48.11.483
12884;170847;34.00;263;03.48.11.483
12888;170852;34.00;264;03.48.11.483
12896;170850;34.00;265;03.48.11.483
12928;170847;34.00;266;03.48.11.483
12908;170854;34.00;267;03.48.11.483
12908;170849;34.00;268;03.48.11.483
12904;170851;34.00;269;03.48.11.494
12912;170856;34.00;270;03.48.11.494
12912;170850;34.00;271;03.48.11.494
12924;170854;34.00;272;03.48.11.494
12888;170853;34.00;273;03.48.11.494
12912;170857;34.00;274;03.48.11.494
12892;170858;34.00;275;03.48.11.593
12928;170857;34.00;276;03.48.11.604
12884;170862;34.00;277;03.48.11.604
12892;170874;34.00;278;03.48.11.604
12892;170874;34.00;279;03.48.11.604
12920;170866;34.00;280;03.48.11.604
12888;170876;34.00;281;03.48.11.604
12912;170878;34.00;282;03.48.11.604
12908;170874;34.00;283;03.48.11.604
12928;170876;34.00;284;03.48.11.604
12920;170884;34.00;285;03.48.11.604
12896;170884;34.00;286;03.48.11.604
12916;170889;34.00;287;03.48.11.604
12916;170881;34.00;288;03.48.11.604
12904;170892;34.00;289;03.48.11.604
12896;170886;34.00;290;03.48.11.615
12916;170888;34.00;291;03.48.11.615
12900;170895;34.00;292;03.48.11.615
12896;170889;34.00;293;03.48.11.615
12912;170889;34.00;294;03.48.11.615
12892;170900;34.00;295;03.48.11.615
12916;170902;34.00;296;03.48.11.615
12928;170898;34.00;297;03.48.11.615
12912;170909;34.00;298;03.48.11.615
12912;170901;34.00;299;03.48.11.615
12908;170903;34.00;300;03.48.11.713
12904;170896;34.00;301;03.48.11.713
12876;170902;34.00;302;03.48.11.713
12928;170905;34.00;303;03.48.11.713
12916;170920;34.00;304;03.48.11.713
12908;170914;34.00;305;03.48.11.713
12904;170913;34.00;306;03.48.11.713
12908;170912;34.00;307;03.48.11.713
12908;170923;34.00;308;03.48.11.735
12912;170920;34.00;309;03.48.11.735
12888;170923;34.00;310;03.48.11.735
12912;170923;34.00;311;03.48.11.735
12884;170917;34.00;312;03.48.11.735
12900;170922;34.00;313;03.48.11.735
12912;170924;34.00;314;03.48.11.735
12880;170936;34.00;315;03.48.11.735
12884;170933;34.00;316;03.48.11.735
12908;170937;34.00;317;03.48.11.735
12884;170933;34.00;318;03.48.11.735
12888;170934;34.00;319;03.48.11.746
12904;170935;34.00;320;03.48.11.746
12892;170940;34.00;321;03.48.11.746
12908;170940;34.00;322;03.48.11.746
12888;170935;34.00;323;03.48.11.746
12908;170928;34.00;324;03.48.11.746
12892;170922;34.00;325;03.48.11.845
12912;170921;34.00;326;03.48.11.845
12900;170925;34.00;327;03.48.11.845
12896;170917;34.00;328;03.48.11.845
12896;170910;34.00;329;03.48.11.845
12912;170906;34.00;330;03.48.11.845
12908;170906;34.00;331;03.48.11.845
12904;170903;34.00;332;03.48.11.845
12912;170901;34.00;333;03.48.11.856
12892;170895;34.00;334;03.48.11.856
12904;170893;34.00;335;03.48.11.856
12924;170885;34.00;336;03.48.11.856
12908;170887;34.00;337;03.48.11.856
12892;170877;34.00;338;03.48.11.856
12912;170878;34.00;339;03.48.11.856
12916;170879;34.00;340;03.48.11.867
12888;170877;34.00;341;03.48.11.867
12892;170876;34.00;342;03.48.11.867
12896;170874;34.00;343;03.48.11.867
12900;170868;34.00;344;03.48.11.867
12908;170860;34.00;345;03.48.11.867
12928;170861;34.00;346;03.48.11.867
12896;170858;34.00;347;03.48.11.867
12944;170864;34.00;348;03.48.11.867
12936;170855;34.00;349;03.48.11.867
12900;170856;33.96;350;03.48.11.977
12892;170850;33.96;351;03.48.11.977
12896;170853;33.96;352;03.48.11.977
12912;170853;33.96;353;03.48.11.977
12888;170854;33.96;354;03.48.11.977
12928;170856;33.96;355;03.48.11.988
12944;170853;33.96;356;03.48.11.988
12892;170850;33.96;357;03.48.11.988
12916;170851;33.96;358;03.48.11.988
12884;170846;33.96;359;03.48.11.988
12892;170852;33.96;360;03.48.11.988
12876;170847;33.96;361;03.48.11.988
12888;170846;33.96;362;03.48.11.988
12900;170838;33.96;363;03.48.11.988
12876;170836;33.96;364;03.48.11.988
12916;170834;33.96;365;03.48.11.988
12908;170830;33.96;366;03.48.11.988
12904;170836;33.96;367;03.48.11.998
12928;170842;33.96;368;03.48.11.998
12904;170834;33.96;369;03.48.11.998
12884;170827;33.96;370;03.48.11.998
12900;170829;33.96;371;03.48.12.009
12904;170832;33.96;372;03.48.12.009
12928;170835;33.96;373;03.48.12.009
12888;170828;33.96;374;03.48.12.009
12900;170829;33.96;375;03.48.12.097
12916;170837;33.96;376;03.48.12.097
12916;170836;33.96;377;03.48.12.097
12888;170836;33.96;378;03.48.12.097
12916;170832;33.96;379;03.48.12.097
12892;170830;33.96;380;03.48.12.097
12884;170830;33.96;381;03.48.12.097
12912;170828;33.96;382;03.48.12.097
12884;170826;33.96;383;03.48.12.097
12928;170829;33.96;384;03.48.12.097
12896;170830;33.96;385;03.48.12.097
12928;170834;33.96;386;03.48.12.097
12892;170837;33.96;387;03.48.12.097
12888;170834;33.96;388;03.48.12.108
12896;170827;33.96;389;03.48.12.108
12892;170831;33.96;390;03.48.12.108
12884;170837;33.96;391;03.48.12.108
12904;170830;33.96;392;03.48.12.108
12888;170836;33.96;393;03.48.12.108
12892;170833;33.96;394;03.48.12.108
12896;170831;33.96;395;03.48.12.108
12908;170836;33.96;396;03.48.12.108
12888;170833;33.96;397;03.48.12.108
12892;170845;33.96;398;03.48.12.108
12908;170830;33.96;399;03.48.12.108
12888;170837;33.96;400;03.48.12.228
12908;170831;33.96;401;03.48.12.228
12904;170838;33.96;402;03.48.12.228
12916;170832;33.96;403;03.48.12.228
12904;170833;33.96;404;03.48.12.228
12892;170833;33.96;405;03.48.12.228
12896;170831;33.96;406;03.48.12.228
12924;170829;33.96;407;03.48.12.228
12892;170832;33.96;408;03.48.12.228
12884;170844;33.96;409;03.48.12.239
12900;170835;33.96;410;03.48.12.239
12896;170840;33.96;411;03.48.12.239
12904;170837;33.96;412;03.48.12.239
12888;170835;33.96;413;03.48.12.239
12892;170845;33.96;414;03.48.12.239
12932;170839;33.96;415;03.48.12.239
12904;170833;33.96;416;03.48.12.239
12928;170840;33.96;417;03.48.12.239
12908;170844;33.96;418;03.48.12.239
12908;170838;33.96;419;03.48.12.239
12900;170843;33.96;420;03.48.12.239
12928;170840;33.96;421;03.48.12.250
12900;170839;33.96;422;03.48.12.250
12888;170841;33.96;423;03.48.12.250
12920;170844;33.96;424;03.48.12.250
12892;170842;33.96;425;03.48.12.338
12896;170844;33.96;426;03.48.12.338
12896;170845;33.96;427;03.48.12.338
12900;170848;33.96;428;03.48.12.338
12928;170845;33.96;429;03.48.12.338
12920;170850;33.96;430;03.48.12.338
12896;170854;33.96;431;03.48.12.349
12908;170843;33.96;432;03.48.12.349
12912;170848;33.96;433;03.48.12.371
12884;170848;33.96;434;03.48.12.371
12884;170845;33.96;435;03.48.12.371
12900;170862;33.96;436;03.48.12.371
12912;170855;33.96;437;03.48.12.371
12900;170856;33.96;438;03.48.12.381
12904;170860;33.96;439;03.48.12.381
12888;170870;33.96;440;03.48.12.381
12892;170872;33.96;441;03.48.12.381
12908;170872;33.96;442;03.48.12.381
12908;170877;33.96;443;03.48.12.381
12892;170875;33.96;444;03.48.12.381
12900;170878;33.96;445;03.48.12.381
12860;170882;33.96;446;03.48.12.381
12880;170883;33.96;447;03.48.12.381
12896;170890;33.96;448;03.48.12.381
12904;170889;33.96;449;03.48.12.381
12888;170882;33.96;450;03.48.12.458
12908;170887;33.96;451;03.48.12.469
12896;170887;33.96;452;03.48.12.469
12892;170884;33.96;453;03.48.12.469
12888;170887;33.96;454;03.48.12.469
12884;170898;33.96;455;03.48.12.469
12876;170896;33.96;456;03.48.12.469
12928;170885;33.96;457;03.48.12.469
12928;170893;33.96;458;03.48.12.469
12916;170901;33.96;459;03.48.12.469
12856;170891;33.96;460;03.48.12.469
12884;170888;33.96;461;03.48.12.469
12896;170892;33.96;462;03.48.12.469
12892;170890;33.96;463;03.48.12.469
12912;170896;33.96;464;03.48.12.480
12888;170901;33.96;465;03.48.12.480
12884;170898;33.96;466;03.48.12.480
12884;170899;33.96;467;03.48.12.480
12912;170892;33.96;468;03.48.12.480
12908;170896;33.96;469;03.48.12.480
12884;170898;33.96;470;03.48.12.480
12916;170895;33.96;471;03.48.12.480
12880;170902;33.96;472;03.48.12.480
12900;170902;33.96;473;03.48.12.480
12928;170904;33.96;474;03.48.12.480
12884;170905;33.96;475;03.48.12.600
12908;170899;33.96;476;03.48.12.600
12920;170895;33.96;477;03.48.12.600
12908;170896;33.96;478;03.48.12.600
12900;170901;33.96;479;03.48.12.600
12916;170891;33.96;480;03.48.12.600
12876;170898;33.96;481;03.48.12.600
12880;170900;33.96;482;03.48.12.600
12944;170895;33.96;483;03.48.12.611
12884;170903;33.96;484;03.48.12.611
12924;170896;33.96;485;03.48.12.611
12896;170909;33.96;486;03.48.12.611
12880;170911;33.96;487;03.48.12.611
12916;170906;33.96;488;03.48.12.611
12876;170916;33.96;489;03.48.12.611
12904;170916;33.96;490;03.48.12.611
12860;170917;33.96;491;03.48.12.611
12904;170913;33.96;492;03.48.12.611
12900;170922;33.96;493;03.48.12.622
12892;170920;33.96;494;03.48.12.622
12904;170915;33.96;495;03.48.12.622
12908;170924;33.96;496;03.48.12.622
12904;170922;33.96;497;03.48.12.622
12908;170932;33.96;498;03.48.12.622
12928;170929;33.96;499;03.48.12.622
12880;170931;33.96;500;03.48.12.732
12888;170928;33.96;501;03.48.12.732
12896;170937;33.96;502;03.48.12.732
12920;170943;33.96;503;03.48.12.732
12912;170937;33.96;504;03.48.12.732
12928;170943;33.96;505;03.48.12.732
12900;170945;33.96;506;03.48.12.743
12904;170941;33.96;507;03.48.12.743
12880;170953;33.96;508;03.48.12.743
12908;170948;33.96;509;03.48.12.743
12896;170948;33.96;510;03.48.12.743
12900;170950;33.96;511;03.48.12.743
12888;170947;33.96;512;03.48.12.743
12896;170947;33.96;513;03.48.12.743
12912;170943;33.96;514;03.48.12.743
12912;170948;33.96;515;03.48.12.743
12896;170947;33.96;516;03.48.12.743
12928;170936;33.96;517;03.48.12.754
12920;170932;33.96;518;03.48.12.754
12928;170928;33.96;519;03.48.12.754
12908;170926;33.96;520;03.48.12.754
12884;170915;33.96;521;03.48.12.754
12912;170913;33.96;522;03.48.12.754
12928;170913;33.96;523;03.48.12.765
12916;170905;33.96;524;03.48.12.765
12876;170895;33.96;525;03.48.12.831
12912;170899;33.96;526;03.48.12.831
12892;170900;33.96;527;03.48.12.842
12900;170888;33.96;528;03.48.12.842
12884;170894;33.96;529;03.48.12.842
12932;170890;33.96;530;03.48.12.842
12900;170884;33.96;531;03.48.12.842
12900;170887;33.96;532;03.48.12.842
12884;170872;33.96;533;03.48.12.842
12892;170880;33.96;534;03.48.12.842
12928;170880;33.96;535;03.48.12.842
12920;170877;33.96;536;03.48.12.842
12896;170868;33.96;537;03.48.12.853
12916;170870;33.96;538;03.48.12.853
12896;170870;33.96;539;03.48.12.853
12912;170867;33.96;540;03.48.12.853
12912;170871;33.96;541;03.48.12.853
12888;170867;33.96;542;03.48.12.864
12900;170870;33.96;543;03.48.12.864
12904;170869;33.96;544;03.48.12.864
12908;170868;33.96;545;03.48.12.875
12908;170865;33.96;546;03.48.12.875
12896;170867;33.96;547;03.48.12.875
12932;170866;33.96;548;03.48.12.875
12904;170861;33.96;549;03.48.12.875
12904;170876;33.96;550;03.48.12.962
12916;170867;33.96;551;03.48.12.962
12876;170879;33.96;552;03.48.12.962
12904;170868;33.96;553;03.48.12.962
12884;170858;33.96;554;03.48.12.962
12944;170876;33.96;555;03.48.12.962
12904;170873;33.96;556;03.48.12.962
12912;170874;33.96;557;03.48.12.962
12880;170869;33.96;558;03.48.12.973
12880;170870;33.96;559;03.48.12.973
12924;170864;33.96;560;03.48.12.973
12908;170875;33.96;561;03.48.12.973
12900;170869;33.96;562;03.48.12.973
12928;170860;33.96;563;03.48.12.973
12916;170860;33.96;564;03.48.12.973
12908;170872;33.96;565;03.48.12.973
12900;170863;33.96;566;03.48.12.973
12904;170869;33.96;567;03.48.12.973
12904;170871;33.96;568;03.48.12.973
12928;170872;33.96;569;03.48.12.973
12912;170867;33.96;570;03.48.12.984
12884;170863;33.96;571;03.48.12.984
12888;170869;33.96;572;03.48.12.984
12928;170859;33.96;573;03.48.12.984
12892;170861;33.96;574;03.48.12.984
12912;170861;33.96;575;03.48.13.094
12880;170865;33.96;576;03.48.13.094
12876;170860;33.96;577;03.48.13.094
12900;170858;33.96;578;03.48.13.094
12872;170860;33.96;579;03.48.13.094
12932;170859;33.96;580;03.48.13.094
12896;170853;33.96;581;03.48.13.094
12912;170858;33.96;582;03.48.13.094
12928;170853;33.96;583;03.48.13.105
12888;170862;33.96;584;03.48.13.105
12900;170852;33.96;585;03.48.13.105
12900;170849;33.96;586;03.48.13.105
12892;170854;33.96;587;03.48.13.105
12900;170851;33.96;588;03.48.13.105
12892;170852;33.96;589;03.48.13.105
12892;170850;33.96;590;03.48.13.105
12892;170845;33.96;591;03.48.13.105
12880;170841;33.96;592;03.48.13.116
12896;170846;33.96;593;03.48.13.116
12908;170841;33.96;594;03.48.13.116
12888;170848;33.96;595;03.48.13.116
12892;170849;33.96;596;03.48.13.116
12904;170843;33.96;597;03.48.13.116
12880;170846;33.96;598;03.48.13.116
12908;170838;33.96;599;03.48.13.116
12880;170850;34.00;600;03.48.13.226
12892;170852;34.00;601;03.48.13.226
12916;170845;34.00;602;03.48.13.226
12904;170840;34.00;603;03.48.13.226
12924;170844;34.00;604;03.48.13.226
12892;170844;34.00;605;03.48.13.237
12892;170845;34.00;606;03.48.13.237
12928;170841;34.00;607;03.48.13.237
12892;170851;34.00;608;03.48.13.237
12888;170851;34.00;609;03.48.13.237
12912;170843;34.00;610;03.48.13.237
12896;170846;34.00;611;03.48.13.237
12904;170851;34.00;612;03.48.13.237
12884;170849;34.00;613;03.48.13.237
12904;170846;34.00;614;03.48.13.237
12912;170852;34.00;615;03.48.13.237
12908;170848;34.00;616;03.48.13.237
12892;170847;34.00;617;03.48.13.248
12904;170848;34.00;618;03.48.13.248
12900;170851;34.00;619;03.48.13.248
12900;170852;34.00;620;03.48.13.248
12912;170857;34.00;621;03.48.13.248
12928;170858;34.00;622;03.48.13.248
12892;170854;34.00;623;03.48.13.248
12904;170863;34.00;624;03.48.13.248
12904;170854;34.00;625;03.48.13.346
12888;170860;34.00;626;03.48.13.346
12876;170859;34.00;627;03.48.13.346
12900;170856;34.00;628;03.48.13.346
12916;170866;34.00;629;03.48.13.346
12904;170863;34.00;630;03.48.13.346
12928;170869;34.00;631;03.48.13.346
12892;170868;34.00;632;03.48.13.346
12928;170866;34.00;633;03.48.13.357
12896;170861;34.00;634;03.48.13.357
12928;170863;34.00;635;03.48.13.357
12904;170865;34.00;636;03.48.13.357
12916;170866;34.00;637;03.48.13.357
12900;170873;34.00;638;03.48.13.357
12928;170877;34.00;639;03.48.13.357
12912;170873;34.00;640;03.48.13.357
12904;170872;34.00;641;03.48.13.357
12888;170875;34.00;642;03.48.13.357
12896;170885;34.00;643;03.48.13.368
12932;170878;34.00;644;03.48.13.368
12896;170867;34.00;645;03.48.13.368
12928;170875;34.00;646;03.48.13.368
12900;170876;34.00;647;03.48.13.368
12908;170875;34.00;648;03.48.13.368
12920;170878;34.00;649;03.48.13.368
12884;170888;34.00;650;03.48.13.467
12936;170879;34.00;651;03.48.13.467
12888;170881;34.00;652;03.48.13.467
12892;170878;34.00;653;03.48.13.467
12884;170889;34.00;654;03.48.13.467
12892;170882;34.00;655;03.48.13.467
12904;170884;34.00;656;03.48.13.467
12912;170884;34.00;657;03.48.13.467
12900;170885;34.00;658;03.48.13.500
12892;170885;34.00;659;03.48.13.500
12892;170891;34.00;660;03.48.13.500
12888;170888;34.00;661;03.48.13.500
12928;170891;34.00;662;03.48.13.500
12932;170895;34.00;663;03.48.13.500
12900;170901;34.00;664;03.48.13.500
12912;170893;34.00;665;03.48.13.500
12928;170897;34.00;666;03.48.13.500
12896;170907;34.00;667;03.48.13.500
12896;170914;34.00;668;03.48.13.500
12920;170905;34.00;669;03.48.13.511
12908;170902;34.00;670;03.48.13.511
12892;170910;34.00;671;03.48.13.511
12876;170919;34.00;672;03.48.13.511
12872;170917;34.00;673;03.48.13.511
12944;170916;34.00;674;03.48.13.511
12916;170917;34.00;675;03.48.13.588
12884;170909;34.00;676;03.48.13.588
12896;170921;34.00;677;03.48.13.588
12888;170914;34.00;678;03.48.13.588
12896;170921;34.00;679;03.48.13.588
12896;170923;34.00;680;03.48.13.588
12920;170926;34.00;681;03.48.13.599
12884;170926;34.00;682;03.48.13.599
12904;170928;34.00;683;03.48.13.599
12892;170933;34.00;684;03.48.13.599
12908;170925;34.00;685;03.48.13.599
12912;170930;34.00;686;03.48.13.599
12900;170926;34.00;687;03.48.13.599
12896;170923;34.00;688;03.48.13.599
12888;170920;34.00;689;03.48.13.599
12908;170926;34.00;690;03.48.13.599
12928;170916;34.00;691;03.48.13.599
12912;170909;34.00;692;03.48.13.599
12884;170899;34.00;693;03.48.13.599
12892;170896;34.00;694;03.48.13.599
12860;170899;34.00;695;03.48.13.610
12892;170888;34.00;696;03.48.13.610
12888;170885;34.00;697;03.48.13.610
12908;170874;34.00;698;03.48.13.610
12892;170876;34.00;699;03.48.13.610
12892;170875;34.00;700;03.48.13.719
12900;170865;34.00;701;03.48.13.719
12896;170861;34.00;702;03.48.13.719
12904;170864;34.00;703;03.48.13.720
12884;170852;34.00;704;03.48.13.731
12884;170848;34.00;705;03.48.13.731
12888;170852;34.00;706;03.48.13.731
12908;170842;34.00;707;03.48.13.731
12912;170847;34.00;708;03.48.13.731
12876;170846;34.00;709;03.48.13.731
12924;170842;34.00;710;03.48.13.731
12892;170834;34.00;711;03.48.13.731
12884;170839;34.00;712;03.48.13.731
12912;170837;34.00;713;03.48.13.731
12936;170839;34.00;714;03.48.13.731
12896;170839;34.00;715;03.48.13.731
12880;170840;34.00;716;03.48.13.731
12896;170841;34.00;717;03.48.13.742
12912;170838;34.00;718;03.48.13.742
12904;170839;34.00;719;03.48.13.742
12932;170839;34.00;720;03.48.13.742
12916;170835;34.00;721;03.48.13.742
12896;170844;34.00;722;03.48.13.742
12888;170841;34.00;723;03.48.13.742
12912;170838;34.00;724;03.48.13.742
12904;170836;34.00;725;03.48.13.841
12884;170845;34.00;726;03.48.13.841
12904;170848;34.00;727;03.48.13.841
12892;170851;34.00;728;03.48.13.841
12908;170843;34.00;729;03.48.13.841
12908;170837;34.00;730;03.48.13.841
12904;170847;34.00;731;03.48.13.841
12916;170840;34.00;732;03.48.13.841
12892;170839;34.00;733;03.48.13.863
12920;170847;34.00;734;03.48.13.863
12892;170843;34.00;735;03.48.13.863
12932;170845;34.00;736;03.48.13.863
12928;170850;34.00;737;03.48.13.863
12904;170844;34.00;738;03.48.13.863
12912;170850;34.00;739;03.48.13.863
12892;170843;34.00;740;03.48.13.863
12904;170850;34.00;741;03.48.13.863
12896;170851;34.00;742;03.48.13.863
12916;170848;34.00;743;03.48.13.863
12888;170839;34.00;744;03.48.13.863
12888;170848;34.00;745;03.48.13.863
12924;170845;34.00;746;03.48.13.874
12908;170847;34.00;747;03.48.13.874
12912;170849;34.00;748;03.48.13.874
12932;170843;34.00;749;03.48.13.874
12888;170853;33.96;750;03.48.13.972
12904;170851;33.96;751;03.48.13.972
12892;170851;33.96;752;03.48.13.972
12892;170855;33.96;753;03.48.13.972
12908;170843;33.96;754;03.48.13.972
12928;170846;33.96;755;03.48.13.972
12900;170844;33.96;756;03.48.13.972
12884;170845;33.96;757;03.48.13.972
12872;170845;33.96;758;03.48.13.994
12928;170843;33.96;759;03.48.13.994
12892;170836;33.96;760;03.48.13.994
12876;170839;33.96;761;03.48.13.994
12896;170842;33.96;762;03.48.13.994
12928;170842;33.96;763;03.48.13.994
12904;170836;33.96;764;03.48.13.994
12904;170840;33.96;765;03.48.13.994
12908;170835;33.96;766;03.48.13.994
12888;170829;33.96;767;03.48.14.005
12888;170834;33.96;768;03.48.14.005
12884;170836;33.96;769;03.48.14.005
12904;170844;33.96;770;03.48.14.005
12908;170843;33.96;771;03.48.14.005
12892;170841;33.96;772;03.48.14.005
12900;170840;33.96;773;03.48.14.005
12916;170834;33.96;774;03.48.14.005
12928;170840;33.96;775;03.48.14.081
12900;170836;33.96;776;03.48.14.081
12912;170835;33.96;777;03.48.14.081
12916;170838;33.96;778;03.48.14.081
12900;170839;33.96;779;03.48.14.081
12904;170845;33.96;780;03.48.14.092
12936;170842;33.96;781;03.48.14.092
12928;170846;33.96;782;03.48.14.092
12904;170849;33.96;783;03.48.14.092
12896;170845;33.96;784;03.48.14.092
12888;170843;33.96;785;03.48.14.092
12888;170844;33.96;786;03.48.14.092
12900;170849;33.96;787;03.48.14.092
12896;170852;33.96;788;03.48.14.092
12912;170843;33.96;789;03.48.14.092
12892;170856;33.96;790;03.48.14.092
12916;170847;33.96;791;03.48.14.092
12896;170853;33.96;792;03.48.14.103
12900;170856;33.96;793;03.48.14.103
12904;170859;33.96;794;03.48.14.103
12912;170857;33.96;795;03.48.14.103
12928;170855;33.96;796;03.48.14.103
12916;170850;33.96;797;03.48.14.103
12916;170851;33.96;798;03.48.14.103
12936;170854;33.96;799;03.48.14.103
12908;170858;33.96;800;03.48.14.224
12904;170848;33.96;801;03.48.14.235
12916;170855;33.96;802;03.48.14.235
12900;170861;33.96;803;03.48.14.235
12920;170851;33.96;804;03.48.14.235
12904;170854;33.96;805;03.48.14.235
12896;170862;33.96;806;03.48.14.235
12892;170862;33.96;807;03.48.14.235
12904;170855;33.96;808;03.48.14.235
12904;170856;33.96;809;03.48.14.235
12900;170852;33.96;810;03.48.14.235
12896;170858;33.96;811;03.48.14.235
12916;170860;33.96;812;03.48.14.235
12892;170854;33.96;813;03.48.14.235
12888;170855;33.96;814;03.48.14.246
12908;170860;33.96;815;03.48.14.246
12892;170863;33.96;816;03.48.14.246
12892;170862;33.96;817;03.48.14.246
12904;170860;33.96;818;03.48.14.246
12920;170861;33.96;819;03.48.14.246
12908;170853;33.96;820;03.48.14.246
12888;170862;33.96;821;03.48.14.246
12908;170869;33.96;822;03.48.14.246
12912;170863;33.96;823;03.48.14.246
12900;170857;33.96;824;03.48.14.246
12912;170864;33.96;825;03.48.14.355
12904;170867;33.96;826;03.48.14.355
12900;170872;33.96;827;03.48.14.355
12900;170868;33.96;828;03.48.14.355
12916;170861;33.96;829;03.48.14.355
12896;170871;33.96;830;03.48.14.355
12928;170866;33.96;831;03.48.14.355
12944;170865;33.96;832;03.48.14.355
12912;170875;33.96;833;03.48.14.355
12928;170878;33.96;834;03.48.14.355
12892;170877;33.96;835;03.48.14.366
12936;170866;33.96;836;03.48.14.366
12928;170869;33.96;837;03.48.14.366
12904;170878;33.96;838;03.48.14.366
12888;170874;33.96;839;03.48.14.366
12896;170877;33.96;840;03.48.14.366
12904;170877;33.96;841;03.48.14.366
12928;170876;33.96;842;03.48.14.366
12892;170882;33.96;843;03.48.14.366
12892;170884;33.96;844;03.48.14.366
12924;170883;33.96;845;03.48.14.366
12884;170877;33.96;846;03.48.14.366
12920;170875;33.96;847;03.48.14.366
12900;170882;33.96;848;03.48.14.377
12924;170875;33.96;849;03.48.14.377
12900;170878;33.96;850;03.48.14.465
12892;170867;33.96;851;03.48.14.465
12928;170867;33.96;852;03.48.14.465
12908;170864;33.96;853;03.48.14.465
12884;170853;33.96;854;03.48.14.465
12908;170866;33.96;855;03.48.14.465
12928;170849;33.96;856;03.48.14.476
12896;170844;33.96;857;03.48.14.476
12908;170838;33.96;858;03.48.14.476
12904;170840;33.96;859;03.48.14.476
12916;170833;33.96;860;03.48.14.476
12904;170831;33.96;861;03.48.14.476
12888;170813;33.96;862;03.48.14.476
12912;170816;33.96;863;03.48.14.487
12928;170813;33.96;864;03.48.14.487
12908;170808;33.96;865;03.48.14.487
12924;170814;33.96;866;03.48.14.487
12904;170805;33.96;867;03.48.14.487
12892;170804;33.96;868;03.48.14.487
12904;170798;33.96;869;03.48.14.487
12900;170802;33.96;870;03.48.14.487
12908;170801;33.96;871;03.48.14.487
12936;170795;33.96;872;03.48.14.487
12928;170799;33.96;873;03.48.14.487
12912;170795;33.96;874;03.48.14.487
12908;170793;33.96;875;03.48.14.586
12892;170785;33.96;876;03.48.14.586
12916;170791;33.96;877;03.48.14.586
12928;170798;33.96;878;03.48.14.597
12904;170801;33.96;879;03.48.14.597
12896;170791;33.96;880;03.48.14.597
12916;170789;33.96;881;03.48.14.597
12912;170793;33.96;882;03.48.14.597
12912;170793;33.96;883;03.48.14.597
12912;170795;33.96;884;03.48.14.597
12876;170791;33.96;885;03.48.14.597
12896;170791;33.96;886;03.48.14.597
12912;170787;33.96;887;03.48.14.597
12872;170788;33.96;888;03.48.14.597
12904;170790;33.96;889;03.48.14.597
12912;170797;33.96;890;03.48.14.597
12892;170798;33.96;891;03.48.14.608
12900;170786;33.96;892;03.48.14.619
12892;170796;33.96;893;03.48.14.619
12888;170791;33.96;894;03.48.14.619
12884;170784;33.96;895;03.48.14.630
12928;170791;33.96;896;03.48.14.630
12916;170790;33.96;897;03.48.14.630
12932;170787;33.96;898;03.48.14.630
12940;170787;33.96;899;03.48.14.630
12884;170792;33.96;900;03.48.14.717
12928;170784;33.96;901;03.48.14.717
12892;170783;33.96;902;03.48.14.717
12900;170783;33.96;903;03.48.14.717
12888;170781;33.96;904;03.48.14.717
12900;170793;33.96;905;03.48.14.717
12904;170789;33.96;906;03.48.14.717
12920;170780;33.96;907;03.48.14.717
12896;170785;33.96;908;03.48.14.717
12884;170783;33.96;909;03.48.14.717
12928;170783;33.96;910;03.48.14.717
12896;170790;33.96;911;03.48.14.717
12904;170780;33.96;912;03.48.14.728
12896;170782;33.96;913;03.48.14.728
12880;170784;33.96;914;03.48.14.728
12900;170785;33.96;915;03.48.14.728
12912;170778;33.96;916;03.48.14.728
12904;170777;33.96;917;03.48.14.728
12892;170777;33.96;918;03.48.14.728
12900;170783;33.96;919;03.48.14.728
12900;170770;33.96;920;03.48.14.728
12916;170773;33.96;921;03.48.14.728
12896;170777;33.96;922;03.48.14.728
12912;170776;33.96;923;03.48.14.728
12928;170775;33.96;924;03.48.14.739
12880;170776;33.96;925;03.48.14.849
12876;170768;33.96;926;03.48.14.849
12860;170761;33.96;927;03.48.14.849
12892;170763;33.96;928;03.48.14.849
12888;170765;33.96;929;03.48.14.849
12912;170768;33.96;930;03.48.14.849
12884;170771;33.96;931;03.48.14.849
12924;170764;33.96;932;03.48.14.849
12904;170772;33.96;933;03.48.14.860
12908;170770;33.96;934;03.48.14.860
12904;170765;33.96;935;03.48.14.860
12928;170771;33.96;936;03.48.14.860
12928;170763;33.96;937;03.48.14.860
12904;170770;33.96;938;03.48.14.860
12892;170766;33.96;939;03.48.14.860
12892;170774;33.96;940;03.48.14.860
12892;170768;33.96;941;03.48.14.860
12912;170771;33.96;942;03.48.14.871
12896;170782;33.96;943;03.48.14.871
12896;170773;33.96;944;03.48.14.871
12896;170779;33.96;945;03.48.14.871
12916;170770;33.96;946;03.48.14.871
12912;170770;33.96;947;03.48.14.871
12900;170771;33.96;948;03.48.14.871
12904;170777;33.96;949;03.48.14.871
12884;170776;33.96;950;03.48.14.959
12896;170777;33.96;951;03.48.14.959
12900;170779;33.96;952;03.48.14.959
12916;170781;33.96;953;03.48.14.959
12920;170779;33.96;954;03.48.14.959
12884;170787;33.96;955;03.48.14.970
12892;170791;33.96;956;03.48.14.970
12888;170785;33.96;957;03.48.14.970
12880;170789;33.96;958;03.48.14.970
12892;170798;33.96;959;03.48.14.970
12904;170799;33.96;960;03.48.14.970
12900;170792;33.96;961;03.48.14.970
12892;170795;33.96;962;03.48.14.981
12920;170799;33.96;963;03.48.14.981
12904;170799;33.96;964;03.48.14.981
12928;170796;33.96;965;03.48.14.981
12920;170800;33.96;966;03.48.14.981
12892;170794;33.96;967;03.48.14.981
12908;170801;33.96;968;03.48.14.981
12888;170801;33.96;969;03.48.14.981
12908;170803;33.96;970;03.48.14.981
12904;170797;33.96;971;03.48.14.981
12904;170794;33.96;972;03.48.14.981
12928;170805;33.96;973;03.48.14.981
12908;170799;33.96;974;03.48.14.981
12884;170799;33.96;975;03.48.15.090
12892;170799;33.96;976;03.48.15.090
12896;170805;33.96;977;03.48.15.090
12904;170802;33.96;978;03.48.15.090
12888;170800;33.96;979;03.48.15.090
12900;170810;33.96;980;03.48.15.090
12904;170797;33.96;981;03.48.15.090
12896;170808;33.96;982;03.48.15.090
12908;170813;33.96;983;03.48.15.090
12888;170812;33.96;984;03.48.15.090
12904;170812;33.96;985;03.48.15.090
12904;170817;33.96;986;03.48.15.090
12872;170811;33.96;987;03.48.15.090
12928;170815;33.96;988;03.48.15.090
12892;170825;33.96;989;03.48.15.101
12892;170818;33.96;990;03.48.15.101
12904;170811;33.96;991;03.48.15.101
12860;170815;33.96;992;03.48.15.101
12888;170824;33.96;993;03.48.15.101
12912;170818;33.96;994;03.48.15.101
12912;170822;33.96;995;03.48.15.101
12900;170827;33.96;996;03.48.15.101
12892;170823;33.96;997;03.48.15.101
12900;170828;33.96;998;03.48.15.101
12928;170830;33.96;999;03.48.15.101
12924;170823;33.96;000;03.48.15.211
12904;170837;33.96;001;03.48.15.211
12884;170830;33.96;002;03.48.15.211
12916;170824;33.96;003;03.48.15.211
12900;170828;33.96;004;03.48.15.211
12892;170824;33.96;005;03.48.15.211
12904;170817;33.96;006;03.48.15.211
12928;170809;33.96;007;03.48.15.211
12896;170816;33.96;008;03.48.15.211
12916;170808;33.96;009;03.48.15.211
12904;170807;33.96;010;03.48.15.211
12888;170801;33.96;011;03.48.15.222
12916;170798;33.96;012;03.48.15.222
12908;170792;33.96;013;03.48.15.222
12880;170781;33.96;014;03.48.15.222
12880;170790;33.96;015;03.48.15.222
12888;170772;33.96;016;03.48.15.222
12892;170770;33.96;017;03.48.15.222
12888;170767;33.96;018;03.48.15.222
12900;170762;33.96;019;03.48.15.222
12900;170759;33.96;020;03.48.15.222
12896;170759;33.96;021;03.48.15.222
12868;170751;33.96;022;03.48.15.222
12872;170746;33.96;023;03.48.15.222
12928;170748;33.96;024;03.48.15.233
12896;170741;33.96;025;03.48.15.343
12876;170739;33.96;026;03.48.15.343
12912;170735;33.96;027;03.48.15.343
12880;170730;33.96;028;03.48.15.343
12868;170720;33.96;029;03.48.15.343
12912;170724;33.96;030;03.48.15.343
12896;170713;33.96;031;03.48.15.343
12928;170724;33.96;032;03.48.15.354
12928;170724;33.96;033;03.48.15.354
12908;170712;33.96;034;03.48.15.354
12876;170716;33.96;035;03.48.15.354
12888;170707;33.96;036;03.48.15.354
12912;170712;33.96;037;03.48.15.354
12908;170703;33.96;038;03.48.15.354
12924;170711;33.96;039;03.48.15.354
12928;170704;33.96;040;03.48.15.354
12924;170716;33.96;041;03.48.15.354
12896;170699;33.96;042;03.48.15.354
12908;170704;33.96;043;03.48.15.354
12908;170699;33.96;044;03.48.15.354
12928;170697;33.96;045;03.48.15.364
12928;170701;33.96;046;03.48.15.364
12872;170692;33.96;047;03.48.15.364
12884;170687;33.96;048;03.48.15.364
12916;170687;33.96;049;03.48.15.364
12904;170695;34.00;050;03.48.15.473
12892;170689;34.00;051;03.48.15.473
12908;170691;34.00;052;03.48.15.473
12904;170690;34.00;053;03.48.15.473
12904;170682;34.00;054;03.48.15.473
12928;170685;34.00;055;03.48.15.473
12904;170687;34.00;056;03.48.15.473
12912;170699;34.00;057;03.48.15.473
12876;170695;34.00;058;03.48.15.473
12912;170698;34.00;059;03.48.15.473
12912;170692;34.00;060;03.48.15.473
12904;170698;34.00;061;03.48.15.484
12896;170697;34.00;062;03.48.15.484
12880;170697;34.00;063;03.48.15.484
12912;170699;34.00;064;03.48.15.484
12860;170699;34.00;065;03.48.15.484
12872;170699;34.00;066;03.48.15.484
12892;170692;34.00;067;03.48.15.484
12892;170697;34.00;068;03.48.15.484
12912;170697;34.00;069;03.48.15.484
12880;170701;34.00;070;03.48.15.484
12912;170695;34.00;071;03.48.15.484
12900;170695;34.00;072;03.48.15.484
12904;170700;34.00;073;03.48.15.484
12888;170699;34.00;074;03.48.15.495
12892;170701;34.00;075;03.48.15.594
12904;170691;34.00;076;03.48.15.594
12884;170695;34.00;077;03.48.15.594
12892;170696;34.00;078;03.48.15.594
12912;170695;34.00;079;03.48.15.594
12920;170699;34.00;080;03.48.15.594
12896;170693;34.00;081;03.48.15.594
12888;170704;34.00;082;03.48.15.594
12888;170697;34.00;083;03.48.15.616
12884;170697;34.00;084;03.48.15.616
12896;170694;34.00;085;03.48.15.616
12936;170697;34.00;086;03.48.15.616
12912;170704;34.00;087;03.48.15.616
12924;170702;34.00;088;03.48.15.616
12904;170702;34.00;089;03.48.15.616
12928;170705;34.00;090;03.48.15.616
12904;170702;34.00;091;03.48.15.616
12872;170701;34.00;092;03.48.15.616
12904;170699;34.00;093;03.48.15.616
12912;170706;34.00;094;03.48.15.616
12896;170705;34.00;095;03.48.15.627
12908;170692;34.00;096;03.48.15.627
12928;170706;34.00;097;03.48.15.627
12900;170706;34.00;098;03.48.15.627
12908;170698;34.00;099;03.48.15.627
12912;170708;33.96;100;03.48.15.714
12928;170707;33.96;101;03.48.15.714
12888;170706;33.96;102;03.48.15.714
12900;170704;33.96;103;03.48.15.714
12928;170713;33.96;104;03.48.15.714
12912;170710;33.96;105;03.48.15.714
12920;170718;33.96;106;03.48.15.714
12912;170716;33.96;107;03.48.15.725
12908;170709;33.96;108;03.48.15.725
12900;170712;33.96;109;03.48.15.725
12884;170719;33.96;110;03.48.15.725
12908;170713;33.96;111;03.48.15.725
12916;170719;33.96;112;03.48.15.725
12932;170725;33.96;113;03.48.15.725
12916;170720;33.96;114;03.48.15.725
12896;170728;33.96;115;03.48.15.725
12884;170728;33.96;116;03.48.15.725
12912;170728;33.96;117;03.48.15.725
12892;170728;33.96;118;03.48.15.725
12916;170728;33.96;119;03.48.15.725
12912;170736;33.96;120;03.48.15.736
12896;170733;33.96;121;03.48.15.736
12908;170736;33.96;122;03.48.15.736
12928;170735;33.96;123;03.48.15.736
12912;170740;33.96;124;03.48.15.736
12892;170747;33.96;125;03.48.15.846
12896;170743;33.96;126;03.48.15.846
12920;170747;33.96;127;03.48.15.846
12892;170753;33.96;128;03.48.15.857
12884;170744;33.96;129;03.48.15.857
12912;170757;33.96;130;03.48.15.857
12944;170749;33.96;131;03.48.15.857
12900;170750;33.96;132;03.48.15.857
12892;170742;33.96;133;03.48.15.857
12896;170748;33.96;134;03.48.15.857
12900;170756;33.96;135;03.48.15.857
12912;170746;33.96;136;03.48.15.857
12920;170750;33.96;137;03.48.15.857
12888;170753;33.96;138;03.48.15.857
12888;170757;33.96;139;03.48.15.857
12884;170751;33.96;140;03.48.15.857
12880;170750;33.96;141;03.48.15.868
12908;170749;33.96;142;03.48.15.868
12876;170753;33.96;143;03.48.15.868
12916;170765;33.96;144;03.48.15.868
12908;170761;33.96;145;03.48.15.868
12904;170755;33.96;146;03.48.15.868
12880;170757;33.96;147;03.48.15.868
12900;170766;33.96;148;03.48.15.868
12928;170759;33.96;149;03.48.15.868
12924;170752;33.96;150;03.48.15.988
12912;170764;33.96;151;03.48.15.988
12912;170758;33.96;152;03.48.15.988
12912;170760;33.96;153;03.48.15.988
12896;170760;33.96;154;03.48.15.988
12900;170752;33.96;155;03.48.15.988
12904;170750;33.96;156;03.48.15.988
12876;170756;33.96;157;03.48.15.988
12904;170758;33.96;158;03.48.15.988
12892;170764;33.96;159;03.48.15.988
12912;170768;33.96;160;03.48.15.988
12888;170760;33.96;161;03.48.15.988
12868;170772;33.96;162;03.48.15.988
12912;170770;33.96;163;03.48.15.999
12896;170766;33.96;164;03.48.15.999
12900;170767;33.96;165;03.48.15.999
12908;170765;33.96;166;03.48.15.999
12860;170761;33.96;167;03.48.15.999
12904;170764;33.96;168;03.48.15.999
12860;170762;33.96;169;03.48.15.999
12912;170758;33.96;170;03.48.15.999
12900;170755;33.96;171;03.48.15.999
12880;170735;33.96;172;03.48.15.999
12920;170739;33.96;173;03.48.15.999
12876;170730;33.96;174;03.48.15.999
12900;170729;33.96;175;03.48.16.087
12888;170733;33.96;176;03.48.16.087
12912;170723;33.96;177;03.48.16.087
12892;170718;33.96;178;03.48.16.087
12928;170717;33.96;179;03.48.16.087
12888;170716;33.96;180;03.48.16.087
12944;170708;33.96;181;03.48.16.087
12888;170708;33.96;182;03.48.16.087
12896;170707;33.96;183;03.48.16.109
12936;170698;33.96;184;03.48.16.109
12888;170698;33.96;185;03.48.16.109
12932;170697;33.96;186;03.48.16.109
12892;170684;33.96;187;03.48.16.109
12916;170688;33.96;188;03.48.16.109
12892;170689;33.96;189;03.48.16.109
12920;170682;33.96;190;03.48.16.109
12912;170679;33.96;191;03.48.16.109
12876;170680;33.96;192;03.48.16.120
12920;170667;33.96;193;03.48.16.120
12896;170679;33.96;194;03.48.16.120
12876;170675;33.96;195;03.48.16.120
12908;170675;33.96;196;03.48.16.120
12908;170674;33.96;197;03.48.16.120
12892;170671;33.96;198;03.48.16.120
12896;170674;33.96;199;03.48.16.120
12912;170670;33.96;200;03.48.16.207
12892;170676;33.96;201;03.48.16.207
12896;170672;33.96;202;03.48.16.207
12896;170672;33.96;203;03.48.16.207
12912;170668;33.96;204;03.48.16.218
12912;170670;33.96;205;03.48.16.218
12892;170670;33.96;206;03.48.16.218
12892;170670;33.96;207;03.48.16.218
12928;170670;33.96;208;03.48.16.218
12916;170667;33.96;209;03.48.16.218
12944;170657;33.96;210;03.48.16.218
12924;170664;33.96;211;03.48.16.218
12912;170663;33.96;212;03.48.16.218
12908;170655;33.96;213;03.48.16.218
12888;170660;33.96;214;03.48.16.218
12932;170652;33.96;215;03.48.16.218
12912;170661;33.96;216;03.48.16.218
12908;170669;33.96;217;03.48.16.229
12876;170660;33.96;218;03.48.16.229
12892;170652;33.96;219;03.48.16.229
12928;170661;33.96;220;03.48.16.229
12888;170667;33.96;221;03.48.16.229
12928;170653;33.96;222;03.48.16.229
12924;170665;33.96;223;03.48.16.229
12912;170659;33.96;224;03.48.16.229
12904;170662;33.96;225;03.48.16.360
12904;170657;33.96;226;03.48.16.360
12912;170663;33.96;227;03.48.16.360
12892;170667;33.96;228;03.48.16.360
12944;170664;33.96;229;03.48.16.360
12928;170661;33.96;230;03.48.16.360
12888;170668;33.96;231;03.48.16.360
12912;170663;33.96;232;03.48.16.360
12904;170669;33.96;233;03.48.16.360
12884;170668;33.96;234;03.48.16.360
12928;170671;33.96;235;03.48.16.360
12908;170680;33.96;236;03.48.16.360
12916;170672;33.96;237;03.48.16.360
12892;170673;33.96;238;03.48.16.371
12908;170670;33.96;239;03.48.16.371
12888;170677;33.96;240;03.48.16.371
12908;170674;33.96;241;03.48.16.371
12908;170673;33.96;242;03.48.16.393
12916;170670;33.96;243;03.48.16.393
12900;170680;33.96;244;03.48.16.393
12912;170671;33.96;245;03.48.16.393
12908;170668;33.96;246;03.48.16.393
12892;170675;33.96;247;03.48.16.393
12900;170674;33.96;248;03.48.16.393
12936;170673;33.96;249;03.48.16.393
12892;170673;33.96;250;03.48.16.481
12920;170670;33.96;251;03.48.16.481
12892;170674;33.96;252;03.48.16.481
12904;170668;33.96;253;03.48.16.481
12860;170673;33.96;254;03.48.16.481
12900;170665;33.96;255;03.48.16.481
12912;170668;33.96;256;03.48.16.481
12892;170669;33.96;257;03.48.16.481
12880;170671;33.96;258;03.48.16.492
12908;170673;33.96;259;03.48.16.492
12876;170681;33.96;260;03.48.16.492
12904;170677;33.96;261;03.48.16.492
12880;170684;33.96;262;03.48.16.492
12900;170677;33.96;263;03.48.16.492
12900;170677;33.96;264;03.48.16.492
12904;170684;33.96;265;03.48.16.492
12916;170694;33.96;266;03.48.16.492
12916;170687;33.96;267;03.48.16.503
12896;170675;33.96;268;03.48.16.503
12892;170686;33.96;269;03.48.16.503
12916;170683;33.96;270;03.48.16.503
12896;170685;33.96;271;03.48.16.503
12912;170695;33.96;272;03.48.16.503
12908;170691;33.96;273;03.48.16.503
12912;170685;33.96;274;03.48.16.503
12900;170694;33.96;275;03.48.16.591
12900;170696;33.96;276;03.48.16.591
12872;170688;33.96;277;03.48.16.591
12928;170688;33.96;278;03.48.16.591
12928;170688;33.96;279;03.48.16.591
12900;170701;33.96;280;03.48.16.591
12912;170694;33.96;281;03.48.16.602
