gsr; bvp; skt; skt2; Cont; time
12896;000822;34.72;825;03.44.37.208
12912;057546;34.72;826;03.44.37.208
12912;073946;34.72;827;03.44.37.208
12928;090349;34.72;828;03.44.37.208
12912;106713;34.72;829;03.44.37.208
12888;123082;34.72;830;03.44.37.208
12904;139464;34.72;831;03.44.37.208
12912;155859;34.72;832;03.44.37.208
12888;170922;34.72;833;03.44.37.219
12892;170649;34.72;834;03.44.37.219
12928;170634;34.72;835;03.44.37.219
12916;170639;34.72;836;03.44.37.219
12892;170640;34.72;837;03.44.37.219
12920;170632;34.72;838;03.44.37.219
12892;170633;34.72;839;03.44.37.219
12928;170634;34.72;840;03.44.37.219
12912;170627;34.72;841;03.44.37.219
12892;170627;34.72;842;03.44.37.230
12892;170629;34.72;843;03.44.37.230
12928;170630;34.72;844;03.44.37.230
12928;170631;34.72;845;03.44.37.230
12928;170636;34.72;846;03.44.37.230
12928;170636;34.72;847;03.44.37.230
12904;170632;34.72;848;03.44.37.230
12900;170633;34.72;849;03.44.37.230
12904;170643;34.72;850;03.44.37.329
12920;170639;34.72;851;03.44.37.329
12896;170635;34.72;852;03.44.37.329
12892;170644;34.72;853;03.44.37.329
12916;170637;34.72;854;03.44.37.329
12908;170646;34.72;855;03.44.37.329
12892;170636;34.72;856;03.44.37.329
12888;170640;34.72;857;03.44.37.340
12928;170637;34.72;858;03.44.37.351
12920;170644;34.72;859;03.44.37.351
12896;170646;34.72;860;03.44.37.351
12892;170642;34.72;861;03.44.37.351
12892;170650;34.72;862;03.44.37.351
12904;170644;34.72;863;03.44.37.351
12912;170652;34.72;864;03.44.37.362
12904;170647;34.72;865;03.44.37.362
12920;170647;34.72;866;03.44.37.362
12896;170647;34.72;867;03.44.37.384
12912;170641;34.72;868;03.44.37.384
12888;170651;34.72;869;03.44.37.384
12892;170649;34.72;870;03.44.37.384
12888;170645;34.72;871;03.44.37.384
12884;170651;34.72;872;03.44.37.384
12892;170650;34.72;873;03.44.37.384
12912;170653;34.72;874;03.44.37.395
12920;170650;34.76;875;03.44.37.450
12912;170643;34.76;876;03.44.37.450
12928;170653;34.76;877;03.44.37.450
12892;170645;34.76;878;03.44.37.461
12920;170659;34.76;879;03.44.37.461
12892;170652;34.76;880;03.44.37.461
12908;170650;34.76;881;03.44.37.461
12900;170651;34.76;882;03.44.37.461
12912;170649;34.76;883;03.44.37.461
12908;170650;34.76;884;03.44.37.461
12928;170648;34.76;885;03.44.37.461
12892;170640;34.76;886;03.44.37.461
12884;170638;34.76;887;03.44.37.461
12892;170635;34.76;888;03.44.37.461
12900;170621;34.76;889;03.44.37.461
12892;170628;34.76;890;03.44.37.461
12904;170618;34.76;891;03.44.37.472
12896;170612;34.76;892;03.44.37.472
12904;170608;34.76;893;03.44.37.472
12892;170601;34.76;894;03.44.37.472
12912;170598;34.76;895;03.44.37.472
12908;170601;34.76;896;03.44.37.472
12928;170596;34.76;897;03.44.37.472
12928;170584;34.76;898;03.44.37.472
12932;170595;34.76;899;03.44.37.472
12900;170583;34.76;900;03.44.37.603
12912;170578;34.76;901;03.44.37.603
12904;170576;34.76;902;03.44.37.603
12920;170574;34.76;903;03.44.37.603
12860;170565;34.76;904;03.44.37.603
12900;170568;34.76;905;03.44.37.603
12916;170555;34.76;906;03.44.37.603
12888;170558;34.76;907;03.44.37.603
12900;170558;34.76;908;03.44.37.603
12912;170548;34.76;909;03.44.37.603
12896;170557;34.76;910;03.44.37.603
12876;170552;34.76;911;03.44.37.603
12924;170548;34.76;912;03.44.37.614
12872;170549;34.76;913;03.44.37.614
12876;170548;34.76;914;03.44.37.614
12920;170553;34.76;915;03.44.37.614
12868;170545;34.76;916;03.44.37.614
12928;170551;34.76;917;03.44.37.614
12900;170544;34.76;918;03.44.37.614
12884;170550;34.76;919;03.44.37.614
12900;170536;34.76;920;03.44.37.614
12884;170538;34.76;921;03.44.37.614
12904;170536;34.76;922;03.44.37.614
12892;170536;34.76;923;03.44.37.614
12912;170543;34.76;924;03.44.37.614
12896;170535;34.76;925;03.44.37.735
12920;170528;34.76;926;03.44.37.735
12872;170536;34.76;927;03.44.37.735
12892;170541;34.76;928;03.44.37.735
12900;170534;34.76;929;03.44.37.735
12928;170529;34.76;930;03.44.37.735
12904;170532;34.76;931;03.44.37.735
12900;170529;34.76;932;03.44.37.735
12896;170524;34.76;933;03.44.37.746
12928;170524;34.76;934;03.44.37.746
12916;170526;34.76;935;03.44.37.746
12908;170523;34.76;936;03.44.37.746
12904;170525;34.76;937;03.44.37.746
12900;170526;34.76;938;03.44.37.746
12876;170531;34.76;939;03.44.37.746
12884;170532;34.76;940;03.44.37.746
12912;170531;34.76;941;03.44.37.746
12884;170536;34.76;942;03.44.37.746
12900;170523;34.76;943;03.44.37.746
12904;170526;34.76;944;03.44.37.746
12876;170527;34.76;945;03.44.37.746
12892;170529;34.76;946;03.44.37.746
12896;170531;34.76;947;03.44.37.758
12900;170529;34.76;948;03.44.37.758
12904;170527;34.76;949;03.44.37.758
12860;170535;34.76;950;03.44.37.824
12872;170526;34.76;951;03.44.37.824
12888;170528;34.76;952;03.44.37.824
12912;170521;34.76;953;03.44.37.824
12888;170519;34.76;954;03.44.37.824
12888;170525;34.76;955;03.44.37.824
12860;170522;34.76;956;03.44.37.835
12904;170527;34.76;957;03.44.37.835
12912;170517;34.76;958;03.44.37.835
12916;170516;34.76;959;03.44.37.835
12920;170518;34.76;960;03.44.37.835
12904;170513;34.76;961;03.44.37.835
12928;170516;34.76;962;03.44.37.835
12888;170509;34.76;963;03.44.37.835
12884;170514;34.76;964;03.44.37.835
12900;170520;34.76;965;03.44.37.835
12904;170522;34.76;966;03.44.37.835
12928;170524;34.76;967;03.44.37.835
12916;170515;34.76;968;03.44.37.835
12932;170517;34.76;969;03.44.37.835
12888;170516;34.76;970;03.44.37.846
12912;170527;34.76;971;03.44.37.846
12892;170521;34.76;972;03.44.37.846
12916;170525;34.76;973;03.44.37.846
12936;170527;34.76;974;03.44.37.846
12876;170523;34.76;975;03.44.37.944
12900;170525;34.76;976;03.44.37.944
12904;170529;34.76;977;03.44.37.944
12888;170528;34.76;978;03.44.37.955
12868;170524;34.76;979;03.44.37.955
12892;170527;34.76;980;03.44.37.955
12912;170517;34.76;981;03.44.37.955
12908;170521;34.76;982;03.44.37.955
12884;170530;34.76;983;03.44.37.955
12912;170525;34.76;984;03.44.37.955
12892;170531;34.76;985;03.44.37.955
12900;170527;34.76;986;03.44.37.955
12928;170534;34.76;987;03.44.37.955
12892;170523;34.76;988;03.44.37.955
12900;170538;34.76;989;03.44.37.955
12912;170536;34.76;990;03.44.37.955
12860;170547;34.76;991;03.44.37.966
12896;170543;34.76;992;03.44.37.966
12888;170538;34.76;993;03.44.37.966
12900;170542;34.76;994;03.44.37.966
12928;170545;34.76;995;03.44.37.966
12880;170545;34.76;996;03.44.37.966
12904;170547;34.76;997;03.44.37.966
12880;170550;34.76;998;03.44.37.966
12920;170550;34.76;999;03.44.37.966
12896;170560;34.76;000;03.44.38.097
12884;170549;34.76;001;03.44.38.097
12916;170542;34.76;002;03.44.38.097
12904;170549;34.76;003;03.44.38.097
12912;170546;34.76;004;03.44.38.097
12912;170561;34.76;005;03.44.38.097
12896;170546;34.76;006;03.44.38.097
12900;170547;34.76;007;03.44.38.097
12904;170554;34.76;008;03.44.38.097
12892;170544;34.76;009;03.44.38.097
12884;170550;34.76;010;03.44.38.097
12904;170553;34.76;011;03.44.38.097
12888;170554;34.76;012;03.44.38.108
12912;170549;34.76;013;03.44.38.108
12904;170555;34.76;014;03.44.38.108
12888;170547;34.76;015;03.44.38.108
12892;170556;34.76;016;03.44.38.108
12904;170551;34.76;017;03.44.38.108
12928;170552;34.76;018;03.44.38.108
12928;170558;34.76;019;03.44.38.108
12888;170557;34.76;020;03.44.38.108
12892;170554;34.76;021;03.44.38.108
12892;170554;34.76;022;03.44.38.108
12940;170547;34.76;023;03.44.38.108
12928;170544;34.76;024;03.44.38.110
12880;170534;34.76;025;03.44.38.219
12908;170534;34.76;026;03.44.38.219
12916;170529;34.76;027;03.44.38.219
12892;170519;34.76;028;03.44.38.219
12916;170516;34.76;029;03.44.38.219
12916;170511;34.76;030;03.44.38.219
12904;170522;34.76;031;03.44.38.219
12884;170508;34.76;032;03.44.38.219
12892;170508;34.76;033;03.44.38.230
12904;170497;34.76;034;03.44.38.230
12888;170500;34.76;035;03.44.38.230
12896;170492;34.76;036;03.44.38.230
12892;170483;34.76;037;03.44.38.230
12916;170482;34.76;038;03.44.38.230
12892;170475;34.76;039;03.44.38.230
12916;170478;34.76;040;03.44.38.230
12928;170471;34.76;041;03.44.38.230
12904;170472;34.76;042;03.44.38.240
12900;170470;34.76;043;03.44.38.240
12884;170463;34.76;044;03.44.38.240
12904;170456;34.76;045;03.44.38.240
12884;170447;34.76;046;03.44.38.240
12912;170449;34.76;047;03.44.38.240
12904;170447;34.76;048;03.44.38.240
12904;170438;34.76;049;03.44.38.240
12904;170428;34.76;050;03.44.38.350
12908;170430;34.76;051;03.44.38.350
12884;170429;34.76;052;03.44.38.350
12896;170423;34.76;053;03.44.38.350
12892;170419;34.76;054;03.44.38.351
12896;170430;34.76;055;03.44.38.351
12892;170430;34.76;056;03.44.38.362
12900;170427;34.76;057;03.44.38.362
12896;170420;34.76;058;03.44.38.362
12928;170418;34.76;059;03.44.38.362
12904;170416;34.76;060;03.44.38.362
12904;170419;34.76;061;03.44.38.362
12912;170416;34.76;062;03.44.38.362
12860;170406;34.76;063;03.44.38.362
12888;170414;34.76;064;03.44.38.362
12932;170408;34.76;065;03.44.38.362
12896;170409;34.76;066;03.44.38.362
12916;170409;34.76;067;03.44.38.362
12904;170405;34.76;068;03.44.38.362
12904;170417;34.76;069;03.44.38.373
12920;170413;34.76;070;03.44.38.373
12928;170407;34.76;071;03.44.38.373
12892;170408;34.76;072;03.44.38.373
12900;170402;34.76;073;03.44.38.373
12928;170411;34.76;074;03.44.38.373
12908;170406;34.76;075;03.44.38.450
12884;170406;34.76;076;03.44.38.450
12904;170410;34.76;077;03.44.38.461
12892;170414;34.76;078;03.44.38.461
12888;170413;34.76;079;03.44.38.461
12904;170405;34.76;080;03.44.38.461
12884;170410;34.76;081;03.44.38.461
12904;170406;34.76;082;03.44.38.461
12892;170404;34.76;083;03.44.38.461
12904;170398;34.76;084;03.44.38.461
12928;170412;34.76;085;03.44.38.461
12908;170409;34.76;086;03.44.38.461
12936;170410;34.76;087;03.44.38.461
12920;170404;34.76;088;03.44.38.461
12896;170403;34.76;089;03.44.38.461
12896;170397;34.76;090;03.44.38.473
12928;170397;34.76;091;03.44.38.473
12892;170409;34.76;092;03.44.38.473
12912;170413;34.76;093;03.44.38.473
12900;170391;34.76;094;03.44.38.473
12880;170407;34.76;095;03.44.38.473
12928;170410;34.76;096;03.44.38.473
12884;170408;34.76;097;03.44.38.473
12928;170407;34.76;098;03.44.38.473
12904;170402;34.76;099;03.44.38.473
12900;170403;34.76;100;03.44.38.582
12928;170407;34.76;101;03.44.38.582
12888;170409;34.76;102;03.44.38.582
12896;170402;34.76;103;03.44.38.582
12892;170413;34.76;104;03.44.38.582
12888;170405;34.76;105;03.44.38.582
12908;170407;34.76;106;03.44.38.582
12908;170408;34.76;107;03.44.38.582
12924;170405;34.76;108;03.44.38.582
12872;170407;34.76;109;03.44.38.582
12900;170405;34.76;110;03.44.38.582
12896;170405;34.76;111;03.44.38.582
12892;170409;34.76;112;03.44.38.582
12904;170417;34.76;113;03.44.38.594
12904;170413;34.76;114;03.44.38.594
12896;170407;34.76;115;03.44.38.594
12892;170411;34.76;116;03.44.38.594
12916;170413;34.76;117;03.44.38.594
12872;170412;34.76;118;03.44.38.594
12908;170419;34.76;119;03.44.38.594
12924;170425;34.76;120;03.44.38.594
12888;170420;34.76;121;03.44.38.594
12928;170424;34.76;122;03.44.38.594
12904;170430;34.76;123;03.44.38.594
12916;170427;34.76;124;03.44.38.594
12888;170421;34.76;125;03.44.38.725
12920;170429;34.76;126;03.44.38.725
12904;170430;34.76;127;03.44.38.725
12924;170424;34.76;128;03.44.38.725
12888;170429;34.76;129;03.44.38.725
12916;170430;34.76;130;03.44.38.725
12892;170434;34.76;131;03.44.38.725
12912;170426;34.76;132;03.44.38.725
12888;170430;34.76;133;03.44.38.735
12908;170435;34.76;134;03.44.38.735
12916;170437;34.76;135;03.44.38.735
12892;170435;34.76;136;03.44.38.735
12888;170445;34.76;137;03.44.38.735
12900;170439;34.76;138;03.44.38.735
12892;170438;34.76;139;03.44.38.735
12912;170439;34.76;140;03.44.38.735
12912;170445;34.76;141;03.44.38.735
12924;170441;34.76;142;03.44.38.735
12904;170436;34.76;143;03.44.38.735
12904;170451;34.76;144;03.44.38.735
12876;170440;34.76;145;03.44.38.735
12920;170439;34.76;146;03.44.38.746
12892;170449;34.76;147;03.44.38.746
12928;170453;34.76;148;03.44.38.746
12928;170453;34.76;149;03.44.38.746
12920;170448;34.76;150;03.44.38.856
12880;170448;34.76;151;03.44.38.856
12892;170454;34.76;152;03.44.38.856
12892;170448;34.76;153;03.44.38.867
12880;170455;34.76;154;03.44.38.867
12928;170440;34.76;155;03.44.38.867
12896;170451;34.76;156;03.44.38.867
12920;170445;34.76;157;03.44.38.867
12924;170446;34.76;158;03.44.38.867
12928;170443;34.76;159;03.44.38.867
12880;170448;34.76;160;03.44.38.867
12900;170452;34.76;161;03.44.38.867
12916;170451;34.76;162;03.44.38.867
12932;170451;34.76;163;03.44.38.867
12936;170468;34.76;164;03.44.38.867
12896;170457;34.76;165;03.44.38.867
12904;170459;34.76;166;03.44.38.867
12892;170464;34.76;167;03.44.38.900
12888;170457;34.76;168;03.44.38.900
12928;170463;34.76;169;03.44.38.900
12888;170469;34.76;170;03.44.38.911
12928;170470;34.76;171;03.44.38.911
12900;170462;34.76;172;03.44.38.911
12900;170465;34.76;173;03.44.38.911
12904;170464;34.76;174;03.44.38.911
12912;170463;34.76;175;03.44.38.944
12920;170454;34.76;176;03.44.38.955
12892;170453;34.76;177;03.44.38.955
12928;170453;34.76;178;03.44.38.955
12904;170451;34.76;179;03.44.38.955
12900;170440;34.76;180;03.44.38.955
12892;170443;34.76;181;03.44.38.955
12912;170437;34.76;182;03.44.38.955
12896;170422;34.76;183;03.44.38.955
12884;170429;34.76;184;03.44.38.955
12904;170427;34.76;185;03.44.38.955
12892;170421;34.76;186;03.44.38.955
12896;170413;34.76;187;03.44.38.955
12892;170414;34.76;188;03.44.38.955
12892;170402;34.76;189;03.44.38.966
12876;170405;34.76;190;03.44.38.966
12916;170395;34.76;191;03.44.38.966
12944;170394;34.76;192;03.44.38.966
12900;170383;34.76;193;03.44.38.966
12892;170389;34.76;194;03.44.38.966
12896;170388;34.76;195;03.44.38.966
12912;170378;34.76;196;03.44.38.966
12920;170373;34.76;197;03.44.38.966
12912;170376;34.76;198;03.44.38.966
12896;170374;34.76;199;03.44.38.966
12920;170369;34.76;200;03.44.39.086
12904;170374;34.76;201;03.44.39.086
12884;170372;34.76;202;03.44.39.086
12896;170378;34.76;203;03.44.39.086
12892;170368;34.76;204;03.44.39.086
12900;170371;34.76;205;03.44.39.086
12900;170363;34.76;206;03.44.39.086
12904;170365;34.76;207;03.44.39.086
12888;170364;34.76;208;03.44.39.086
12896;170366;34.76;209;03.44.39.086
12892;170369;34.76;210;03.44.39.097
12928;170363;34.76;211;03.44.39.097
12916;170372;34.76;212;03.44.39.097
12908;170367;34.76;213;03.44.39.097
12928;170367;34.76;214;03.44.39.097
12884;170366;34.76;215;03.44.39.097
12888;170363;34.76;216;03.44.39.097
12892;170369;34.76;217;03.44.39.097
12912;170366;34.76;218;03.44.39.097
12896;170364;34.76;219;03.44.39.097
12908;170369;34.76;220;03.44.39.097
12892;170369;34.76;221;03.44.39.097
12904;170375;34.76;222;03.44.39.097
12872;170372;34.76;223;03.44.39.108
12908;170373;34.76;224;03.44.39.108
12912;170373;34.76;225;03.44.39.218
12908;170381;34.76;226;03.44.39.218
12908;170383;34.76;227;03.44.39.218
12880;170375;34.76;228;03.44.39.218
12928;170377;34.76;229;03.44.39.218
12880;170384;34.76;230;03.44.39.218
12912;170378;34.76;231;03.44.39.229
12916;170384;34.76;232;03.44.39.229
12912;170380;34.76;233;03.44.39.229
12916;170380;34.76;234;03.44.39.229
12884;170387;34.76;235;03.44.39.229
12928;170381;34.76;236;03.44.39.229
12908;170375;34.76;237;03.44.39.229
12912;170370;34.76;238;03.44.39.229
12880;170383;34.76;239;03.44.39.229
12896;170377;34.76;240;03.44.39.229
12912;170370;34.76;241;03.44.39.229
12860;170379;34.76;242;03.44.39.229
12896;170365;34.76;243;03.44.39.240
12876;170375;34.76;244;03.44.39.240
12904;170383;34.76;245;03.44.39.240
12900;170373;34.76;246;03.44.39.240
12916;170376;34.76;247;03.44.39.240
12888;170376;34.76;248;03.44.39.240
12904;170375;34.76;249;03.44.39.240
12892;170368;34.76;250;03.44.39.328
12924;170373;34.76;251;03.44.39.328
12904;170374;34.76;252;03.44.39.328
12912;170378;34.76;253;03.44.39.339
12892;170384;34.76;254;03.44.39.339
12904;170376;34.76;255;03.44.39.339
12880;170371;34.76;256;03.44.39.339
12892;170377;34.76;257;03.44.39.339
12908;170377;34.76;258;03.44.39.350
12916;170383;34.76;259;03.44.39.350
12900;170377;34.76;260;03.44.39.350
12876;170375;34.76;261;03.44.39.361
12896;170378;34.76;262;03.44.39.361
12892;170368;34.76;263;03.44.39.361
12916;170376;34.76;264;03.44.39.361
12912;170374;34.76;265;03.44.39.361
12928;170375;34.76;266;03.44.39.361
12880;170378;34.76;267;03.44.39.361
12900;170378;34.76;268;03.44.39.361
12876;170381;34.76;269;03.44.39.361
12900;170379;34.76;270;03.44.39.362
12912;170387;34.76;271;03.44.39.374
12920;170384;34.76;272;03.44.39.374
12896;170379;34.76;273;03.44.39.374
12896;170381;34.76;274;03.44.39.374
12900;170387;34.76;275;03.44.39.450
12896;170384;34.76;276;03.44.39.461
12900;170384;34.76;277;03.44.39.461
12916;170383;34.76;278;03.44.39.461
12908;170391;34.76;279;03.44.39.461
12896;170386;34.76;280;03.44.39.461
12884;170393;34.76;281;03.44.39.461
12892;170387;34.76;282;03.44.39.461
12916;170402;34.76;283;03.44.39.483
12888;170398;34.76;284;03.44.39.483
12880;170395;34.76;285;03.44.39.494
12928;170398;34.76;286;03.44.39.494
12908;170397;34.76;287;03.44.39.494
12892;170408;34.76;288;03.44.39.494
12908;170411;34.76;289;03.44.39.494
12912;170411;34.76;290;03.44.39.494
12900;170402;34.76;291;03.44.39.494
12896;170414;34.76;292;03.44.39.494
12864;170416;34.76;293;03.44.39.494
12904;170417;34.76;294;03.44.39.494
12888;170427;34.76;295;03.44.39.494
12892;170426;34.76;296;03.44.39.494
12880;170420;34.76;297;03.44.39.494
12876;170431;34.76;298;03.44.39.505
12912;170427;34.76;299;03.44.39.505
12876;170425;34.76;300;03.44.39.582
12900;170425;34.76;301;03.44.39.582
12896;170424;34.76;302;03.44.39.582
12912;170432;34.76;303;03.44.39.582
12880;170434;34.76;304;03.44.39.582
12884;170428;34.76;305;03.44.39.582
12904;170441;34.76;306;03.44.39.582
12884;170437;34.76;307;03.44.39.582
12912;170439;34.76;308;03.44.39.582
12916;170445;34.76;309;03.44.39.582
12896;170444;34.76;310;03.44.39.593
12896;170449;34.76;311;03.44.39.593
12912;170447;34.76;312;03.44.39.593
12888;170455;34.76;313;03.44.39.593
12908;170446;34.76;314;03.44.39.593
12892;170453;34.76;315;03.44.39.593
12904;170453;34.76;316;03.44.39.593
12888;170456;34.76;317;03.44.39.593
12892;170464;34.76;318;03.44.39.593
12904;170465;34.76;319;03.44.39.593
12892;170463;34.76;320;03.44.39.593
12892;170460;34.76;321;03.44.39.593
12900;170469;34.76;322;03.44.39.593
12888;170471;34.76;323;03.44.39.604
12908;170471;34.76;324;03.44.39.604
12872;170468;34.76;325;03.44.39.714
12884;170471;34.76;326;03.44.39.714
12904;170474;34.76;327;03.44.39.714
12872;170468;34.76;328;03.44.39.714
12860;170479;34.76;329;03.44.39.714
12928;170480;34.76;330;03.44.39.714
12904;170486;34.76;331;03.44.39.714
12904;170483;34.76;332;03.44.39.725
12928;170483;34.76;333;03.44.39.725
12884;170484;34.76;334;03.44.39.725
12912;170490;34.76;335;03.44.39.725
12908;170479;34.76;336;03.44.39.725
12892;170490;34.76;337;03.44.39.725
12892;170485;34.76;338;03.44.39.725
12928;170486;34.76;339;03.44.39.725
12892;170490;34.76;340;03.44.39.725
12896;170477;34.76;341;03.44.39.725
12904;170474;34.76;342;03.44.39.725
12896;170473;34.76;343;03.44.39.725
12908;170477;34.76;344;03.44.39.736
12884;170462;34.76;345;03.44.39.736
12912;170461;34.76;346;03.44.39.736
12916;170451;34.76;347;03.44.39.736
12904;170446;34.76;348;03.44.39.736
12924;170440;34.76;349;03.44.39.736
12888;170439;34.76;350;03.44.39.844
12888;170439;34.76;351;03.44.39.844
12920;170435;34.76;352;03.44.39.855
12920;170425;34.76;353;03.44.39.855
12912;170432;34.76;354;03.44.39.855
12904;170412;34.76;355;03.44.39.855
12888;170415;34.76;356;03.44.39.855
12896;170420;34.76;357;03.44.39.855
12904;170413;34.76;358;03.44.39.855
12924;170403;34.76;359;03.44.39.855
12904;170397;34.76;360;03.44.39.855
12900;170406;34.76;361;03.44.39.855
12912;170410;34.76;362;03.44.39.855
12920;170399;34.76;363;03.44.39.855
12904;170401;34.76;364;03.44.39.855
12904;170402;34.76;365;03.44.39.866
12900;170401;34.76;366;03.44.39.866
12892;170399;34.76;367;03.44.39.866
12928;170400;34.76;368;03.44.39.866
12864;170395;34.76;369;03.44.39.866
12876;170399;34.76;370;03.44.39.866
12900;170398;34.76;371;03.44.39.866
12904;170391;34.76;372;03.44.39.866
12896;170387;34.76;373;03.44.39.866
12936;170382;34.76;374;03.44.39.866
12920;170396;34.76;375;03.44.39.954
12892;170388;34.76;376;03.44.39.954
12864;170384;34.76;377;03.44.39.954
12868;170392;34.76;378;03.44.39.954
12928;170400;34.76;379;03.44.39.954
12892;170384;34.76;380;03.44.39.954
12904;170389;34.76;381;03.44.39.954
12884;170386;34.76;382;03.44.39.954
12904;170391;34.76;383;03.44.39.954
12900;170396;34.76;384;03.44.39.954
12912;170394;34.76;385;03.44.39.954
12908;170393;34.76;386;03.44.39.966
12904;170397;34.76;387;03.44.39.966
12892;170408;34.76;388;03.44.39.966
12892;170404;34.76;389;03.44.39.966
12880;170397;34.76;390;03.44.39.966
12868;170399;34.76;391;03.44.39.966
12880;170394;34.76;392;03.44.39.999
12904;170403;34.76;393;03.44.39.999
12892;170409;34.76;394;03.44.39.999
12864;170403;34.76;395;03.44.39.999
12876;170404;34.76;396;03.44.39.999
12904;170397;34.76;397;03.44.39.999
12896;170398;34.76;398;03.44.39.999
12920;170407;34.76;399;03.44.39.999
12888;170409;34.76;400;03.44.40.074
12860;170399;34.76;401;03.44.40.074
12896;170410;34.76;402;03.44.40.074
12928;170406;34.76;403;03.44.40.074
12900;170413;34.76;404;03.44.40.074
12920;170412;34.76;405;03.44.40.074
12892;170413;34.76;406;03.44.40.074
12912;170404;34.76;407;03.44.40.085
12904;170415;34.76;408;03.44.40.085
12928;170404;34.76;409;03.44.40.085
12916;170409;34.76;410;03.44.40.085
12928;170420;34.76;411;03.44.40.085
12884;170402;34.76;412;03.44.40.085
12896;170409;34.76;413;03.44.40.085
12912;170403;34.76;414;03.44.40.085
12892;170411;34.76;415;03.44.40.085
12904;170413;34.76;416;03.44.40.085
12884;170406;34.76;417;03.44.40.085
12896;170413;34.76;418;03.44.40.085
12892;170410;34.76;419;03.44.40.085
12876;170419;34.76;420;03.44.40.096
12896;170414;34.76;421;03.44.40.096
12892;170410;34.76;422;03.44.40.096
12908;170414;34.76;423;03.44.40.096
12908;170418;34.76;424;03.44.40.096
12928;170425;34.76;425;03.44.40.206
12888;170431;34.76;426;03.44.40.206
12892;170424;34.76;427;03.44.40.206
12888;170428;34.76;428;03.44.40.217
12904;170430;34.76;429;03.44.40.217
12928;170425;34.76;430;03.44.40.217
12928;170435;34.76;431;03.44.40.217
12928;170434;34.76;432;03.44.40.217
12940;170436;34.76;433;03.44.40.217
12920;170437;34.76;434;03.44.40.217
12892;170439;34.76;435;03.44.40.217
12892;170433;34.76;436;03.44.40.217
12908;170450;34.76;437;03.44.40.217
12908;170442;34.76;438;03.44.40.217
12896;170450;34.76;439;03.44.40.217
12924;170441;34.76;440;03.44.40.217
12900;170442;34.76;441;03.44.40.228
12908;170443;34.76;442;03.44.40.228
12892;170445;34.76;443;03.44.40.228
12916;170448;34.76;444;03.44.40.228
12928;170455;34.76;445;03.44.40.228
12920;170450;34.76;446;03.44.40.228
12892;170455;34.76;447;03.44.40.228
12916;170452;34.76;448;03.44.40.228
12916;170465;34.76;449;03.44.40.228
12884;170464;34.76;450;03.44.40.348
12928;170464;34.76;451;03.44.40.348
12876;170466;34.76;452;03.44.40.348
12892;170467;34.76;453;03.44.40.348
12916;170465;34.76;454;03.44.40.348
12912;170472;34.76;455;03.44.40.348
12928;170476;34.76;456;03.44.40.348
12896;170470;34.76;457;03.44.40.348
12904;170473;34.76;458;03.44.40.348
12904;170477;34.76;459;03.44.40.348
12892;170475;34.76;460;03.44.40.348
12928;170483;34.76;461;03.44.40.348
12896;170467;34.76;462;03.44.40.359
12884;170487;34.76;463;03.44.40.359
12908;170490;34.76;464;03.44.40.359
12900;170490;34.76;465;03.44.40.359
12900;170491;34.76;466;03.44.40.359
12892;170488;34.76;467;03.44.40.359
12908;170498;34.76;468;03.44.40.359
12908;170495;34.76;469;03.44.40.359
12896;170492;34.76;470;03.44.40.359
12908;170496;34.76;471;03.44.40.359
12916;170500;34.76;472;03.44.40.359
12892;170499;34.76;473;03.44.40.359
12928;170499;34.76;474;03.44.40.359
12900;170499;34.80;475;03.44.40.457
12904;170505;34.80;476;03.44.40.457
12884;170502;34.80;477;03.44.40.457
12888;170499;34.80;478;03.44.40.457
12928;170506;34.80;479;03.44.40.457
12904;170508;34.80;480;03.44.40.457
12884;170501;34.80;481;03.44.40.457
12892;170505;34.80;482;03.44.40.457
12912;170516;34.80;483;03.44.40.468
12892;170517;34.80;484;03.44.40.468
12892;170522;34.80;485;03.44.40.468
12888;170516;34.80;486;03.44.40.468
12920;170515;34.80;487;03.44.40.468
12884;170520;34.80;488;03.44.40.468
12904;170518;34.80;489;03.44.40.468
12884;170524;34.80;490;03.44.40.468
12928;170521;34.80;491;03.44.40.468
12868;170516;34.80;492;03.44.40.479
12888;170522;34.80;493;03.44.40.479
12904;170529;34.80;494;03.44.40.479
12928;170526;34.80;495;03.44.40.479
12896;170537;34.80;496;03.44.40.479
12908;170529;34.80;497;03.44.40.479
12892;170534;34.80;498;03.44.40.479
12916;170529;34.80;499;03.44.40.479
12880;170529;34.80;500;03.44.40.578
12884;170531;34.80;501;03.44.40.578
12904;170542;34.80;502;03.44.40.578
12900;170537;34.80;503;03.44.40.578
12900;170533;34.80;504;03.44.40.589
12928;170543;34.80;505;03.44.40.589
12928;170543;34.80;506;03.44.40.589
12920;170536;34.80;507;03.44.40.589
12908;170541;34.80;508;03.44.40.589
12892;170536;34.80;509;03.44.40.589
12876;170536;34.80;510;03.44.40.589
12888;170540;34.80;511;03.44.40.589
12896;170530;34.80;512;03.44.40.589
12916;170538;34.80;513;03.44.40.589
12904;170527;34.80;514;03.44.40.589
12908;170521;34.80;515;03.44.40.589
12904;170521;34.80;516;03.44.40.589
12928;170521;34.80;517;03.44.40.600
12908;170515;34.80;518;03.44.40.600
12908;170502;34.80;519;03.44.40.600
12904;170509;34.80;520;03.44.40.600
12900;170503;34.80;521;03.44.40.600
12928;170496;34.80;522;03.44.40.600
12928;170496;34.80;523;03.44.40.600
12896;170492;34.80;524;03.44.40.600
12920;170492;34.76;525;03.44.40.699
12900;170488;34.76;526;03.44.40.709
12916;170483;34.76;527;03.44.40.709
12892;170474;34.76;528;03.44.40.709
12884;170478;34.76;529;03.44.40.709
12896;170473;34.76;530;03.44.40.709
12908;170467;34.76;531;03.44.40.709
12872;170474;34.76;532;03.44.40.709
12908;170470;34.76;533;03.44.40.709
12880;170463;34.76;534;03.44.40.709
12904;170460;34.76;535;03.44.40.709
12876;170464;34.76;536;03.44.40.709
12880;170462;34.76;537;03.44.40.709
12920;170462;34.76;538;03.44.40.720
12908;170463;34.76;539;03.44.40.720
12908;170458;34.76;540;03.44.40.720
12888;170461;34.76;541;03.44.40.720
12892;170464;34.76;542;03.44.40.720
12908;170464;34.76;543;03.44.40.720
12896;170464;34.76;544;03.44.40.720
12896;170466;34.76;545;03.44.40.720
12932;170464;34.76;546;03.44.40.720
12892;170465;34.76;547;03.44.40.720
12908;170470;34.76;548;03.44.40.720
12908;170469;34.76;549;03.44.40.720
12884;170477;34.76;550;03.44.40.841
12900;170468;34.76;551;03.44.40.841
12936;170470;34.76;552;03.44.40.841
12896;170466;34.76;553;03.44.40.841
12892;170462;34.76;554;03.44.40.841
12912;170475;34.76;555;03.44.40.841
12892;170467;34.76;556;03.44.40.841
12900;170474;34.76;557;03.44.40.841
12860;170471;34.76;558;03.44.40.841
12932;170471;34.76;559;03.44.40.852
12860;170468;34.76;560;03.44.40.852
12892;170470;34.76;561;03.44.40.852
12912;170474;34.76;562;03.44.40.852
12908;170464;34.76;563;03.44.40.852
12928;170472;34.76;564;03.44.40.852
12892;170476;34.76;565;03.44.40.852
12896;170461;34.76;566;03.44.40.852
12928;170468;34.76;567;03.44.40.852
12916;170474;34.76;568;03.44.40.852
12892;170472;34.76;569;03.44.40.852
12924;170475;34.76;570;03.44.40.852
12892;170475;34.76;571;03.44.40.852
12896;170481;34.76;572;03.44.40.863
12892;170477;34.76;573;03.44.40.863
12948;170477;34.76;574;03.44.40.863
12892;170476;34.76;575;03.44.40.961
12932;170468;34.76;576;03.44.40.961
12900;170463;34.76;577;03.44.40.961
12928;170472;34.76;578;03.44.40.961
12892;170471;34.76;579;03.44.40.961
12892;170465;34.76;580;03.44.40.961
12932;170461;34.76;581;03.44.40.961
12900;170463;34.76;582;03.44.40.972
12884;170459;34.76;583;03.44.40.972
12908;170458;34.76;584;03.44.40.972
12916;170460;34.76;585;03.44.40.972
12884;170453;34.76;586;03.44.40.972
12904;170452;34.76;587;03.44.40.972
12900;170451;34.76;588;03.44.40.972
12884;170448;34.76;589;03.44.40.983
12928;170452;34.76;590;03.44.40.983
12884;170442;34.76;591;03.44.40.983
12888;170441;34.76;592;03.44.40.994
12896;170449;34.76;593;03.44.40.994
12896;170447;34.76;594;03.44.40.994
12920;170446;34.76;595;03.44.40.994
12904;170446;34.76;596;03.44.40.994
12896;170442;34.76;597;03.44.41.005
12884;170446;34.76;598;03.44.41.005
12908;170453;34.76;599;03.44.41.005
12908;170435;34.76;600;03.44.41.071
12904;170449;34.76;601;03.44.41.071
12904;170437;34.76;602;03.44.41.082
12888;170438;34.76;603;03.44.41.082
12876;170452;34.76;604;03.44.41.082
12888;170451;34.76;605;03.44.41.082
12880;170446;34.76;606;03.44.41.082
12896;170447;34.76;607;03.44.41.082
12936;170455;34.76;608;03.44.41.082
12912;170445;34.76;609;03.44.41.082
12912;170452;34.76;610;03.44.41.082
12880;170455;34.76;611;03.44.41.082
12884;170460;34.76;612;03.44.41.082
12888;170455;34.76;613;03.44.41.082
12900;170455;34.76;614;03.44.41.082
12892;170448;34.76;615;03.44.41.093
12892;170462;34.76;616;03.44.41.093
12900;170454;34.76;617;03.44.41.093
12920;170451;34.76;618;03.44.41.093
12868;170457;34.76;619;03.44.41.093
12868;170454;34.76;620;03.44.41.093
12896;170458;34.76;621;03.44.41.093
12916;170448;34.76;622;03.44.41.093
12896;170453;34.76;623;03.44.41.093
12896;170459;34.76;624;03.44.41.093
12888;170455;34.76;625;03.44.41.202
12904;170447;34.76;626;03.44.41.202
12896;170454;34.76;627;03.44.41.202
12900;170451;34.76;628;03.44.41.202
12932;170447;34.76;629;03.44.41.202
12936;170463;34.76;630;03.44.41.202
12896;170454;34.76;631;03.44.41.202
12900;170453;34.76;632;03.44.41.202
12928;170461;34.76;633;03.44.41.202
12920;170451;34.76;634;03.44.41.202
12876;170453;34.76;635;03.44.41.202
12924;170444;34.76;636;03.44.41.213
12904;170453;34.76;637;03.44.41.213
12876;170466;34.76;638;03.44.41.213
12860;170463;34.76;639;03.44.41.213
12904;170457;34.76;640;03.44.41.213
12856;170466;34.76;641;03.44.41.213
12892;170458;34.76;642;03.44.41.213
12896;170465;34.76;643;03.44.41.213
12908;170463;34.76;644;03.44.41.213
12872;170470;34.76;645;03.44.41.213
12880;170464;34.76;646;03.44.41.213
12892;170470;34.76;647;03.44.41.213
12912;170473;34.76;648;03.44.41.224
12916;170467;34.76;649;03.44.41.224
12896;170473;34.76;650;03.44.41.334
12936;170474;34.76;651;03.44.41.334
12916;170471;34.76;652;03.44.41.334
12904;170474;34.76;653;03.44.41.334
12912;170476;34.76;654;03.44.41.334
12888;170480;34.76;655;03.44.41.334
12884;170481;34.76;656;03.44.41.334
12900;170486;34.76;657;03.44.41.345
12876;170482;34.76;658;03.44.41.345
12920;170497;34.76;659;03.44.41.345
12920;170490;34.76;660;03.44.41.345
12880;170484;34.76;661;03.44.41.345
12912;170482;34.76;662;03.44.41.345
12900;170484;34.76;663;03.44.41.345
12900;170486;34.76;664;03.44.41.345
12904;170478;34.76;665;03.44.41.345
12896;170479;34.76;666;03.44.41.345
12880;170470;34.76;667;03.44.41.345
12908;170465;34.76;668;03.44.41.345
12892;170466;34.76;669;03.44.41.345
12896;170460;34.76;670;03.44.41.356
12892;170454;34.76;671;03.44.41.356
12908;170446;34.76;672;03.44.41.356
12908;170450;34.76;673;03.44.41.356
12908;170450;34.76;674;03.44.41.356
12900;170448;34.76;675;03.44.41.465
12904;170443;34.76;676;03.44.41.465
12868;170430;34.76;677;03.44.41.476
12884;170439;34.76;678;03.44.41.476
12912;170426;34.76;679;03.44.41.476
12908;170419;34.76;680;03.44.41.476
12888;170421;34.76;681;03.44.41.476
12876;170410;34.76;682;03.44.41.476
12896;170410;34.76;683;03.44.41.476
12860;170407;34.76;684;03.44.41.476
12900;170407;34.76;685;03.44.41.476
12892;170406;34.76;686;03.44.41.476
12904;170406;34.76;687;03.44.41.476
12888;170389;34.76;688;03.44.41.476
12904;170397;34.76;689;03.44.41.476
12896;170396;34.76;690;03.44.41.476
12928;170397;34.76;691;03.44.41.487
12908;170392;34.76;692;03.44.41.487
12900;170395;34.76;693;03.44.41.487
12892;170393;34.76;694;03.44.41.487
12896;170389;34.76;695;03.44.41.487
12884;170390;34.76;696;03.44.41.487
12908;170379;34.76;697;03.44.41.487
12912;170392;34.76;698;03.44.41.487
12908;170383;34.76;699;03.44.41.487
12900;170385;34.76;700;03.44.41.608
12900;170385;34.76;701;03.44.41.608
12912;170383;34.76;702;03.44.41.608
12908;170385;34.76;703;03.44.41.608
12888;170391;34.76;704;03.44.41.608
12912;170386;34.76;705;03.44.41.608
12864;170389;34.76;706;03.44.41.608
12920;170385;34.76;707;03.44.41.608
12884;170386;34.76;708;03.44.41.619
12900;170389;34.76;709;03.44.41.619
12896;170385;34.76;710;03.44.41.619
12900;170392;34.76;711;03.44.41.619
12880;170390;34.76;712;03.44.41.619
12892;170394;34.76;713;03.44.41.619
12896;170380;34.76;714;03.44.41.619
12892;170394;34.76;715;03.44.41.619
12924;170384;34.76;716;03.44.41.619
12920;170397;34.76;717;03.44.41.619
12900;170388;34.76;718;03.44.41.619
12928;170394;34.76;719;03.44.41.619
12884;170394;34.76;720;03.44.41.630
12896;170391;34.76;721;03.44.41.630
12920;170402;34.76;722;03.44.41.630
12884;170400;34.76;723;03.44.41.630
12892;170394;34.76;724;03.44.41.630
12892;170399;34.76;725;03.44.41.707
12904;170406;34.76;726;03.44.41.707
12900;170398;34.76;727;03.44.41.707
12900;170401;34.76;728;03.44.41.707
12860;170400;34.76;729;03.44.41.707
12928;170401;34.76;730;03.44.41.707
12912;170406;34.76;731;03.44.41.707
12928;170403;34.76;732;03.44.41.707
12928;170405;34.76;733;03.44.41.707
12892;170398;34.76;734;03.44.41.718
12908;170405;34.76;735;03.44.41.718
12904;170397;34.76;736;03.44.41.718
12888;170402;34.76;737;03.44.41.718
12916;170406;34.76;738;03.44.41.718
12892;170401;34.76;739;03.44.41.718
12888;170405;34.76;740;03.44.41.718
12892;170407;34.76;741;03.44.41.718
12904;170404;34.76;742;03.44.41.718
12904;170412;34.76;743;03.44.41.718
12872;170411;34.76;744;03.44.41.718
12900;170413;34.76;745;03.44.41.718
12892;170410;34.76;746;03.44.41.718
12900;170416;34.76;747;03.44.41.729
12892;170408;34.76;748;03.44.41.729
12928;170415;34.76;749;03.44.41.729
12912;170411;34.76;750;03.44.41.827
12928;170416;34.76;751;03.44.41.827
12896;170425;34.76;752;03.44.41.827
12908;170419;34.76;753;03.44.41.827
12896;170413;34.76;754;03.44.41.827
12880;170420;34.76;755;03.44.41.838
12912;170417;34.76;756;03.44.41.838
12920;170427;34.76;757;03.44.41.838
12912;170426;34.76;758;03.44.41.838
12916;170423;34.76;759;03.44.41.838
12872;170428;34.76;760;03.44.41.838
12876;170422;34.76;761;03.44.41.838
12884;170435;34.76;762;03.44.41.838
12904;170433;34.76;763;03.44.41.838
12892;170437;34.76;764;03.44.41.838
12904;170434;34.76;765;03.44.41.838
12876;170433;34.76;766;03.44.41.838
12896;170442;34.76;767;03.44.41.838
12928;170444;34.76;768;03.44.41.849
12904;170434;34.76;769;03.44.41.849
12904;170439;34.76;770;03.44.41.849
12908;170438;34.76;771;03.44.41.849
12876;170449;34.76;772;03.44.41.849
12864;170448;34.76;773;03.44.41.849
12916;170452;34.76;774;03.44.41.849
12896;170454;34.76;775;03.44.41.959
12904;170449;34.76;776;03.44.41.959
12904;170454;34.76;777;03.44.41.970
12916;170453;34.76;778;03.44.41.970
12896;170462;34.76;779;03.44.41.970
12896;170459;34.76;780;03.44.41.970
12876;170463;34.76;781;03.44.41.970
12904;170468;34.76;782;03.44.41.970
12900;170462;34.76;783;03.44.41.970
12884;170464;34.76;784;03.44.41.970
12904;170477;34.76;785;03.44.41.970
12904;170472;34.76;786;03.44.41.970
12892;170475;34.76;787;03.44.41.970
12928;170470;34.76;788;03.44.41.970
12912;170478;34.76;789;03.44.41.970
12904;170469;34.76;790;03.44.41.981
12904;170470;34.76;791;03.44.41.981
12904;170474;34.76;792;03.44.41.981
12860;170469;34.76;793;03.44.41.981
12912;170475;34.76;794;03.44.41.981
12892;170474;34.76;795;03.44.41.981
12904;170469;34.76;796;03.44.41.981
12888;170478;34.76;797;03.44.41.981
12908;170477;34.76;798;03.44.41.981
12904;170479;34.76;799;03.44.41.981
12912;170477;34.76;800;03.44.42.080
12928;170474;34.76;801;03.44.42.080
12908;170482;34.76;802;03.44.42.080
12924;170486;34.76;803;03.44.42.080
12888;170495;34.76;804;03.44.42.080
12888;170483;34.76;805;03.44.42.080
12876;170490;34.76;806;03.44.42.080
12892;170501;34.76;807;03.44.42.080
12876;170494;34.76;808;03.44.42.112
12896;170499;34.76;809;03.44.42.112
12876;170493;34.76;810;03.44.42.112
12912;170487;34.76;811;03.44.42.112
12904;170491;34.76;812;03.44.42.112
12868;170490;34.76;813;03.44.42.112
12900;170489;34.76;814;03.44.42.112
12908;170479;34.76;815;03.44.42.112
12916;170481;34.76;816;03.44.42.112
12884;170482;34.76;817;03.44.42.112
12928;170472;34.76;818;03.44.42.123
12884;170468;34.76;819;03.44.42.123
12908;170457;34.76;820;03.44.42.123
12924;170460;34.76;821;03.44.42.123
12876;170465;34.76;822;03.44.42.123
12928;170455;34.76;823;03.44.42.123
12908;170444;34.76;824;03.44.42.123
12904;170440;34.76;825;03.44.42.243
12884;170443;34.76;826;03.44.42.243
12904;170443;34.76;827;03.44.42.243
12900;170428;34.76;828;03.44.42.243
12884;170427;34.76;829;03.44.42.243
12928;170425;34.76;830;03.44.42.254
12916;170420;34.76;831;03.44.42.254
12896;170420;34.76;832;03.44.42.254
12892;170414;34.76;833;03.44.42.254
12900;170412;34.76;834;03.44.42.254
12896;170396;34.76;835;03.44.42.254
12920;170403;34.76;836;03.44.42.254
12908;170402;34.76;837;03.44.42.254
12924;170405;34.76;838;03.44.42.254
12896;170405;34.76;839;03.44.42.254
12912;170396;34.76;840;03.44.42.254
12880;170398;34.76;841;03.44.42.254
12892;170393;34.76;842;03.44.42.254
12920;170400;34.76;843;03.44.42.265
12892;170397;34.76;844;03.44.42.265
12924;170390;34.76;845;03.44.42.265
12904;170394;34.76;846;03.44.42.265
12900;170387;34.76;847;03.44.42.265
12892;170389;34.76;848;03.44.42.265
12920;170395;34.76;849;03.44.42.265
12900;170387;34.76;850;03.44.42.331
12896;170388;34.76;851;03.44.42.331
12884;170393;34.76;852;03.44.42.342
12908;170379;34.76;853;03.44.42.342
12904;170382;34.76;854;03.44.42.342
12900;170385;34.76;855;03.44.42.342
12880;170387;34.76;856;03.44.42.342
12892;170387;34.76;857;03.44.42.342
12928;170383;34.76;858;03.44.42.342
12904;170391;34.76;859;03.44.42.342
12912;170383;34.76;860;03.44.42.342
12908;170385;34.76;861;03.44.42.342
12892;170382;34.76;862;03.44.42.342
12908;170387;34.76;863;03.44.42.342
12872;170389;34.76;864;03.44.42.342
12880;170387;34.76;865;03.44.42.353
12928;170383;34.76;866;03.44.42.353
12900;170394;34.76;867;03.44.42.353
12892;170395;34.76;868;03.44.42.353
12916;170392;34.76;869;03.44.42.353
12892;170394;34.76;870;03.44.42.353
12904;170387;34.76;871;03.44.42.353
12920;170389;34.76;872;03.44.42.353
12896;170399;34.76;873;03.44.42.353
12924;170392;34.76;874;03.44.42.353
12884;170400;34.76;875;03.44.42.474
12888;170386;34.76;876;03.44.42.474
12912;170386;34.76;877;03.44.42.474
12928;170389;34.76;878;03.44.42.474
12908;170391;34.76;879;03.44.42.474
12892;170387;34.76;880;03.44.42.474
12876;170390;34.76;881;03.44.42.474
12896;170391;34.76;882;03.44.42.474
12896;170388;34.76;883;03.44.42.474
12916;170383;34.76;884;03.44.42.474
12900;170387;34.76;885;03.44.42.474
12900;170384;34.76;886;03.44.42.485
12928;170379;34.76;887;03.44.42.485
12884;170389;34.76;888;03.44.42.485
12880;170386;34.76;889;03.44.42.485
12888;170386;34.76;890;03.44.42.485
12884;170383;34.76;891;03.44.42.485
12904;170389;34.76;892;03.44.42.485
12904;170378;34.76;893;03.44.42.485
12868;170382;34.76;894;03.44.42.485
12892;170378;34.76;895;03.44.42.485
12916;170376;34.76;896;03.44.42.485
12892;170375;34.76;897;03.44.42.485
12896;170372;34.76;898;03.44.42.485
12896;170389;34.76;899;03.44.42.496
12912;170384;34.76;900;03.44.42.583
12888;170385;34.76;901;03.44.42.583
12892;170388;34.76;902;03.44.42.583
12908;170383;34.76;903;03.44.42.583
12916;170390;34.76;904;03.44.42.583
12876;170389;34.76;905;03.44.42.583
12904;170386;34.76;906;03.44.42.583
12888;170390;34.76;907;03.44.42.583
12884;170394;34.76;908;03.44.42.605
12920;170394;34.76;909;03.44.42.605
12908;170388;34.76;910;03.44.42.605
12896;170395;34.76;911;03.44.42.605
12908;170400;34.76;912;03.44.42.605
12892;170392;34.76;913;03.44.42.605
12892;170396;34.76;914;03.44.42.605
12884;170398;34.76;915;03.44.42.615
12904;170393;34.76;916;03.44.42.615
12912;170396;34.76;917;03.44.42.615
12908;170404;34.76;918;03.44.42.615
12900;170393;34.76;919;03.44.42.615
12904;170411;34.76;920;03.44.42.615
12888;170407;34.76;921;03.44.42.615
12904;170413;34.76;922;03.44.42.615
12908;170410;34.76;923;03.44.42.615
12936;170416;34.76;924;03.44.42.615
12920;170421;34.80;925;03.44.42.713
12912;170417;34.80;926;03.44.42.713
12900;170416;34.80;927;03.44.42.713
12860;170414;34.80;928;03.44.42.713
12896;170424;34.80;929;03.44.42.713
12888;170422;34.80;930;03.44.42.713
12908;170420;34.80;931;03.44.42.713
12912;170425;34.80;932;03.44.42.713
12908;170429;34.80;933;03.44.42.713
12892;170426;34.80;934;03.44.42.713
12904;170428;34.80;935;03.44.42.713
12896;170429;34.80;936;03.44.42.713
12904;170424;34.80;937;03.44.42.713
12884;170431;34.80;938;03.44.42.713
12888;170428;34.80;939;03.44.42.713
12912;170435;34.80;940;03.44.42.724
12892;170432;34.80;941;03.44.42.724
12892;170430;34.80;942;03.44.42.724
12920;170440;34.80;943;03.44.42.724
12896;170439;34.80;944;03.44.42.724
12908;170436;34.80;945;03.44.42.724
12912;170447;34.80;946;03.44.42.724
12908;170444;34.80;947;03.44.42.724
12908;170447;34.80;948;03.44.42.724
12904;170447;34.80;949;03.44.42.724
12892;170445;34.80;950;03.44.42.844
12860;170441;34.80;951;03.44.42.844
12892;170453;34.80;952;03.44.42.844
12928;170462;34.80;953;03.44.42.844
12912;170458;34.80;954;03.44.42.844
12916;170455;34.80;955;03.44.42.844
12912;170462;34.80;956;03.44.42.844
12916;170463;34.80;957;03.44.42.844
12892;170462;34.80;958;03.44.42.855
12888;170463;34.80;959;03.44.42.855
12892;170464;34.80;960;03.44.42.855
12860;170469;34.80;961;03.44.42.855
12900;170466;34.80;962;03.44.42.855
12900;170462;34.80;963;03.44.42.855
12912;170472;34.80;964;03.44.42.855
12912;170469;34.80;965;03.44.42.855
12912;170462;34.80;966;03.44.42.855
12896;170458;34.80;967;03.44.42.877
12876;170455;34.80;968;03.44.42.877
12896;170449;34.80;969;03.44.42.877
12924;170448;34.80;970;03.44.42.877
12904;170440;34.80;971;03.44.42.877
12904;170442;34.80;972;03.44.42.877
12896;170438;34.80;973;03.44.42.877
12916;170433;34.80;974;03.44.42.877
12904;170427;34.76;975;03.44.43.008
12884;170416;34.76;976;03.44.43.008
12888;170426;34.76;977;03.44.43.008
12892;170416;34.76;978;03.44.43.008
12892;170422;34.76;979;03.44.43.008
12908;170408;34.76;980;03.44.43.019
12868;170405;34.76;981;03.44.43.019
12880;170413;34.76;982;03.44.43.019
12888;170401;34.76;983;03.44.43.019
12892;170403;34.76;984;03.44.43.019
12892;170396;34.76;985;03.44.43.019
12896;170389;34.76;986;03.44.43.019
12920;170390;34.76;987;03.44.43.019
12912;170386;34.76;988;03.44.43.019
12880;170389;34.76;989;03.44.43.019
12896;170393;34.76;990;03.44.43.019
12876;170390;34.76;991;03.44.43.019
12904;170382;34.76;992;03.44.43.019
12892;170385;34.76;993;03.44.43.030
12904;170390;34.76;994;03.44.43.030
12892;170385;34.76;995;03.44.43.030
12852;170381;34.76;996;03.44.43.030
12912;170378;34.76;997;03.44.43.030
12888;170380;34.76;998;03.44.43.030
12908;170382;34.76;999;03.44.43.030
12900;170382;34.76;000;03.44.43.095
12904;170390;34.76;001;03.44.43.095
12912;170387;34.76;002;03.44.43.106
12868;170387;34.76;003;03.44.43.106
12912;170388;34.76;004;03.44.43.106
12892;170391;34.76;005;03.44.43.106
12908;170386;34.76;006;03.44.43.106
12888;170392;34.76;007;03.44.43.106
12904;170387;34.76;008;03.44.43.106
12876;170388;34.76;009;03.44.43.106
12884;170398;34.76;010;03.44.43.106
12884;170393;34.76;011;03.44.43.106
12892;170390;34.76;012;03.44.43.106
12892;170394;34.76;013;03.44.43.106
12920;170396;34.76;014;03.44.43.106
12892;170395;34.76;015;03.44.43.117
12888;170394;34.76;016;03.44.43.117
12892;170392;34.76;017;03.44.43.117
12912;170393;34.76;018;03.44.43.117
12884;170407;34.76;019;03.44.43.117
12900;170404;34.76;020;03.44.43.117
12908;170408;34.76;021;03.44.43.117
12928;170410;34.76;022;03.44.43.117
12916;170409;34.76;023;03.44.43.117
12924;170407;34.76;024;03.44.43.117
12912;170410;34.76;025;03.44.43.205
12904;170409;34.76;026;03.44.43.205
12892;170416;34.76;027;03.44.43.205
12908;170409;34.76;028;03.44.43.205
12928;170409;34.76;029;03.44.43.205
12912;170412;34.76;030;03.44.43.205
12904;170407;34.76;031;03.44.43.205
12900;170409;34.76;032;03.44.43.205
12896;170422;34.76;033;03.44.43.205
12900;170421;34.76;034;03.44.43.205
12928;170419;34.76;035;03.44.43.205
12912;170409;34.76;036;03.44.43.205
12876;170411;34.76;037;03.44.43.216
12908;170418;34.76;038;03.44.43.216
12892;170411;34.76;039;03.44.43.216
12888;170418;34.76;040;03.44.43.216
12892;170413;34.76;041;03.44.43.216
12904;170415;34.76;042;03.44.43.216
12904;170427;34.76;043;03.44.43.216
12884;170418;34.76;044;03.44.43.216
12904;170426;34.76;045;03.44.43.216
12916;170427;34.76;046;03.44.43.216
12900;170426;34.76;047;03.44.43.216
12892;170418;34.76;048;03.44.43.216
12928;170425;34.76;049;03.44.43.227
12912;170429;34.76;050;03.44.43.326
12892;170433;34.76;051;03.44.43.326
12912;170436;34.76;052;03.44.43.326
12892;170432;34.76;053;03.44.43.326
12920;170433;34.76;054;03.44.43.326
12912;170442;34.76;055;03.44.43.326
12928;170440;34.76;056;03.44.43.326
12892;170443;34.76;057;03.44.43.337
12912;170444;34.76;058;03.44.43.337
12892;170454;34.76;059;03.44.43.337
12904;170453;34.76;060;03.44.43.337
12928;170455;34.76;061;03.44.43.337
12916;170459;34.76;062;03.44.43.337
12892;170456;34.76;063;03.44.43.337
12908;170460;34.76;064;03.44.43.337
12896;170471;34.76;065;03.44.43.337
12928;170480;34.76;066;03.44.43.337
12896;170475;34.76;067;03.44.43.337
12884;170474;34.76;068;03.44.43.337
12908;170484;34.76;069;03.44.43.337
12900;170479;34.76;070;03.44.43.337
12892;170483;34.76;071;03.44.43.348
12928;170495;34.76;072;03.44.43.348
12888;170499;34.76;073;03.44.43.348
12916;170501;34.76;074;03.44.43.348
12888;170496;34.76;075;03.44.43.458
12892;170499;34.76;076;03.44.43.458
12896;170504;34.76;077;03.44.43.458
12936;170502;34.76;078;03.44.43.458
12880;170509;34.76;079;03.44.43.468
12900;170504;34.76;080;03.44.43.468
12872;170510;34.76;081;03.44.43.468
12912;170516;34.76;082;03.44.43.468
12892;170519;34.76;083;03.44.43.468
12908;170521;34.76;084;03.44.43.468
12892;170517;34.76;085;03.44.43.468
12928;170530;34.76;086;03.44.43.468
12892;170526;34.76;087;03.44.43.468
12908;170539;34.76;088;03.44.43.468
12900;170534;34.76;089;03.44.43.468
12892;170536;34.76;090;03.44.43.468
12892;170543;34.76;091;03.44.43.469
12896;170548;34.76;092;03.44.43.469
12904;170538;34.76;093;03.44.43.480
12916;170542;34.76;094;03.44.43.480
12912;170548;34.76;095;03.44.43.480
12912;170553;34.76;096;03.44.43.480
12876;170555;34.76;097;03.44.43.480
12888;170555;34.76;098;03.44.43.480
12928;170555;34.76;099;03.44.43.480
12892;170557;34.76;100;03.44.43.590
12884;170566;34.76;101;03.44.43.601
12920;170556;34.76;102;03.44.43.601
12868;170559;34.76;103;03.44.43.601
12880;170563;34.76;104;03.44.43.601
12912;170572;34.76;105;03.44.43.601
12928;170569;34.76;106;03.44.43.601
12912;170566;34.76;107;03.44.43.601
12904;170562;34.76;108;03.44.43.601
12904;170569;34.76;109;03.44.43.601
12908;170572;34.76;110;03.44.43.601
12908;170564;34.76;111;03.44.43.601
12892;170570;34.76;112;03.44.43.601
12928;170561;34.76;113;03.44.43.601
12912;170568;34.76;114;03.44.43.612
12916;170575;34.76;115;03.44.43.612
12900;170572;34.76;116;03.44.43.612
12896;170570;34.76;117;03.44.43.612
12892;170572;34.76;118;03.44.43.612
12876;170569;34.76;119;03.44.43.612
12924;170573;34.76;120;03.44.43.612
12884;170570;34.76;121;03.44.43.612
12908;170566;34.76;122;03.44.43.612
12884;170566;34.76;123;03.44.43.612
12916;170561;34.76;124;03.44.43.612
12900;170559;34.76;125;03.44.43.711
12896;170551;34.76;126;03.44.43.711
12924;170549;34.76;127;03.44.43.711
12904;170535;34.76;128;03.44.43.711
12892;170545;34.76;129;03.44.43.711
12892;170535;34.76;130;03.44.43.711
12884;170531;34.76;131;03.44.43.711
12908;170530;34.76;132;03.44.43.711
12900;170519;34.76;133;03.44.43.733
12904;170526;34.76;134;03.44.43.733
12904;170526;34.76;135;03.44.43.733
12908;170513;34.76;136;03.44.43.733
12860;170501;34.76;137;03.44.43.733
12860;170498;34.76;138;03.44.43.733
12904;170502;34.76;139;03.44.43.733
12904;170501;34.76;140;03.44.43.733
12892;170489;34.76;141;03.44.43.733
12928;170490;34.76;142;03.44.43.733
12912;170487;34.76;143;03.44.43.733
12892;170482;34.76;144;03.44.43.744
12900;170483;34.76;145;03.44.43.744
12928;170478;34.76;146;03.44.43.744
12912;170473;34.76;147;03.44.43.744
12876;170479;34.76;148;03.44.43.744
12932;170478;34.76;149;03.44.43.744
12912;170481;34.76;150;03.44.43.831
12884;170472;34.76;151;03.44.43.831
12892;170474;34.76;152;03.44.43.831
12896;170473;34.76;153;03.44.43.831
12912;170476;34.76;154;03.44.43.831
12908;170463;34.76;155;03.44.43.831
12892;170473;34.76;156;03.44.43.842
12908;170468;34.76;157;03.44.43.842
12928;170472;34.76;158;03.44.43.842
12892;170460;34.76;159;03.44.43.842
12888;170462;34.76;160;03.44.43.842
12904;170462;34.76;161;03.44.43.842
12896;170456;34.76;162;03.44.43.842
12928;170463;34.76;163;03.44.43.842
12892;170454;34.76;164;03.44.43.842
12900;170456;34.76;165;03.44.43.842
12900;170453;34.76;166;03.44.43.854
12912;170458;34.76;167;03.44.43.865
12888;170452;34.76;168;03.44.43.865
12912;170457;34.76;169;03.44.43.865
12916;170458;34.76;170;03.44.43.865
12860;170463;34.76;171;03.44.43.865
12904;170463;34.76;172;03.44.43.865
12916;170460;34.76;173;03.44.43.865
12944;170464;34.76;174;03.44.43.876
12916;170464;34.76;175;03.44.43.952
12892;170457;34.76;176;03.44.43.952
12884;170470;34.76;177;03.44.43.952
12912;170466;34.76;178;03.44.43.963
12900;170463;34.76;179;03.44.43.963
12920;170461;34.76;180;03.44.43.963
12892;170467;34.76;181;03.44.43.963
12892;170463;34.76;182;03.44.43.963
12888;170461;34.76;183;03.44.43.963
12892;170472;34.76;184;03.44.43.963
12860;170467;34.76;185;03.44.43.963
12912;170464;34.76;186;03.44.43.963
12924;170463;34.76;187;03.44.43.963
12892;170467;34.76;188;03.44.43.963
12892;170469;34.76;189;03.44.43.963
12920;170464;34.76;190;03.44.43.963
12940;170466;34.76;191;03.44.43.963
12896;170466;34.76;192;03.44.43.996
12884;170465;34.76;193;03.44.43.996
12916;170472;34.76;194;03.44.43.996
12936;170482;34.76;195;03.44.44.007
12928;170480;34.76;196;03.44.44.007
12904;170469;34.76;197;03.44.44.007
12928;170470;34.76;198;03.44.44.007
12936;170474;34.76;199;03.44.44.007
12900;170471;34.76;200;03.44.44.095
12868;170476;34.76;201;03.44.44.095
12944;170470;34.76;202;03.44.44.095
12916;170473;34.76;203;03.44.44.095
12916;170481;34.76;204;03.44.44.095
12904;170479;34.76;205;03.44.44.095
12904;170475;34.76;206;03.44.44.095
12928;170476;34.76;207;03.44.44.095
12912;170484;34.76;208;03.44.44.095
12884;170485;34.76;209;03.44.44.095
12900;170486;34.76;210;03.44.44.095
12944;170477;34.76;211;03.44.44.095
12896;170480;34.76;212;03.44.44.106
12904;170487;34.76;213;03.44.44.106
12900;170487;34.76;214;03.44.44.106
12912;170482;34.76;215;03.44.44.106
12908;170489;34.76;216;03.44.44.106
12892;170486;34.76;217;03.44.44.106
12896;170494;34.76;218;03.44.44.106
12928;170491;34.76;219;03.44.44.106
12916;170490;34.76;220;03.44.44.106
12884;170488;34.76;221;03.44.44.106
12916;170493;34.76;222;03.44.44.106
12912;170491;34.76;223;03.44.44.106
12892;170496;34.76;224;03.44.44.117
12888;170488;34.76;225;03.44.44.204
12920;170491;34.76;226;03.44.44.204
12908;170496;34.76;227;03.44.44.204
12916;170489;34.76;228;03.44.44.204
12884;170495;34.76;229;03.44.44.204
12936;170497;34.76;230;03.44.44.204
12928;170485;34.76;231;03.44.44.204
12924;170491;34.76;232;03.44.44.204
12928;170496;34.76;233;03.44.44.226
12908;170502;34.76;234;03.44.44.226
12932;170493;34.76;235;03.44.44.226
12884;170498;34.76;236;03.44.44.226
12908;170488;34.76;237;03.44.44.226
12900;170490;34.76;238;03.44.44.226
12908;170492;34.76;239;03.44.44.226
12920;170486;34.76;240;03.44.44.226
12888;170491;34.76;241;03.44.44.226
12908;170496;34.76;242;03.44.44.226
12920;170495;34.76;243;03.44.44.237
12904;170491;34.76;244;03.44.44.237
12908;170489;34.76;245;03.44.44.237
12904;170493;34.76;246;03.44.44.237
12912;170491;34.76;247;03.44.44.237
12928;170496;34.76;248;03.44.44.237
12928;170499;34.76;249;03.44.44.237
12904;170500;34.76;250;03.44.44.325
12892;170493;34.76;251;03.44.44.325
12904;170491;34.76;252;03.44.44.325
12928;170491;34.76;253;03.44.44.325
12908;170503;34.76;254;03.44.44.325
12896;170499;34.76;255;03.44.44.336
12900;170487;34.76;256;03.44.44.336
12896;170497;34.76;257;03.44.44.336
12896;170491;34.76;258;03.44.44.336
12912;170510;34.76;259;03.44.44.336
12912;170501;34.76;260;03.44.44.336
12924;170502;34.76;261;03.44.44.336
12920;170505;34.76;262;03.44.44.336
12904;170500;34.76;263;03.44.44.336
12892;170500;34.76;264;03.44.44.336
12900;170504;34.76;265;03.44.44.336
12896;170509;34.76;266;03.44.44.336
12920;170517;34.76;267;03.44.44.336
12892;170511;34.76;268;03.44.44.347
12912;170520;34.76;269;03.44.44.347
12888;170518;34.76;270;03.44.44.347
12912;170524;34.76;271;03.44.44.347
12892;170528;34.76;272;03.44.44.347
12904;170526;34.76;273;03.44.44.347
12912;170529;34.76;274;03.44.44.347
12888;170524;34.76;275;03.44.44.445
12892;170534;34.76;276;03.44.44.456
12892;170525;34.76;277;03.44.44.456
12892;170541;34.76;278;03.44.44.456
12900;170535;34.76;279;03.44.44.456
12892;170533;34.76;280;03.44.44.456
12900;170530;34.76;281;03.44.44.456
12888;170530;34.76;282;03.44.44.456
12884;170535;34.76;283;03.44.44.456
12892;170529;34.76;284;03.44.44.456
12896;170515;34.76;285;03.44.44.456
12896;170512;34.76;286;03.44.44.456
12908;170509;34.76;287;03.44.44.456
12896;170506;34.76;288;03.44.44.456
12892;170497;34.76;289;03.44.44.467
12896;170499;34.76;290;03.44.44.467
12908;170494;34.76;291;03.44.44.467
12896;170493;34.76;292;03.44.44.467
12884;170491;34.76;293;03.44.44.467
12892;170483;34.76;294;03.44.44.467
12912;170485;34.76;295;03.44.44.467
12904;170470;34.76;296;03.44.44.467
12888;170471;34.76;297;03.44.44.467
12908;170470;34.76;298;03.44.44.467
12936;170456;34.76;299;03.44.44.467
12896;170467;34.76;300;03.44.44.588
12884;170466;34.76;301;03.44.44.588
12908;170474;34.76;302;03.44.44.588
12904;170466;34.76;303;03.44.44.588
12916;170465;34.76;304;03.44.44.588
12912;170460;34.76;305;03.44.44.588
12888;170469;34.76;306;03.44.44.588
12912;170463;34.76;307;03.44.44.588
12924;170469;34.76;308;03.44.44.588
12944;170458;34.76;309;03.44.44.588
12892;170460;34.76;310;03.44.44.599
12896;170463;34.76;311;03.44.44.599
12896;170467;34.76;312;03.44.44.599
12892;170461;34.76;313;03.44.44.599
12912;170467;34.76;314;03.44.44.599
12928;170460;34.76;315;03.44.44.599
12860;170466;34.76;316;03.44.44.599
12880;170463;34.76;317;03.44.44.599
12868;170456;34.76;318;03.44.44.599
12892;170466;34.76;319;03.44.44.599
12880;170470;34.76;320;03.44.44.599
12892;170466;34.76;321;03.44.44.599
12876;170471;34.76;322;03.44.44.599
12916;170472;34.76;323;03.44.44.610
12892;170473;34.76;324;03.44.44.610
12884;170475;34.76;325;03.44.44.720
12872;170479;34.76;326;03.44.44.720
12904;170485;34.76;327;03.44.44.720
12892;170484;34.76;328;03.44.44.720
12884;170482;34.76;329;03.44.44.720
12892;170473;34.76;330;03.44.44.720
12916;170487;34.76;331;03.44.44.731
12884;170486;34.76;332;03.44.44.731
12912;170483;34.76;333;03.44.44.731
12900;170490;34.76;334;03.44.44.731
12876;170486;34.76;335;03.44.44.731
12880;170476;34.76;336;03.44.44.731
12912;170494;34.76;337;03.44.44.731
12932;170486;34.76;338;03.44.44.731
12912;170481;34.76;339;03.44.44.731
12880;170486;34.76;340;03.44.44.731
12884;170493;34.76;341;03.44.44.731
12912;170498;34.76;342;03.44.44.731
12892;170494;34.76;343;03.44.44.731
12892;170496;34.76;344;03.44.44.741
12896;170495;34.76;345;03.44.44.741
12892;170488;34.76;346;03.44.44.741
12900;170495;34.76;347;03.44.44.741
12900;170495;34.76;348;03.44.44.741
12904;170490;34.76;349;03.44.44.741
12876;170492;34.76;350;03.44.44.829
12860;170483;34.76;351;03.44.44.840
12892;170488;34.76;352;03.44.44.840
12876;170494;34.76;353;03.44.44.840
12880;170495;34.76;354;03.44.44.840
12892;170489;34.76;355;03.44.44.840
12944;170503;34.76;356;03.44.44.840
12880;170493;34.76;357;03.44.44.840
12908;170486;34.76;358;03.44.44.840
12920;170497;34.76;359;03.44.44.840
12900;170487;34.76;360;03.44.44.851
12896;170504;34.76;361;03.44.44.851
12876;170500;34.76;362;03.44.44.851
12896;170504;34.76;363;03.44.44.851
12892;170506;34.76;364;03.44.44.851
12884;170507;34.76;365;03.44.44.851
12928;170510;34.76;366;03.44.44.851
12908;170510;34.76;367;03.44.44.851
12860;170513;34.76;368;03.44.44.851
12900;170518;34.76;369;03.44.44.851
12892;170525;34.76;370;03.44.44.851
12896;170530;34.76;371;03.44.44.851
12884;170529;34.76;372;03.44.44.851
12920;170535;34.76;373;03.44.44.862
12904;170536;34.76;374;03.44.44.862
12880;170544;34.76;375;03.44.44.961
12876;170545;34.76;376;03.44.44.961
12904;170537;34.76;377;03.44.44.961
12900;170548;34.76;378;03.44.44.961
12920;170543;34.76;379;03.44.44.961
12912;170558;34.76;380;03.44.44.961
12908;170554;34.76;381;03.44.44.961
12904;170558;34.76;382;03.44.44.961
12908;170550;34.76;383;03.44.44.961
12912;170557;34.76;384;03.44.44.961
12904;170559;34.76;385;03.44.44.961
12900;170562;34.76;386;03.44.44.972
12904;170568;34.76;387;03.44.44.972
12908;170565;34.76;388;03.44.44.972
12892;170569;34.76;389;03.44.44.972
12892;170565;34.76;390;03.44.44.972
12904;170567;34.76;391;03.44.44.972
12904;170569;34.76;392;03.44.44.972
12892;170570;34.76;393;03.44.44.972
12924;170577;34.76;394;03.44.44.972
12904;170573;34.76;395;03.44.44.972
12892;170579;34.76;396;03.44.44.972
12888;170575;34.76;397;03.44.44.972
12900;170580;34.76;398;03.44.44.972
12908;170575;34.76;399;03.44.44.983
d;e;f;03.44.46.252
12872;001046;34.76;400;03.44.46.373
12904;057552;34.76;401;03.44.46.373
12876;073939;34.76;402;03.44.46.373
12888;090305;34.76;403;03.44.46.373
12892;106746;34.76;404;03.44.46.373
12908;123082;34.76;405;03.44.46.373
12896;139461;34.76;406;03.44.46.384
12860;155889;34.76;407;03.44.46.384
12884;170941;34.76;408;03.44.46.406
12904;170669;34.76;409;03.44.46.406
12896;170669;34.76;410;03.44.46.406
12892;170659;34.76;411;03.44.46.406
12888;170664;34.76;412;03.44.46.406
12932;170657;34.76;413;03.44.46.406
12896;170661;34.76;414;03.44.46.417
12920;170662;34.76;415;03.44.46.417
12924;170653;34.76;416;03.44.46.417
12904;170660;34.76;417;03.44.46.417
12896;170652;34.76;418;03.44.46.417
12928;170659;34.76;419;03.44.46.417
12896;170659;34.76;420;03.44.46.417
12884;170658;34.76;421;03.44.46.417
12896;170658;34.76;422;03.44.46.417
12904;170657;34.76;423;03.44.46.417
12860;170654;34.76;424;03.44.46.417
12900;170655;34.76;425;03.44.46.494
12876;170649;34.76;426;03.44.46.494
12920;170657;34.76;427;03.44.46.505
12880;170651;34.76;428;03.44.46.505
12896;170656;34.76;429;03.44.46.505
12892;170650;34.76;430;03.44.46.505
12932;170642;34.76;431;03.44.46.505
12916;170650;34.76;432;03.44.46.505
12880;170658;34.76;433;03.44.46.505
12888;170654;34.76;434;03.44.46.505
12900;170647;34.76;435;03.44.46.505
12892;170647;34.76;436;03.44.46.505
12896;170650;34.76;437;03.44.46.505
12884;170647;34.76;438;03.44.46.505
12932;170644;34.76;439;03.44.46.505
12920;170644;34.76;440;03.44.46.515
12884;170639;34.76;441;03.44.46.515
12912;170622;34.76;442;03.44.46.515
12888;170628;34.76;443;03.44.46.515
12876;170624;34.76;444;03.44.46.515
12900;170619;34.76;445;03.44.46.515
12916;170605;34.76;446;03.44.46.515
12896;170596;34.76;447;03.44.46.515
12892;170594;34.76;448;03.44.46.515
12928;170589;34.76;449;03.44.46.515
12904;170575;34.76;450;03.44.46.635
12916;170578;34.76;451;03.44.46.635
12916;170572;34.76;452;03.44.46.635
12904;170569;34.76;453;03.44.46.635
12912;170563;34.76;454;03.44.46.635
12892;170554;34.76;455;03.44.46.635
12888;170552;34.76;456;03.44.46.635
12900;170542;34.76;457;03.44.46.635
12904;170542;34.76;458;03.44.46.635
12880;170539;34.76;459;03.44.46.635
12916;170536;34.76;460;03.44.46.646
12904;170532;34.76;461;03.44.46.646
12900;170532;34.76;462;03.44.46.646
12884;170531;34.76;463;03.44.46.646
12888;170526;34.76;464;03.44.46.646
12904;170524;34.76;465;03.44.46.646
12892;170521;34.76;466;03.44.46.646
12904;170529;34.76;467;03.44.46.657
12880;170520;34.76;468;03.44.46.657
12876;170513;34.76;469;03.44.46.657
12928;170517;34.76;470;03.44.46.657
12892;170520;34.76;471;03.44.46.657
12912;170516;34.76;472;03.44.46.657
12876;170518;34.76;473;03.44.46.657
12896;170512;34.76;474;03.44.46.657
12892;170521;34.76;475;03.44.46.767
12896;170509;34.76;476;03.44.46.767
12920;170524;34.76;477;03.44.46.767
12916;170522;34.76;478;03.44.46.767
12880;170511;34.76;479;03.44.46.767
12904;170518;34.76;480;03.44.46.767
12900;170513;34.76;481;03.44.46.778
12884;170510;34.76;482;03.44.46.778
12892;170520;34.76;483;03.44.46.778
12892;170519;34.76;484;03.44.46.778
12904;170511;34.76;485;03.44.46.778
12892;170516;34.76;486;03.44.46.778
12932;170508;34.76;487;03.44.46.778
12860;170512;34.76;488;03.44.46.778
12904;170513;34.76;489;03.44.46.778
12896;170523;34.76;490;03.44.46.778
12892;170520;34.76;491;03.44.46.778
12892;170522;34.76;492;03.44.46.778
12892;170516;34.76;493;03.44.46.778
12896;170515;34.76;494;03.44.46.789
12900;170505;34.76;495;03.44.46.789
12904;170513;34.76;496;03.44.46.789
12916;170510;34.76;497;03.44.46.789
12876;170513;34.76;498;03.44.46.789
12892;170517;34.76;499;03.44.46.789
12888;170507;34.80;500;03.44.46.866
12912;170511;34.80;501;03.44.46.866
12900;170508;34.80;502;03.44.46.866
12876;170511;34.80;503;03.44.46.877
12888;170517;34.80;504;03.44.46.877
12908;170504;34.80;505;03.44.46.877
12876;170505;34.80;506;03.44.46.877
12928;170501;34.80;507;03.44.46.877
12896;170500;34.80;508;03.44.46.899
12908;170504;34.80;509;03.44.46.899
12884;170497;34.80;510;03.44.46.899
12884;170491;34.80;511;03.44.46.909
12888;170494;34.80;512;03.44.46.909
12920;170491;34.80;513;03.44.46.909
12892;170482;34.80;514;03.44.46.909
12904;170497;34.80;515;03.44.46.909
12888;170496;34.80;516;03.44.46.909
12900;170490;34.80;517;03.44.46.909
12892;170486;34.80;518;03.44.46.909
12904;170487;34.80;519;03.44.46.909
12892;170490;34.80;520;03.44.46.909
12916;170487;34.80;521;03.44.46.909
12916;170490;34.80;522;03.44.46.909
12888;170493;34.80;523;03.44.46.909
12928;170489;34.80;524;03.44.46.920
12900;170490;34.80;525;03.44.46.997
12884;170486;34.80;526;03.44.46.997
12908;170484;34.80;527;03.44.46.997
12904;170489;34.80;528;03.44.46.997
12900;170490;34.80;529;03.44.46.997
12928;170490;34.80;530;03.44.46.997
12900;170485;34.80;531;03.44.46.997
12892;170491;34.80;532;03.44.46.997
12896;170494;34.80;533;03.44.46.997
12920;170484;34.80;534;03.44.46.997
12892;170489;34.80;535;03.44.46.997
12888;170490;34.80;536;03.44.46.997
12900;170492;34.80;537;03.44.47.008
12876;170488;34.80;538;03.44.47.008
12936;170494;34.80;539;03.44.47.008
12876;170494;34.80;540;03.44.47.008
12908;170495;34.80;541;03.44.47.008
12888;170505;34.80;542;03.44.47.008
12908;170494;34.80;543;03.44.47.008
12920;170502;34.80;544;03.44.47.008
12880;170512;34.80;545;03.44.47.008
12888;170505;34.80;546;03.44.47.008
12920;170512;34.80;547;03.44.47.008
12892;170504;34.80;548;03.44.47.008
12900;170509;34.80;549;03.44.47.008
12896;170512;34.76;550;03.44.47.129
12892;170514;34.76;551;03.44.47.129
12892;170511;34.76;552;03.44.47.129
12892;170517;34.76;553;03.44.47.129
12892;170524;34.76;554;03.44.47.129
12888;170518;34.76;555;03.44.47.129
12916;170524;34.76;556;03.44.47.129
12892;170522;34.76;557;03.44.47.129
12904;170530;34.76;558;03.44.47.140
12900;170531;34.76;559;03.44.47.140
12896;170526;34.76;560;03.44.47.140
12880;170528;34.76;561;03.44.47.140
12876;170539;34.76;562;03.44.47.140
12904;170530;34.76;563;03.44.47.140
12904;170541;34.76;564;03.44.47.140
12876;170534;34.76;565;03.44.47.140
12872;170536;34.76;566;03.44.47.140
12888;170545;34.76;567;03.44.47.151
12892;170539;34.76;568;03.44.47.151
12904;170540;34.76;569;03.44.47.151
12892;170537;34.76;570;03.44.47.151
12884;170539;34.76;571;03.44.47.151
12872;170520;34.76;572;03.44.47.151
12908;170522;34.76;573;03.44.47.151
12908;170520;34.76;574;03.44.47.151
12888;170516;34.76;575;03.44.47.260
12876;170519;34.76;576;03.44.47.260
12928;170517;34.76;577;03.44.47.260
12920;170506;34.76;578;03.44.47.260
12876;170500;34.76;579;03.44.47.271
12888;170497;34.76;580;03.44.47.271
12900;170506;34.76;581;03.44.47.271
12908;170483;34.76;582;03.44.47.271
12896;170484;34.76;583;03.44.47.271
12912;170480;34.76;584;03.44.47.271
12912;170488;34.76;585;03.44.47.271
12884;170477;34.76;586;03.44.47.271
12892;170470;34.76;587;03.44.47.271
12928;170466;34.76;588;03.44.47.271
12908;170476;34.76;589;03.44.47.271
12916;170473;34.76;590;03.44.47.271
12944;170471;34.76;591;03.44.47.271
12900;170469;34.76;592;03.44.47.282
12876;170467;34.76;593;03.44.47.282
12876;170473;34.76;594;03.44.47.282
12876;170464;34.76;595;03.44.47.282
12892;170467;34.76;596;03.44.47.282
12892;170469;34.76;597;03.44.47.282
12888;170462;34.76;598;03.44.47.282
12920;170463;34.76;599;03.44.47.282
12884;170462;34.76;600;03.44.47.380
12876;170466;34.76;601;03.44.47.380
12912;170464;34.76;602;03.44.47.380
12884;170469;34.76;603;03.44.47.380
12932;170468;34.76;604;03.44.47.380
12888;170463;34.76;605;03.44.47.380
12904;170470;34.76;606;03.44.47.380
12880;170467;34.76;607;03.44.47.380
12908;170460;34.76;608;03.44.47.380
12912;170469;34.76;609;03.44.47.380
12904;170473;34.76;610;03.44.47.380
12908;170469;34.76;611;03.44.47.380
12908;170474;34.76;612;03.44.47.391
12912;170471;34.76;613;03.44.47.391
12880;170480;34.76;614;03.44.47.391
12884;170471;34.76;615;03.44.47.391
12896;170477;34.76;616;03.44.47.391
12904;170477;34.76;617;03.44.47.402
12892;170473;34.76;618;03.44.47.402
12900;170473;34.76;619;03.44.47.402
12892;170473;34.76;620;03.44.47.402
12888;170484;34.76;621;03.44.47.402
12892;170477;34.76;622;03.44.47.402
12896;170487;34.76;623;03.44.47.402
12924;170477;34.76;624;03.44.47.402
12928;170480;34.76;625;03.44.47.501
12880;170485;34.76;626;03.44.47.501
12920;170487;34.76;627;03.44.47.501
12892;170486;34.76;628;03.44.47.501
12896;170480;34.76;629;03.44.47.501
12908;170487;34.76;630;03.44.47.501
12876;170481;34.76;631;03.44.47.501
12916;170474;34.76;632;03.44.47.501
12900;170481;34.76;633;03.44.47.501
12880;170475;34.76;634;03.44.47.512
12892;170469;34.76;635;03.44.47.512
12880;170476;34.76;636;03.44.47.512
12908;170472;34.76;637;03.44.47.512
12864;170480;34.76;638;03.44.47.512
12928;170470;34.76;639;03.44.47.512
12912;170481;34.76;640;03.44.47.512
12888;170475;34.76;641;03.44.47.512
12900;170474;34.76;642;03.44.47.512
12876;170469;34.76;643;03.44.47.512
12892;170469;34.76;644;03.44.47.512
12912;170472;34.76;645;03.44.47.512
12912;170475;34.76;646;03.44.47.512
12904;170467;34.76;647;03.44.47.523
12928;170474;34.76;648;03.44.47.523
12908;170480;34.76;649;03.44.47.523
12892;170469;34.76;650;03.44.47.621
12912;170479;34.76;651;03.44.47.621
12908;170481;34.76;652;03.44.47.621
12920;170478;34.76;653;03.44.47.621
12920;170484;34.76;654;03.44.47.621
12904;170477;34.76;655;03.44.47.632
12880;170479;34.76;656;03.44.47.632
12916;170479;34.76;657;03.44.47.632
12884;170492;34.76;658;03.44.47.632
12888;170483;34.76;659;03.44.47.632
12928;170491;34.76;660;03.44.47.632
12904;170489;34.76;661;03.44.47.632
12876;170492;34.76;662;03.44.47.632
12908;170491;34.76;663;03.44.47.632
12912;170500;34.76;664;03.44.47.632
12928;170502;34.76;665;03.44.47.632
12932;170509;34.76;666;03.44.47.632
12912;170493;34.76;667;03.44.47.632
12920;170501;34.76;668;03.44.47.643
12900;170502;34.76;669;03.44.47.643
12892;170502;34.76;670;03.44.47.643
12892;170515;34.76;671;03.44.47.643
12896;170513;34.76;672;03.44.47.643
12916;170512;34.76;673;03.44.47.643
12920;170518;34.76;674;03.44.47.643
12892;170508;34.76;675;03.44.47.753
12900;170511;34.76;676;03.44.47.764
12924;170521;34.76;677;03.44.47.764
12900;170528;34.76;678;03.44.47.764
12892;170523;34.76;679;03.44.47.764
12884;170518;34.76;680;03.44.47.764
12884;170520;34.76;681;03.44.47.764
12884;170529;34.76;682;03.44.47.764
12900;170520;34.76;683;03.44.47.764
12900;170521;34.76;684;03.44.47.764
12876;170524;34.76;685;03.44.47.764
12884;170527;34.76;686;03.44.47.764
12884;170532;34.76;687;03.44.47.764
12904;170534;34.76;688;03.44.47.764
12888;170539;34.76;689;03.44.47.775
12896;170537;34.76;690;03.44.47.775
12880;170531;34.76;691;03.44.47.775
12900;170540;34.76;692;03.44.47.775
12892;170532;34.76;693;03.44.47.775
12888;170535;34.76;694;03.44.47.775
12892;170532;34.76;695;03.44.47.775
12912;170534;34.76;696;03.44.47.775
12912;170529;34.76;697;03.44.47.775
12896;170516;34.76;698;03.44.47.775
12904;170525;34.76;699;03.44.47.775
12880;170522;34.80;700;03.44.47.873
12912;170508;34.80;701;03.44.47.873
12900;170507;34.80;702;03.44.47.873
12884;170506;34.80;703;03.44.47.873
12892;170502;34.80;704;03.44.47.873
12884;170494;34.80;705;03.44.47.873
12884;170481;34.80;706;03.44.47.873
12888;170482;34.80;707;03.44.47.873
12892;170480;34.80;708;03.44.47.895
12896;170477;34.80;709;03.44.47.895
12916;170473;34.80;710;03.44.47.895
12904;170473;34.80;711;03.44.47.895
12896;170464;34.80;712;03.44.47.895
12908;170465;34.80;713;03.44.47.895
12928;170454;34.80;714;03.44.47.895
12928;170455;34.80;715;03.44.47.895
12864;170442;34.80;716;03.44.47.895
12884;170439;34.80;717;03.44.47.895
12892;170432;34.80;718;03.44.47.895
12892;170435;34.80;719;03.44.47.895
12904;170437;34.80;720;03.44.47.906
12888;170442;34.80;721;03.44.47.906
12912;170439;34.80;722;03.44.47.906
12896;170437;34.80;723;03.44.47.906
12904;170437;34.80;724;03.44.47.906
12872;170430;34.80;725;03.44.47.994
12876;170440;34.80;726;03.44.47.994
12908;170435;34.80;727;03.44.47.994
12904;170431;34.80;728;03.44.47.994
12888;170436;34.80;729;03.44.47.994
12912;170435;34.80;730;03.44.47.994
12884;170439;34.80;731;03.44.47.994
12900;170432;34.80;732;03.44.48.005
12904;170434;34.80;733;03.44.48.005
12908;170435;34.80;734;03.44.48.005
12888;170437;34.80;735;03.44.48.005
12916;170435;34.80;736;03.44.48.005
12884;170442;34.80;737;03.44.48.005
12908;170436;34.80;738;03.44.48.005
12860;170441;34.80;739;03.44.48.005
12928;170436;34.80;740;03.44.48.005
12900;170432;34.80;741;03.44.48.005
12888;170432;34.80;742;03.44.48.005
12896;170441;34.80;743;03.44.48.005
12908;170436;34.80;744;03.44.48.005
12920;170435;34.80;745;03.44.48.005
12884;170448;34.80;746;03.44.48.016
12872;170435;34.80;747;03.44.48.016
12908;170442;34.80;748;03.44.48.016
12900;170439;34.80;749;03.44.48.016
12896;170444;34.76;750;03.44.48.126
12912;170442;34.76;751;03.44.48.126
12900;170446;34.76;752;03.44.48.126
12904;170444;34.76;753;03.44.48.126
12888;170446;34.76;754;03.44.48.138
12896;170441;34.76;755;03.44.48.138
12896;170437;34.76;756;03.44.48.138
12908;170445;34.76;757;03.44.48.138
12912;170447;34.76;758;03.44.48.138
12888;170443;34.76;759;03.44.48.138
12892;170446;34.76;760;03.44.48.138
12880;170449;34.76;761;03.44.48.138
12876;170445;34.76;762;03.44.48.138
12888;170437;34.76;763;03.44.48.138
12904;170425;34.76;764;03.44.48.138
12916;170438;34.76;765;03.44.48.138
12892;170446;34.76;766;03.44.48.138
12892;170447;34.76;767;03.44.48.149
12884;170436;34.76;768;03.44.48.149
12888;170444;34.76;769;03.44.48.149
12912;170437;34.76;770;03.44.48.149
12892;170446;34.76;771;03.44.48.149
12888;170441;34.76;772;03.44.48.149
12884;170446;34.76;773;03.44.48.149
12904;170443;34.76;774;03.44.48.149
12908;170446;34.76;775;03.44.48.258
12876;170442;34.76;776;03.44.48.258
12924;170448;34.76;777;03.44.48.258
12904;170438;34.76;778;03.44.48.258
12896;170444;34.76;779;03.44.48.258
12904;170446;34.76;780;03.44.48.258
12876;170448;34.76;781;03.44.48.258
12900;170451;34.76;782;03.44.48.258
12884;170452;34.76;783;03.44.48.258
12868;170456;34.76;784;03.44.48.269
12860;170446;34.76;785;03.44.48.269
12888;170453;34.76;786;03.44.48.269
12876;170446;34.76;787;03.44.48.269
12932;170458;34.76;788;03.44.48.269
12904;170451;34.76;789;03.44.48.269
12912;170460;34.76;790;03.44.48.269
12896;170459;34.76;791;03.44.48.269
12916;170455;34.76;792;03.44.48.280
12904;170460;34.76;793;03.44.48.280
12876;170458;34.76;794;03.44.48.280
12896;170454;34.76;795;03.44.48.280
12884;170458;34.76;796;03.44.48.280
12892;170458;34.76;797;03.44.48.280
12872;170467;34.76;798;03.44.48.280
12884;170460;34.76;799;03.44.48.280
12892;170452;34.76;800;03.44.48.401
12876;170463;34.76;801;03.44.48.401
12916;170458;34.76;802;03.44.48.401
12872;170470;34.76;803;03.44.48.401
12888;170470;34.76;804;03.44.48.401
12872;170471;34.76;805;03.44.48.401
12884;170471;34.76;806;03.44.48.401
12900;170471;34.76;807;03.44.48.401
12904;170473;34.76;808;03.44.48.401
12880;170475;34.76;809;03.44.48.401
12884;170478;34.76;810;03.44.48.412
12888;170475;34.76;811;03.44.48.412
12896;170473;34.76;812;03.44.48.412
12876;170474;34.76;813;03.44.48.412
12884;170477;34.76;814;03.44.48.412
12884;170480;34.76;815;03.44.48.412
12896;170478;34.76;816;03.44.48.412
12888;170481;34.76;817;03.44.48.412
12888;170479;34.76;818;03.44.48.412
12888;170482;34.76;819;03.44.48.412
12896;170470;34.76;820;03.44.48.412
12872;170480;34.76;821;03.44.48.412
12876;170474;34.76;822;03.44.48.412
12896;170483;34.76;823;03.44.48.423
12940;170480;34.76;824;03.44.48.423
12900;170480;34.76;825;03.44.48.500
12904;170474;34.76;826;03.44.48.500
12884;170469;34.76;827;03.44.48.500
12880;170465;34.76;828;03.44.48.500
12892;170467;34.76;829;03.44.48.500
12888;170464;34.76;830;03.44.48.500
12912;170451;34.76;831;03.44.48.500
12876;170456;34.76;832;03.44.48.511
12892;170432;34.76;833;03.44.48.511
12872;170435;34.76;834;03.44.48.511
12896;170436;34.76;835;03.44.48.511
12892;170426;34.76;836;03.44.48.511
12892;170429;34.76;837;03.44.48.511
12920;170422;34.76;838;03.44.48.511
12880;170418;34.76;839;03.44.48.522
12932;170416;34.76;840;03.44.48.522
12916;170402;34.76;841;03.44.48.522
12892;170408;34.76;842;03.44.48.522
12896;170407;34.76;843;03.44.48.522
12892;170410;34.76;844;03.44.48.522
12892;170396;34.76;845;03.44.48.522
12884;170396;34.76;846;03.44.48.522
12892;170401;34.76;847;03.44.48.522
12928;170393;34.76;848;03.44.48.522
12912;170395;34.76;849;03.44.48.533
12860;170385;34.76;850;03.44.48.631
12896;170390;34.76;851;03.44.48.631
12924;170388;34.76;852;03.44.48.631
12904;170384;34.76;853;03.44.48.642
12928;170384;34.76;854;03.44.48.642
12912;170388;34.76;855;03.44.48.642
12896;170389;34.76;856;03.44.48.642
12908;170394;34.76;857;03.44.48.642
12896;170385;34.76;858;03.44.48.653
12908;170388;34.76;859;03.44.48.653
12916;170385;34.76;860;03.44.48.664
12884;170382;34.76;861;03.44.48.664
12892;170383;34.76;862;03.44.48.664
12884;170387;34.76;863;03.44.48.664
12876;170388;34.76;864;03.44.48.664
12904;170390;34.76;865;03.44.48.664
12912;170383;34.76;866;03.44.48.664
12920;170380;34.76;867;03.44.48.664
12900;170391;34.76;868;03.44.48.664
12896;170391;34.76;869;03.44.48.664
12900;170393;34.76;870;03.44.48.664
12868;170403;34.76;871;03.44.48.664
12912;170402;34.76;872;03.44.48.664
12904;170393;34.76;873;03.44.48.664
12900;170402;34.76;874;03.44.48.675
12888;170398;34.76;875;03.44.48.752
12912;170410;34.76;876;03.44.48.752
12912;170404;34.76;877;03.44.48.752
12884;170411;34.76;878;03.44.48.752
12892;170410;34.76;879;03.44.48.752
12928;170406;34.76;880;03.44.48.752
12884;170413;34.76;881;03.44.48.752
12892;170419;34.76;882;03.44.48.752
12912;170410;34.76;883;03.44.48.752
12916;170420;34.76;884;03.44.48.752
12920;170414;34.76;885;03.44.48.752
12896;170411;34.76;886;03.44.48.752
12888;170400;34.76;887;03.44.48.763
12928;170410;34.76;888;03.44.48.763
12892;170413;34.76;889;03.44.48.763
12860;170411;34.76;890;03.44.48.763
12928;170411;34.76;891;03.44.48.763
12892;170403;34.76;892;03.44.48.763
12896;170405;34.76;893;03.44.48.763
12912;170410;34.76;894;03.44.48.763
12908;170415;34.76;895;03.44.48.763
12872;170415;34.76;896;03.44.48.763
12888;170410;34.76;897;03.44.48.763
12900;170395;34.76;898;03.44.48.763
12888;170406;34.76;899;03.44.48.763
12888;170404;34.76;900;03.44.48.884
12892;170397;34.76;901;03.44.48.884
12920;170411;34.76;902;03.44.48.884
12884;170400;34.76;903;03.44.48.884
12892;170405;34.76;904;03.44.48.884
12876;170396;34.76;905;03.44.48.884
12908;170398;34.76;906;03.44.48.884
12880;170393;34.76;907;03.44.48.884
12892;170394;34.76;908;03.44.48.895
12928;170405;34.76;909;03.44.48.895
12876;170402;34.76;910;03.44.48.895
12908;170398;34.76;911;03.44.48.895
12900;170401;34.76;912;03.44.48.895
12912;170400;34.76;913;03.44.48.895
12912;170408;34.76;914;03.44.48.895
12892;170402;34.76;915;03.44.48.895
12916;170404;34.76;916;03.44.48.895
12904;170406;34.76;917;03.44.48.895
12928;170405;34.76;918;03.44.48.895
12888;170396;34.76;919;03.44.48.895
12916;170408;34.76;920;03.44.48.895
12896;170412;34.76;921;03.44.48.906
12904;170411;34.76;922;03.44.48.906
12900;170413;34.76;923;03.44.48.906
12928;170404;34.76;924;03.44.48.906
12896;170414;34.76;925;03.44.48.993
12916;170411;34.76;926;03.44.48.993
12880;170416;34.76;927;03.44.48.993
12896;170415;34.76;928;03.44.48.993
12884;170417;34.76;929;03.44.49.003
12896;170412;34.76;930;03.44.49.003
12912;170425;34.76;931;03.44.49.003
12908;170423;34.76;932;03.44.49.003
12888;170432;34.76;933;03.44.49.014
12868;170433;34.76;934;03.44.49.014
12896;170435;34.76;935;03.44.49.014
12920;170430;34.76;936;03.44.49.014
12908;170431;34.76;937;03.44.49.014
12896;170439;34.76;938;03.44.49.025
12912;170439;34.76;939;03.44.49.025
12900;170439;34.76;940;03.44.49.025
12896;170444;34.76;941;03.44.49.025
12904;170453;34.76;942;03.44.49.025
12904;170446;34.76;943;03.44.49.025
12892;170456;34.76;944;03.44.49.025
12896;170455;34.76;945;03.44.49.025
12912;170453;34.76;946;03.44.49.025
12896;170461;34.76;947;03.44.49.025
12888;170456;34.76;948;03.44.49.025
12908;170461;34.76;949;03.44.49.025
12888;170470;34.76;950;03.44.49.135
12920;170469;34.76;951;03.44.49.135
12884;170463;34.76;952;03.44.49.135
12896;170470;34.76;953;03.44.49.135
12896;170472;34.76;954;03.44.49.135
12896;170479;34.76;955;03.44.49.135
12912;170472;34.76;956;03.44.49.135
12928;170472;34.76;957;03.44.49.135
12912;170482;34.76;958;03.44.49.146
12888;170482;34.76;959;03.44.49.146
12892;170468;34.76;960;03.44.49.146
12912;170469;34.76;961;03.44.49.146
12884;170464;34.76;962;03.44.49.146
12880;170464;34.76;963;03.44.49.146
12868;170459;34.76;964;03.44.49.146
12928;170455;34.76;965;03.44.49.146
12864;170451;34.76;966;03.44.49.146
12908;170450;34.76;967;03.44.49.146
12912;170432;34.76;968;03.44.49.146
12912;170430;34.76;969;03.44.49.146
12868;170427;34.76;970;03.44.49.157
12892;170421;34.76;971;03.44.49.157
12904;170424;34.76;972;03.44.49.157
12888;170418;34.76;973;03.44.49.157
12944;170417;34.76;974;03.44.49.157
12904;170415;34.76;975;03.44.49.245
12916;170400;34.76;976;03.44.49.245
12892;170398;34.76;977;03.44.49.245
12888;170401;34.76;978;03.44.49.245
12908;170382;34.76;979;03.44.49.245
12868;170394;34.76;980;03.44.49.245
12912;170388;34.76;981;03.44.49.245
12904;170379;34.76;982;03.44.49.245
12896;170387;34.76;983;03.44.49.245
12928;170385;34.76;984;03.44.49.256
12928;170374;34.76;985;03.44.49.256
12892;170378;34.76;986;03.44.49.256
12904;170371;34.76;987;03.44.49.256
12892;170380;34.76;988;03.44.49.256
12924;170370;34.76;989;03.44.49.256
12900;170365;34.76;990;03.44.49.256
12924;170372;34.76;991;03.44.49.256
12900;170367;34.76;992;03.44.49.256
12892;170363;34.76;993;03.44.49.256
12900;170366;34.76;994;03.44.49.256
12892;170368;34.76;995;03.44.49.256
12900;170367;34.76;996;03.44.49.256
12928;170371;34.76;997;03.44.49.267
12900;170370;34.76;998;03.44.49.267
12912;170364;34.76;999;03.44.49.267
12904;170360;34.76;000;03.44.49.376
12912;170368;34.76;001;03.44.49.376
12888;170372;34.76;002;03.44.49.376
12892;170377;34.76;003;03.44.49.376
12892;170374;34.76;004;03.44.49.376
12896;170378;34.76;005;03.44.49.376
12892;170373;34.76;006;03.44.49.387
12892;170369;34.76;007;03.44.49.387
12904;170369;34.76;008;03.44.49.387
12912;170376;34.76;009;03.44.49.387
12904;170378;34.76;010;03.44.49.387
12904;170373;34.76;011;03.44.49.387
12900;170375;34.76;012;03.44.49.387
12880;170383;34.76;013;03.44.49.387
12904;170370;34.76;014;03.44.49.387
12876;170381;34.76;015;03.44.49.387
12928;170383;34.76;016;03.44.49.387
12908;170376;34.76;017;03.44.49.387
12928;170376;34.76;018;03.44.49.398
12912;170378;34.76;019;03.44.49.398
12892;170376;34.76;020;03.44.49.398
12900;170364;34.76;021;03.44.49.398
12884;170375;34.76;022;03.44.49.398
12900;170376;34.76;023;03.44.49.398
12908;170380;34.76;024;03.44.49.398
12900;170376;34.76;025;03.44.49.519
12912;170386;34.76;026;03.44.49.530
12896;170380;34.76;027;03.44.49.530
12908;170380;34.76;028;03.44.49.530
12928;170375;34.76;029;03.44.49.530
12892;170376;34.76;030;03.44.49.530
12904;170388;34.76;031;03.44.49.530
12912;170383;34.76;032;03.44.49.530
12904;170380;34.76;033;03.44.49.530
12880;170375;34.76;034;03.44.49.530
12928;170380;34.76;035;03.44.49.530
12884;170387;34.76;036;03.44.49.530
12888;170382;34.76;037;03.44.49.530
12920;170380;34.76;038;03.44.49.530
12900;170388;34.76;039;03.44.49.541
12888;170388;34.76;040;03.44.49.541
12916;170385;34.76;041;03.44.49.541
12876;170388;34.76;042;03.44.49.541
12892;170389;34.76;043;03.44.49.541
12888;170393;34.76;044;03.44.49.541
12908;170388;34.76;045;03.44.49.541
12932;170392;34.76;046;03.44.49.541
12904;170394;34.76;047;03.44.49.541
12904;170390;34.76;048;03.44.49.541
12928;170398;34.76;049;03.44.49.541
12884;170395;34.76;050;03.44.49.629
12896;170395;34.76;051;03.44.49.629
12876;170401;34.76;052;03.44.49.629
12904;170408;34.76;053;03.44.49.629
12900;170411;34.76;054;03.44.49.629
12900;170403;34.76;055;03.44.49.629
12928;170405;34.76;056;03.44.49.629
12948;170403;34.76;057;03.44.49.629
12876;170407;34.76;058;03.44.49.662
12904;170410;34.76;059;03.44.49.662
12908;170404;34.76;060;03.44.49.662
12876;170398;34.76;061;03.44.49.662
12896;170416;34.76;062;03.44.49.662
12908;170409;34.76;063;03.44.49.662
12904;170417;34.76;064;03.44.49.662
12904;170419;34.76;065;03.44.49.662
12888;170416;34.76;066;03.44.49.662
12884;170424;34.76;067;03.44.49.662
12892;170416;34.76;068;03.44.49.662
12912;170419;34.76;069;03.44.49.673
12876;170423;34.76;070;03.44.49.673
12888;170424;34.76;071;03.44.49.673
12924;170422;34.76;072;03.44.49.673
12892;170417;34.76;073;03.44.49.673
12940;170429;34.76;074;03.44.49.673
12904;170432;34.76;075;03.44.49.749
12892;170435;34.76;076;03.44.49.749
12904;170430;34.76;077;03.44.49.749
12896;170431;34.76;078;03.44.49.749
12904;170439;34.76;079;03.44.49.749
12888;170440;34.76;080;03.44.49.749
12908;170435;34.76;081;03.44.49.749
12888;170443;34.76;082;03.44.49.760
12932;170441;34.76;083;03.44.49.760
12884;170444;34.76;084;03.44.49.760
12876;170448;34.76;085;03.44.49.760
12884;170449;34.76;086;03.44.49.760
12892;170451;34.76;087;03.44.49.760
12876;170456;34.76;088;03.44.49.760
12892;170446;34.76;089;03.44.49.760
12896;170459;34.76;090;03.44.49.760
12900;170455;34.76;091;03.44.49.760
12888;170465;34.76;092;03.44.49.760
12928;170459;34.76;093;03.44.49.760
12880;170463;34.76;094;03.44.49.760
12876;170456;34.76;095;03.44.49.771
12896;170467;34.76;096;03.44.49.771
12876;170461;34.76;097;03.44.49.771
12908;170467;34.76;098;03.44.49.771
12908;170466;34.76;099;03.44.49.771
12876;170464;34.76;100;03.44.49.881
12880;170469;34.76;101;03.44.49.881
12904;170462;34.76;102;03.44.49.881
12900;170471;34.76;103;03.44.49.881
12904;170460;34.76;104;03.44.49.892
12900;170461;34.76;105;03.44.49.892
12904;170459;34.76;106;03.44.49.892
12892;170445;34.76;107;03.44.49.892
12896;170452;34.76;108;03.44.49.892
12888;170442;34.76;109;03.44.49.892
12884;170437;34.76;110;03.44.49.892
12912;170438;34.76;111;03.44.49.892
12888;170428;34.76;112;03.44.49.892
12912;170423;34.76;113;03.44.49.892
12900;170419;34.76;114;03.44.49.892
12908;170408;34.76;115;03.44.49.892
12888;170407;34.76;116;03.44.49.892
12904;170399;34.76;117;03.44.49.903
12868;170395;34.76;118;03.44.49.903
12900;170400;34.76;119;03.44.49.903
12904;170384;34.76;120;03.44.49.903
12904;170386;34.76;121;03.44.49.903
12872;170382;34.76;122;03.44.49.903
12904;170376;34.76;123;03.44.49.903
12904;170388;34.76;124;03.44.49.903
12884;170371;34.76;125;03.44.49.991
12884;170371;34.76;126;03.44.50.002
12868;170367;34.76;127;03.44.50.002
12896;170369;34.76;128;03.44.50.002
12892;170383;34.76;129;03.44.50.002
12928;170374;34.76;130;03.44.50.002
12904;170369;34.76;131;03.44.50.002
12884;170372;34.76;132;03.44.50.002
12896;170369;34.76;133;03.44.50.024
12880;170366;34.76;134;03.44.50.024
12908;170366;34.76;135;03.44.50.024
12876;170364;34.76;136;03.44.50.024
12904;170364;34.76;137;03.44.50.024
12888;170366;34.76;138;03.44.50.024
12892;170365;34.76;139;03.44.50.024
12916;170358;34.76;140;03.44.50.024
12916;170367;34.76;141;03.44.50.024
12904;170361;34.76;142;03.44.50.024
12892;170359;34.76;143;03.44.50.024
12912;170363;34.76;144;03.44.50.024
12896;170369;34.76;145;03.44.50.035
12884;170375;34.76;146;03.44.50.035
12904;170373;34.76;147;03.44.50.035
12900;170373;34.76;148;03.44.50.035
12920;170370;34.76;149;03.44.50.035
12904;170369;34.76;150;03.44.50.121
12896;170371;34.76;151;03.44.50.121
12928;170377;34.76;152;03.44.50.121
12892;170370;34.76;153;03.44.50.121
12896;170372;34.76;154;03.44.50.121
12960;170371;34.76;155;03.44.50.121
12908;170369;34.76;156;03.44.50.121
12888;170382;34.76;157;03.44.50.121
12896;170380;34.76;158;03.44.50.132
12884;170373;34.76;159;03.44.50.132
12916;170380;34.76;160;03.44.50.132
12888;170385;34.76;161;03.44.50.132
12876;170378;34.76;162;03.44.50.132
12904;170378;34.76;163;03.44.50.132
12896;170375;34.76;164;03.44.50.132
12928;170383;34.76;165;03.44.50.132
12884;170381;34.76;166;03.44.50.132
12892;170386;34.76;167;03.44.50.154
12904;170375;34.76;168;03.44.50.154
12928;170376;34.76;169;03.44.50.154
12900;170378;34.76;170;03.44.50.154
12888;170377;34.76;171;03.44.50.154
12904;170383;34.76;172;03.44.50.154
12940;170371;34.76;173;03.44.50.154
12928;170387;34.76;174;03.44.50.154
12900;170375;34.76;175;03.44.50.242
12908;170388;34.76;176;03.44.50.242
12884;170378;34.76;177;03.44.50.242
12928;170381;34.76;178;03.44.50.242
12904;170386;34.76;179;03.44.50.253
12916;170379;34.76;180;03.44.50.253
12868;170386;34.76;181;03.44.50.253
12916;170394;34.76;182;03.44.50.253
12896;170388;34.76;183;03.44.50.253
12920;170389;34.76;184;03.44.50.253
12880;170401;34.76;185;03.44.50.253
12896;170397;34.76;186;03.44.50.253
12876;170396;34.76;187;03.44.50.253
12916;170397;34.76;188;03.44.50.253
12892;170406;34.76;189;03.44.50.253
12888;170405;34.76;190;03.44.50.253
12928;170404;34.76;191;03.44.50.253
12908;170403;34.76;192;03.44.50.264
12904;170403;34.76;193;03.44.50.264
12900;170398;34.76;194;03.44.50.264
12916;170413;34.76;195;03.44.50.264
12916;170406;34.76;196;03.44.50.264
12928;170413;34.76;197;03.44.50.264
12904;170418;34.76;198;03.44.50.264
12924;170419;34.76;199;03.44.50.264
12928;170415;34.76;200;03.44.50.384
12884;170415;34.76;201;03.44.50.384
12896;170421;34.76;202;03.44.50.384
12892;170425;34.76;203;03.44.50.384
12892;170426;34.76;204;03.44.50.384
12884;170427;34.76;205;03.44.50.384
12884;170427;34.76;206;03.44.50.384
12904;170423;34.76;207;03.44.50.384
12916;170436;34.76;208;03.44.50.384
12896;170436;34.76;209;03.44.50.384
12908;170438;34.76;210;03.44.50.384
12884;170442;34.76;211;03.44.50.384
12884;170437;34.76;212;03.44.50.384
12884;170443;34.76;213;03.44.50.395
12912;170454;34.76;214;03.44.50.395
12864;170446;34.76;215;03.44.50.395
12904;170439;34.76;216;03.44.50.395
12892;170445;34.76;217;03.44.50.395
12904;170437;34.76;218;03.44.50.395
12912;170450;34.76;219;03.44.50.395
12892;170445;34.76;220;03.44.50.395
12908;170457;34.76;221;03.44.50.395
12880;170450;34.76;222;03.44.50.395
12916;170448;34.76;223;03.44.50.395
12904;170455;34.76;224;03.44.50.395
12880;170454;34.76;225;03.44.50.526
12896;170458;34.76;226;03.44.50.526
12912;170461;34.76;227;03.44.50.526
12908;170456;34.76;228;03.44.50.526
12908;170464;34.76;229;03.44.50.526
12892;170471;34.76;230;03.44.50.526
12908;170468;34.76;231;03.44.50.526
12908;170469;34.76;232;03.44.50.526
12920;170465;34.76;233;03.44.50.526
12892;170464;34.76;234;03.44.50.537
12888;170471;34.76;235;03.44.50.537
12928;170474;34.76;236;03.44.50.537
12928;170483;34.76;237;03.44.50.537
12912;170471;34.76;238;03.44.50.537
12896;170475;34.76;239;03.44.50.537
12896;170476;34.76;240;03.44.50.537
12912;170479;34.76;241;03.44.50.537
12908;170478;34.76;242;03.44.50.559
12884;170491;34.76;243;03.44.50.559
12892;170491;34.76;244;03.44.50.559
12912;170480;34.76;245;03.44.50.559
12888;170483;34.76;246;03.44.50.559
12888;170479;34.76;247;03.44.50.559
12904;170482;34.76;248;03.44.50.559
12900;170487;34.76;249;03.44.50.559
12880;170482;34.76;250;03.44.50.625
12892;170481;34.76;251;03.44.50.625
12916;170480;34.76;252;03.44.50.625
12888;170481;34.76;253;03.44.50.625
12892;170471;34.76;254;03.44.50.625
12908;170471;34.76;255;03.44.50.625
12920;170465;34.76;256;03.44.50.636
12872;170459;34.76;257;03.44.50.636
12928;170454;34.76;258;03.44.50.647
12896;170448;34.76;259;03.44.50.647
12916;170450;34.76;260;03.44.50.647
12892;170437;34.76;261;03.44.50.647
12900;170431;34.76;262;03.44.50.647
12892;170434;34.76;263;03.44.50.647
12892;170429;34.76;264;03.44.50.658
12888;170422;34.76;265;03.44.50.658
12904;170423;34.76;266;03.44.50.658
12904;170419;34.76;267;03.44.50.658
12896;170399;34.76;268;03.44.50.658
12928;170412;34.76;269;03.44.50.658
12892;170406;34.76;270;03.44.50.658
12884;170404;34.76;271;03.44.50.658
12884;170400;34.76;272;03.44.50.658
12880;170409;34.76;273;03.44.50.658
12896;170396;34.76;274;03.44.50.658
12888;170394;34.76;275;03.44.50.746
12904;170394;34.76;276;03.44.50.746
12920;170403;34.76;277;03.44.50.757
12904;170394;34.76;278;03.44.50.757
12900;170395;34.76;279;03.44.50.757
12908;170401;34.76;280;03.44.50.757
12896;170394;34.76;281;03.44.50.757
12908;170397;34.76;282;03.44.50.757
12908;170399;34.76;283;03.44.50.757
12896;170391;34.76;284;03.44.50.757
12912;170399;34.76;285;03.44.50.757
12900;170399;34.76;286;03.44.50.768
12896;170394;34.76;287;03.44.50.768
12868;170395;34.76;288;03.44.50.768
12872;170392;34.76;289;03.44.50.768
12892;170396;34.76;290;03.44.50.768
12912;170411;34.76;291;03.44.50.768
12908;170413;34.76;292;03.44.50.768
12896;170405;34.76;293;03.44.50.768
12892;170403;34.76;294;03.44.50.768
12892;170408;34.76;295;03.44.50.768
12904;170407;34.76;296;03.44.50.768
12916;170408;34.76;297;03.44.50.768
12908;170411;34.76;298;03.44.50.768
12892;170407;34.76;299;03.44.50.779
12904;170418;34.76;300;03.44.50.878
12892;170410;34.76;301;03.44.50.878
12888;170413;34.76;302;03.44.50.878
12876;170409;34.76;303;03.44.50.878
12912;170405;34.76;304;03.44.50.878
12912;170409;34.76;305;03.44.50.878
12912;170410;34.76;306;03.44.50.878
12916;170406;34.76;307;03.44.50.878
12892;170412;34.76;308;03.44.50.878
12916;170409;34.76;309;03.44.50.878
12908;170405;34.76;310;03.44.50.889
12892;170410;34.76;311;03.44.50.889
12904;170416;34.76;312;03.44.50.889
12900;170417;34.76;313;03.44.50.889
12876;170425;34.76;314;03.44.50.889
12912;170410;34.76;315;03.44.50.889
12920;170413;34.76;316;03.44.50.889
12908;170420;34.76;317;03.44.50.889
12904;170419;34.76;318;03.44.50.889
12912;170422;34.76;319;03.44.50.889
12904;170418;34.76;320;03.44.50.889
12908;170423;34.76;321;03.44.50.889
12912;170420;34.76;322;03.44.50.889
12888;170425;34.76;323;03.44.50.889
12920;170427;34.76;324;03.44.50.900
12892;170424;34.76;325;03.44.51.009
12908;170425;34.76;326;03.44.51.009
12920;170423;34.76;327;03.44.51.009
12900;170426;34.76;328;03.44.51.009
12900;170421;34.76;329;03.44.51.009
12896;170428;34.76;330;03.44.51.009
12912;170429;34.76;331;03.44.51.009
12880;170434;34.76;332;03.44.51.020
12896;170434;34.76;333;03.44.51.020
12900;170425;34.76;334;03.44.51.020
12896;170433;34.76;335;03.44.51.020
12888;170431;34.76;336;03.44.51.020
12916;170435;34.76;337;03.44.51.020
12928;170443;34.76;338;03.44.51.020
12896;170436;34.76;339;03.44.51.020
12900;170437;34.76;340;03.44.51.020
12928;170441;34.76;341;03.44.51.020
12912;170430;34.76;342;03.44.51.020
12892;170444;34.76;343;03.44.51.020
12900;170443;34.76;344;03.44.51.020
12888;170443;34.76;345;03.44.51.031
12928;170448;34.76;346;03.44.51.031
12896;170444;34.76;347;03.44.51.031
12908;170443;34.76;348;03.44.51.031
12892;170453;34.76;349;03.44.51.031
12896;170437;34.76;350;03.44.51.119
12892;170444;34.76;351;03.44.51.119
12888;170450;34.76;352;03.44.51.119
12892;170447;34.76;353;03.44.51.119
12884;170444;34.76;354;03.44.51.120
12912;170446;34.76;355;03.44.51.131
12884;170447;34.76;356;03.44.51.131
12876;170442;34.76;357;03.44.51.131
12892;170447;34.76;358;03.44.51.142
12896;170445;34.76;359;03.44.51.142
12884;170446;34.76;360;03.44.51.142
12904;170455;34.76;361;03.44.51.142
12884;170454;34.76;362;03.44.51.142
12896;170445;34.76;363;03.44.51.153
12916;170449;34.76;364;03.44.51.153
12912;170447;34.76;365;03.44.51.153
12892;170444;34.76;366;03.44.51.153
12896;170451;34.76;367;03.44.51.153
12872;170457;34.76;368;03.44.51.153
12888;170446;34.76;369;03.44.51.153
12916;170452;34.76;370;03.44.51.153
12892;170456;34.76;371;03.44.51.153
12920;170462;34.76;372;03.44.51.153
12944;170456;34.76;373;03.44.51.153
12896;170461;34.76;374;03.44.51.153
12888;170463;34.76;375;03.44.51.241
12888;170451;34.76;376;03.44.51.252
12916;170461;34.76;377;03.44.51.252
12872;170452;34.76;378;03.44.51.252
12912;170461;34.76;379;03.44.51.252
12896;170465;34.76;380;03.44.51.252
12920;170463;34.76;381;03.44.51.252
12896;170462;34.76;382;03.44.51.252
12884;170464;34.76;383;03.44.51.252
12916;170468;34.76;384;03.44.51.252
12928;170473;34.76;385;03.44.51.263
12912;170470;34.76;386;03.44.51.263
12904;170471;34.76;387;03.44.51.263
12904;170466;34.76;388;03.44.51.263
12916;170470;34.76;389;03.44.51.263
12884;170475;34.76;390;03.44.51.263
12904;170484;34.76;391;03.44.51.263
12920;170482;34.76;392;03.44.51.273
12904;170471;34.76;393;03.44.51.284
12904;170473;34.76;394;03.44.51.284
12876;170463;34.76;395;03.44.51.284
12908;170461;34.76;396;03.44.51.284
12916;170460;34.76;397;03.44.51.284
12900;170455;34.76;398;03.44.51.284
12884;170449;34.76;399;03.44.51.284
12912;170445;34.80;400;03.44.51.372
12912;170435;34.80;401;03.44.51.372
12888;170439;34.80;402;03.44.51.372
12892;170437;34.80;403;03.44.51.372
12884;170434;34.80;404;03.44.51.372
12912;170427;34.80;405;03.44.51.372
12908;170423;34.80;406;03.44.51.372
12928;170418;34.80;407;03.44.51.372
12892;170424;34.80;408;03.44.51.372
12888;170420;34.80;409;03.44.51.372
12892;170416;34.80;410;03.44.51.372
12884;170411;34.80;411;03.44.51.383
12916;170417;34.80;412;03.44.51.383
12868;170409;34.80;413;03.44.51.383
12884;170421;34.80;414;03.44.51.383
12920;170405;34.80;415;03.44.51.383
12900;170414;34.80;416;03.44.51.383
12928;170404;34.80;417;03.44.51.383
12928;170409;34.80;418;03.44.51.383
12900;170408;34.80;419;03.44.51.383
12920;170402;34.80;420;03.44.51.383
12892;170393;34.80;421;03.44.51.383
12856;170401;34.80;422;03.44.51.383
12920;170405;34.80;423;03.44.51.394
12932;170405;34.80;424;03.44.51.394
12892;170410;34.80;425;03.44.51.504
12892;170406;34.80;426;03.44.51.504
12900;170408;34.80;427;03.44.51.504
12912;170409;34.80;428;03.44.51.504
12888;170402;34.80;429;03.44.51.504
12920;170413;34.80;430;03.44.51.504
12904;170413;34.80;431;03.44.51.504
12912;170416;34.80;432;03.44.51.515
12900;170409;34.80;433;03.44.51.515
12888;170407;34.80;434;03.44.51.515
12908;170403;34.80;435;03.44.51.515
12912;170411;34.80;436;03.44.51.515
12920;170406;34.80;437;03.44.51.515
12860;170405;34.80;438;03.44.51.515
12924;170405;34.80;439;03.44.51.515
12904;170412;34.80;440;03.44.51.515
12900;170420;34.80;441;03.44.51.515
12884;170414;34.80;442;03.44.51.515
12908;170410;34.80;443;03.44.51.515
12876;170408;34.80;444;03.44.51.515
12904;170419;34.80;445;03.44.51.526
12904;170418;34.80;446;03.44.51.526
12900;170407;34.80;447;03.44.51.526
12896;170419;34.80;448;03.44.51.526
12928;170414;34.80;449;03.44.51.526
12916;170413;34.76;450;03.44.51.636
12908;170417;34.76;451;03.44.51.636
12920;170413;34.76;452;03.44.51.636
12916;170421;34.76;453;03.44.51.646
12908;170424;34.76;454;03.44.51.646
12904;170413;34.76;455;03.44.51.646
12892;170424;34.76;456;03.44.51.646
12892;170420;34.76;457;03.44.51.646
12892;170419;34.76;458;03.44.51.646
12916;170416;34.76;459;03.44.51.646
12904;170422;34.76;460;03.44.51.646
12888;170410;34.76;461;03.44.51.646
12896;170415;34.76;462;03.44.51.646
12904;170411;34.76;463;03.44.51.646
12912;170415;34.76;464;03.44.51.646
12912;170424;34.76;465;03.44.51.646
12892;170419;34.76;466;03.44.51.657
12888;170425;34.76;467;03.44.51.657
12880;170420;34.76;468;03.44.51.657
12900;170422;34.76;469;03.44.51.657
12888;170424;34.76;470;03.44.51.657
12892;170413;34.76;471;03.44.51.657
12928;170421;34.76;472;03.44.51.657
12908;170429;34.76;473;03.44.51.657
12888;170433;34.76;474;03.44.51.657
12864;170427;34.76;475;03.44.51.756
12916;170430;34.76;476;03.44.51.756
12876;170430;34.76;477;03.44.51.756
12900;170430;34.76;478;03.44.51.756
12896;170433;34.76;479;03.44.51.756
12908;170439;34.76;480;03.44.51.756
12896;170436;34.76;481;03.44.51.756
12888;170438;34.76;482;03.44.51.756
12896;170438;34.76;483;03.44.51.756
12896;170431;34.76;484;03.44.51.767
12916;170442;34.76;485;03.44.51.767
12912;170436;34.76;486;03.44.51.767
12888;170438;34.76;487;03.44.51.767
12904;170435;34.76;488;03.44.51.767
12888;170442;34.76;489;03.44.51.767
12904;170440;34.76;490;03.44.51.767
12872;170443;34.76;491;03.44.51.767
12904;170441;34.76;492;03.44.51.778
12876;170447;34.76;493;03.44.51.778
12912;170445;34.76;494;03.44.51.778
12884;170442;34.76;495;03.44.51.778
12908;170449;34.76;496;03.44.51.778
12888;170447;34.76;497;03.44.51.778
12888;170447;34.76;498;03.44.51.778
12892;170459;34.76;499;03.44.51.778
12900;170459;34.80;500;03.44.51.876
12892;170456;34.80;501;03.44.51.876
12884;170469;34.80;502;03.44.51.876
12860;170459;34.80;503;03.44.51.876
12912;170466;34.80;504;03.44.51.876
12884;170465;34.80;505;03.44.51.876
12872;170474;34.80;506;03.44.51.876
12880;170466;34.80;507;03.44.51.876
12860;170469;34.80;508;03.44.51.887
12892;170466;34.80;509;03.44.51.887
12888;170469;34.80;510;03.44.51.887
12912;170469;34.80;511;03.44.51.887
12880;170471;34.80;512;03.44.51.887
12912;170460;34.80;513;03.44.51.887
12884;170470;34.80;514;03.44.51.887
12892;170482;34.80;515;03.44.51.887
12896;170479;34.80;516;03.44.51.887
12896;170476;34.80;517;03.44.51.909
12888;170481;34.80;518;03.44.51.909
12896;170470;34.80;519;03.44.51.909
12912;170483;34.80;520;03.44.51.909
12892;170480;34.80;521;03.44.51.909
12876;170476;34.80;522;03.44.51.909
12904;170483;34.80;523;03.44.51.909
12928;170484;34.80;524;03.44.51.909
12888;170484;34.80;525;03.44.51.997
12904;170489;34.80;526;03.44.51.997
12896;170491;34.80;527;03.44.51.997
12904;170497;34.80;528;03.44.51.997
12888;170498;34.80;529;03.44.52.008
12900;170493;34.80;530;03.44.52.008
12908;170489;34.80;531;03.44.52.008
12904;170497;34.80;532;03.44.52.008
12888;170491;34.80;533;03.44.52.019
12920;170491;34.80;534;03.44.52.019
12868;170485;34.80;535;03.44.52.019
12880;170483;34.80;536;03.44.52.019
12916;170473;34.80;537;03.44.52.030
12900;170471;34.80;538;03.44.52.030
12928;170457;34.80;539;03.44.52.030
12884;170467;34.80;540;03.44.52.030
12876;170455;34.80;541;03.44.52.030
12892;170449;34.80;542;03.44.52.041
12908;170444;34.80;543;03.44.52.041
12912;170442;34.80;544;03.44.52.041
12928;170444;34.80;545;03.44.52.041
12900;170439;34.80;546;03.44.52.052
12896;170431;34.80;547;03.44.52.052
12892;170425;34.80;548;03.44.52.052
12904;170420;34.80;549;03.44.52.052
12908;170423;34.80;550;03.44.52.128
12936;170418;34.80;551;03.44.52.139
12904;170409;34.80;552;03.44.52.139
12864;170400;34.80;553;03.44.52.139
12888;170409;34.80;554;03.44.52.139
12928;170415;34.80;555;03.44.52.139
12888;170402;34.80;556;03.44.52.139
12896;170396;34.80;557;03.44.52.139
12896;170397;34.80;558;03.44.52.139
12876;170406;34.80;559;03.44.52.139
12912;170401;34.80;560;03.44.52.139
12900;170397;34.80;561;03.44.52.139
12884;170394;34.80;562;03.44.52.139
12912;170386;34.80;563;03.44.52.150
12884;170385;34.80;564;03.44.52.150
12900;170391;34.80;565;03.44.52.150
12872;170393;34.80;566;03.44.52.150
12900;170400;34.80;567;03.44.52.150
12904;170387;34.80;568;03.44.52.150
12916;170392;34.80;569;03.44.52.150
12884;170383;34.80;570;03.44.52.150
12904;170384;34.80;571;03.44.52.150
12892;170382;34.80;572;03.44.52.150
12896;170390;34.80;573;03.44.52.150
12916;170393;34.80;574;03.44.52.150
12916;170389;34.80;575;03.44.52.249
12928;170384;34.80;576;03.44.52.249
12896;170389;34.80;577;03.44.52.249
12908;170384;34.80;578;03.44.52.249
12920;170388;34.80;579;03.44.52.249
12888;170394;34.80;580;03.44.52.249
12872;170393;34.80;581;03.44.52.249
12892;170395;34.80;582;03.44.52.249
12876;170393;34.80;583;03.44.52.260
12892;170396;34.80;584;03.44.52.260
12908;170398;34.80;585;03.44.52.260
12908;170392;34.80;586;03.44.52.260
12896;170397;34.80;587;03.44.52.260
12912;170400;34.80;588;03.44.52.260
12900;170391;34.80;589;03.44.52.260
12912;170393;34.80;590;03.44.52.260
12916;170394;34.80;591;03.44.52.260
12932;170399;34.80;592;03.44.52.271
12916;170393;34.80;593;03.44.52.271
12912;170396;34.80;594;03.44.52.271
12904;170397;34.80;595;03.44.52.271
12908;170407;34.80;596;03.44.52.271
12928;170402;34.80;597;03.44.52.271
12884;170396;34.80;598;03.44.52.271
12904;170396;34.80;599;03.44.52.271
12904;170400;34.80;600;03.44.52.369
12900;170396;34.80;601;03.44.52.369
12896;170398;34.80;602;03.44.52.369
12904;170392;34.80;603;03.44.52.369
12912;170407;34.80;604;03.44.52.369
12928;170395;34.80;605;03.44.52.369
12892;170394;34.80;606;03.44.52.380
12900;170403;34.80;607;03.44.52.380
12904;170401;34.80;608;03.44.52.380
12892;170403;34.80;609;03.44.52.380
12856;170408;34.80;610;03.44.52.380
12892;170400;34.80;611;03.44.52.380
12892;170400;34.80;612;03.44.52.380
12896;170398;34.80;613;03.44.52.380
12904;170393;34.80;614;03.44.52.380
12860;170409;34.80;615;03.44.52.380
12900;170406;34.80;616;03.44.52.380
12928;170407;34.80;617;03.44.52.380
12920;170407;34.80;618;03.44.52.380
12904;170414;34.80;619;03.44.52.391
12928;170408;34.80;620;03.44.52.391
12888;170415;34.80;621;03.44.52.391
12892;170403;34.80;622;03.44.52.391
12896;170407;34.80;623;03.44.52.391
12944;170412;34.80;624;03.44.52.391
12876;170407;34.80;625;03.44.52.490
12892;170415;34.80;626;03.44.52.490
12904;170416;34.80;627;03.44.52.490
12884;170413;34.80;628;03.44.52.501
12908;170414;34.80;629;03.44.52.501
12888;170426;34.80;630;03.44.52.501
12896;170424;34.80;631;03.44.52.501
12920;170430;34.80;632;03.44.52.501
12912;170432;34.80;633;03.44.52.501
12904;170432;34.80;634;03.44.52.501
12916;170435;34.80;635;03.44.52.501
12920;170432;34.80;636;03.44.52.501
12908;170432;34.80;637;03.44.52.501
12884;170437;34.80;638;03.44.52.501
12884;170443;34.80;639;03.44.52.501
12896;170444;34.80;640;03.44.52.501
12916;170443;34.80;641;03.44.52.512
12888;170447;34.80;642;03.44.52.512
12900;170448;34.80;643;03.44.52.512
12860;170452;34.80;644;03.44.52.512
12900;170446;34.80;645;03.44.52.512
12912;170449;34.80;646;03.44.52.512
12924;170451;34.80;647;03.44.52.512
12928;170457;34.80;648;03.44.52.512
12908;170464;34.80;649;03.44.52.512
12880;170459;34.76;650;03.44.52.633
12880;170471;34.76;651;03.44.52.633
12916;170463;34.76;652;03.44.52.633
12928;170473;34.76;653;03.44.52.633
12912;170471;34.76;654;03.44.52.633
12912;170474;34.76;655;03.44.52.633
12888;170469;34.76;656;03.44.52.633
12904;170469;34.76;657;03.44.52.633
12920;170469;34.76;658;03.44.52.633
12912;170481;34.76;659;03.44.52.633
12900;170485;34.76;660;03.44.52.633
12884;170487;34.76;661;03.44.52.633
12888;170488;34.76;662;03.44.52.644
12904;170486;34.76;663;03.44.52.644
12892;170487;34.76;664;03.44.52.644
12872;170493;34.76;665;03.44.52.644
12872;170497;34.76;666;03.44.52.644
12904;170496;34.76;667;03.44.52.644
12912;170494;34.76;668;03.44.52.644
12932;170493;34.76;669;03.44.52.644
12920;170506;34.76;670;03.44.52.644
12912;170498;34.76;671;03.44.52.644
12916;170503;34.76;672;03.44.52.644
12896;170500;34.76;673;03.44.52.644
12924;170505;34.76;674;03.44.52.655
12888;170507;34.76;675;03.44.52.763
12920;170500;34.76;676;03.44.52.763
12892;170517;34.76;677;03.44.52.763
12884;170508;34.76;678;03.44.52.763
12892;170507;34.76;679;03.44.52.763
12928;170517;34.76;680;03.44.52.763
12896;170517;34.76;681;03.44.52.774
12896;170519;34.76;682;03.44.52.774
12884;170520;34.76;683;03.44.52.774
12908;170519;34.76;684;03.44.52.774
12900;170518;34.76;685;03.44.52.774
12888;170529;34.76;686;03.44.52.774
12860;170529;34.76;687;03.44.52.774
12896;170530;34.76;688;03.44.52.774
12884;170536;34.76;689;03.44.52.774
12900;170532;34.76;690;03.44.52.774
12892;170527;34.76;691;03.44.52.774
12888;170530;34.76;692;03.44.52.774
12896;170525;34.76;693;03.44.52.774
12872;170517;34.76;694;03.44.52.785
12928;170519;34.76;695;03.44.52.785
12916;170512;34.76;696;03.44.52.785
12896;170512;34.76;697;03.44.52.785
12928;170506;34.76;698;03.44.52.785
12920;170504;34.76;699;03.44.52.785
12908;170501;34.80;700;03.44.52.873
12928;170495;34.80;701;03.44.52.873
12904;170494;34.80;702;03.44.52.873
12880;170483;34.80;703;03.44.52.884
12892;170495;34.80;704;03.44.52.884
12888;170483;34.80;705;03.44.52.884
12928;170482;34.80;706;03.44.52.884
12900;170471;34.80;707;03.44.52.884
12916;170466;34.80;708;03.44.52.884
12900;170456;34.80;709;03.44.52.884
12888;170459;34.80;710;03.44.52.884
12904;170455;34.80;711;03.44.52.884
12896;170442;34.80;712;03.44.52.895
12892;170446;34.80;713;03.44.52.895
12892;170453;34.80;714;03.44.52.895
12892;170445;34.80;715;03.44.52.895
12900;170453;34.80;716;03.44.52.895
12912;170444;34.80;717;03.44.52.906
12888;170435;34.80;718;03.44.52.906
12868;170440;34.80;719;03.44.52.906
12896;170436;34.80;720;03.44.52.917
12908;170441;34.80;721;03.44.52.917
12928;170441;34.80;722;03.44.52.917
12892;170438;34.80;723;03.44.52.917
12928;170436;34.80;724;03.44.52.917
12892;170444;34.80;725;03.44.53.005
12916;170441;34.80;726;03.44.53.005
12928;170445;34.80;727;03.44.53.005
12920;170447;34.80;728;03.44.53.005
12904;170447;34.80;729;03.44.53.005
12900;170444;34.80;730;03.44.53.005
12928;170446;34.80;731;03.44.53.005
12908;170444;34.80;732;03.44.53.005
12888;170446;34.80;733;03.44.53.005
12904;170446;34.80;734;03.44.53.005
12892;170448;34.80;735;03.44.53.005
12880;170449;34.80;736;03.44.53.005
12900;170456;34.80;737;03.44.53.016
12908;170445;34.80;738;03.44.53.016
12888;170459;34.80;739;03.44.53.016
12912;170453;34.80;740;03.44.53.016
12892;170454;34.80;741;03.44.53.016
12916;170466;34.80;742;03.44.53.016
12892;170468;34.80;743;03.44.53.016
12888;170459;34.80;744;03.44.53.016
12876;170467;34.80;745;03.44.53.016
12888;170468;34.80;746;03.44.53.016
12908;170472;34.80;747;03.44.53.016
12908;170475;34.80;748;03.44.53.016
12892;170472;34.80;749;03.44.53.016
12924;170473;34.80;750;03.44.53.136
12876;170474;34.80;751;03.44.53.136
12892;170463;34.80;752;03.44.53.136
12928;170468;34.80;753;03.44.53.136
12880;170475;34.80;754;03.44.53.136
12908;170477;34.80;755;03.44.53.136
12904;170472;34.80;756;03.44.53.136
12896;170471;34.80;757;03.44.53.136
12904;170478;34.80;758;03.44.53.147
12912;170469;34.80;759;03.44.53.147
12912;170468;34.80;760;03.44.53.147
12884;170468;34.80;761;03.44.53.147
12908;170479;34.80;762;03.44.53.147
12876;170468;34.80;763;03.44.53.147
12900;170473;34.80;764;03.44.53.147
12904;170477;34.80;765;03.44.53.147
12880;170466;34.80;766;03.44.53.147
12884;170477;34.80;767;03.44.53.147
12900;170478;34.80;768;03.44.53.147
12892;170477;34.80;769;03.44.53.147
12892;170468;34.80;770;03.44.53.158
12900;170466;34.80;771;03.44.53.158
12884;170473;34.80;772;03.44.53.158
12928;170479;34.80;773;03.44.53.158
12904;170473;34.80;774;03.44.53.158
12892;170474;34.80;775;03.44.53.267
12912;170474;34.80;776;03.44.53.267
12912;170476;34.80;777;03.44.53.267
12884;170474;34.80;778;03.44.53.267
12892;170479;34.80;779;03.44.53.267
12904;170481;34.80;780;03.44.53.278
12876;170480;34.80;781;03.44.53.278
12908;170495;34.80;782;03.44.53.278
12904;170486;34.80;783;03.44.53.278
12916;170494;34.80;784;03.44.53.278
12916;170497;34.80;785;03.44.53.278
12912;170507;34.80;786;03.44.53.278
12900;170508;34.80;787;03.44.53.278
12888;170513;34.80;788;03.44.53.278
12912;170514;34.80;789;03.44.53.278
12912;170510;34.80;790;03.44.53.278
12912;170519;34.80;791;03.44.53.278
12908;170532;34.80;792;03.44.53.278
12900;170528;34.80;793;03.44.53.289
12896;170534;34.80;794;03.44.53.289
12900;170544;34.80;795;03.44.53.289
12908;170548;34.80;796;03.44.53.289
12912;170550;34.80;797;03.44.53.289
12912;170561;34.80;798;03.44.53.289
12908;170555;34.80;799;03.44.53.289
12904;170563;34.80;800;03.44.53.377
12908;170563;34.80;801;03.44.53.377
12896;170570;34.80;802;03.44.53.377
12908;170574;34.80;803;03.44.53.377
12892;170581;34.80;804;03.44.53.377
12916;170578;34.80;805;03.44.53.377
12888;170585;34.80;806;03.44.53.377
12928;170585;34.80;807;03.44.53.377
12892;170589;34.80;808;03.44.53.377
12892;170591;34.80;809;03.44.53.388
12928;170586;34.80;810;03.44.53.388
12892;170591;34.80;811;03.44.53.388
12888;170593;34.80;812;03.44.53.388
12904;170600;34.80;813;03.44.53.388
12912;170604;34.80;814;03.44.53.388
12900;170601;34.80;815;03.44.53.388
12908;170612;34.80;816;03.44.53.388
12892;170605;34.80;817;03.44.53.410
12892;170608;34.80;818;03.44.53.410
12912;170604;34.80;819;03.44.53.410
12920;170609;34.80;820;03.44.53.410
12908;170609;34.80;821;03.44.53.410
12904;170614;34.80;822;03.44.53.410
12900;170619;34.80;823;03.44.53.410
12936;170612;34.80;824;03.44.53.410
12900;170617;34.80;825;03.44.53.508
12876;170614;34.80;826;03.44.53.508
12896;170613;34.80;827;03.44.53.508
12884;170622;34.80;828;03.44.53.508
12892;170622;34.80;829;03.44.53.508
12904;170626;34.80;830;03.44.53.508
12900;170631;34.80;831;03.44.53.508
12892;170636;34.80;832;03.44.53.508
12924;170634;34.80;833;03.44.53.508
12908;170636;34.80;834;03.44.53.508
12896;170634;34.80;835;03.44.53.519
12892;170632;34.80;836;03.44.53.519
12896;170633;34.80;837;03.44.53.519
12904;170627;34.80;838;03.44.53.519
12892;170642;34.80;839;03.44.53.519
12908;170634;34.80;840;03.44.53.519
12888;170627;34.80;841;03.44.53.519
12904;170635;34.80;842;03.44.53.541
12916;170635;34.80;843;03.44.53.541
12892;170634;34.80;844;03.44.53.541
12880;170639;34.80;845;03.44.53.541
12896;170636;34.80;846;03.44.53.541
12888;170641;34.80;847;03.44.53.541
12908;170638;34.80;848;03.44.53.541
12924;170643;34.80;849;03.44.53.541
12916;170642;34.80;850;03.44.53.630
12888;170640;34.80;851;03.44.53.630
12900;170647;34.80;852;03.44.53.630
12908;170648;34.80;853;03.44.53.630
12896;170648;34.80;854;03.44.53.630
12892;170646;34.80;855;03.44.53.641
12908;170650;34.80;856;03.44.53.641
12880;170646;34.80;857;03.44.53.641
12904;170647;34.80;858;03.44.53.641
12908;170657;34.80;859;03.44.53.641
12876;170648;34.80;860;03.44.53.641
12884;170650;34.80;861;03.44.53.641
12884;170645;34.80;862;03.44.53.641
12932;170652;34.80;863;03.44.53.641
12892;170640;34.80;864;03.44.53.641
12932;170649;34.80;865;03.44.53.652
12916;170634;34.80;866;03.44.53.652
12900;170631;34.80;867;03.44.53.652
12892;170628;34.80;868;03.44.53.652
12908;170626;34.80;869;03.44.53.652
12904;170620;34.80;870;03.44.53.652
12908;170618;34.80;871;03.44.53.652
12912;170620;34.80;872;03.44.53.652
12892;170604;34.80;873;03.44.53.652
12920;170591;34.80;874;03.44.53.663
12888;170601;34.80;875;03.44.53.761
12892;170589;34.80;876;03.44.53.761
12924;170593;34.80;877;03.44.53.772
12876;170581;34.80;878;03.44.53.772
12880;170576;34.80;879;03.44.53.772
12888;170573;34.80;880;03.44.53.772
12908;170573;34.80;881;03.44.53.772
12916;170572;34.80;882;03.44.53.772
12908;170563;34.80;883;03.44.53.772
12896;170567;34.80;884;03.44.53.772
12892;170559;34.80;885;03.44.53.772
12892;170561;34.80;886;03.44.53.772
12900;170558;34.80;887;03.44.53.772
12900;170557;34.80;888;03.44.53.772
12896;170555;34.80;889;03.44.53.772
12896;170552;34.80;890;03.44.53.783
12900;170551;34.80;891;03.44.53.783
12892;170546;34.80;892;03.44.53.783
12912;170552;34.80;893;03.44.53.783
12892;170551;34.80;894;03.44.53.783
12908;170550;34.80;895;03.44.53.783
12908;170542;34.80;896;03.44.53.783
12892;170542;34.80;897;03.44.53.783
12908;170553;34.80;898;03.44.53.783
12884;170550;34.80;899;03.44.53.783
12892;170545;34.80;900;03.44.53.882
12888;170551;34.80;901;03.44.53.882
12884;170543;34.80;902;03.44.53.882
12904;170543;34.80;903;03.44.53.882
12904;170539;34.80;904;03.44.53.882
12912;170538;34.80;905;03.44.53.882
12900;170543;34.80;906;03.44.53.882
12908;170536;34.80;907;03.44.53.882
12896;170537;34.80;908;03.44.53.904
12908;170541;34.80;909;03.44.53.904
12900;170539;34.80;910;03.44.53.904
12876;170546;34.80;911;03.44.53.904
12876;170545;34.80;912;03.44.53.904
12912;170549;34.80;913;03.44.53.904
12916;170542;34.80;914;03.44.53.904
12900;170549;34.80;915;03.44.53.904
12912;170545;34.80;916;03.44.53.904
12888;170542;34.80;917;03.44.53.904
12908;170550;34.80;918;03.44.53.904
12908;170546;34.80;919;03.44.53.904
12912;170548;34.80;920;03.44.53.915
12912;170551;34.80;921;03.44.53.915
12904;170543;34.80;922;03.44.53.915
12876;170545;34.80;923;03.44.53.915
12944;170543;34.80;924;03.44.53.915
12896;170546;34.80;925;03.44.54.002
12880;170547;34.80;926;03.44.54.002
12888;170541;34.80;927;03.44.54.002
12932;170550;34.80;928;03.44.54.002
12884;170541;34.80;929;03.44.54.002
12896;170543;34.80;930;03.44.54.002
12900;170547;34.80;931;03.44.54.002
12888;170549;34.80;932;03.44.54.002
12884;170541;34.80;933;03.44.54.013
12880;170548;34.80;934;03.44.54.013
12904;170540;34.80;935;03.44.54.013
12912;170541;34.80;936;03.44.54.013
12912;170548;34.80;937;03.44.54.013
12892;170538;34.80;938;03.44.54.013
12860;170536;34.80;939;03.44.54.013
12904;170546;34.80;940;03.44.54.013
12912;170540;34.80;941;03.44.54.024
12904;170545;34.80;942;03.44.54.034
12932;170537;34.80;943;03.44.54.034
12916;170536;34.80;944;03.44.54.034
12892;170542;34.80;945;03.44.54.034
12912;170552;34.80;946;03.44.54.034
12884;170550;34.80;947;03.44.54.034
12944;170547;34.80;948;03.44.54.034
12920;170555;34.80;949;03.44.54.045
12892;170557;34.80;950;03.44.54.122
12888;170558;34.80;951;03.44.54.122
12944;170555;34.80;952;03.44.54.122
12912;170558;34.80;953;03.44.54.133
12908;170557;34.80;954;03.44.54.133
12900;170551;34.80;955;03.44.54.133
12908;170567;34.80;956;03.44.54.133
12912;170569;34.80;957;03.44.54.133
12896;170567;34.80;958;03.44.54.133
12908;170562;34.80;959;03.44.54.133
12884;170568;34.80;960;03.44.54.133
12860;170575;34.80;961;03.44.54.133
12892;170569;34.80;962;03.44.54.133
12928;170580;34.80;963;03.44.54.133
12900;170574;34.80;964;03.44.54.133
12904;170569;34.80;965;03.44.54.144
12880;170572;34.80;966;03.44.54.144
12912;170571;34.80;967;03.44.54.144
12888;170577;34.80;968;03.44.54.144
12916;170584;34.80;969;03.44.54.144
12896;170583;34.80;970;03.44.54.144
12880;170585;34.80;971;03.44.54.144
12916;170580;34.80;972;03.44.54.144
12896;170581;34.80;973;03.44.54.144
12900;170584;34.80;974;03.44.54.144
d;e;f;03.44.55.414
12928;001022;34.80;975;03.44.55.546
12880;057542;34.80;976;03.44.55.546
12928;073953;34.80;977;03.44.55.546
12884;090300;34.80;978;03.44.55.546
12868;106699;34.80;979;03.44.55.546
12872;123089;34.80;980;03.44.55.546
12936;139478;34.80;981;03.44.55.546
12884;155857;34.80;982;03.44.55.546
12912;171134;34.80;983;03.44.55.546
12892;170858;34.80;984;03.44.55.546
12912;170857;34.80;985;03.44.55.546
12892;170856;34.80;986;03.44.55.556
12912;170853;34.80;987;03.44.55.556
12888;170847;34.80;988;03.44.55.556
12900;170843;34.80;989;03.44.55.556
12892;170842;34.80;990;03.44.55.556
12892;170838;34.80;991;03.44.55.556
12912;170840;34.80;992;03.44.55.556
12892;170833;34.80;993;03.44.55.556
12912;170836;34.80;994;03.44.55.556
12884;170827;34.80;995;03.44.55.556
12876;170817;34.80;996;03.44.55.556
12904;170823;34.80;997;03.44.55.556
12908;170828;34.80;998;03.44.55.567
12928;170813;34.80;999;03.44.55.567
12880;170810;34.80;000;03.44.55.666
12904;170810;34.80;001;03.44.55.666
12908;170801;34.80;002;03.44.55.666
12912;170802;34.80;003;03.44.55.666
12880;170803;34.80;004;03.44.55.666
12900;170798;34.80;005;03.44.55.666
12896;170801;34.80;006;03.44.55.666
12912;170796;34.80;007;03.44.55.677
12928;170798;34.80;008;03.44.55.677
12892;170795;34.80;009;03.44.55.677
12932;170786;34.80;010;03.44.55.677
12904;170787;34.80;011;03.44.55.677
12928;170787;34.80;012;03.44.55.677
12908;170779;34.80;013;03.44.55.677
12896;170775;34.80;014;03.44.55.677
12896;170771;34.80;015;03.44.55.677
12920;170773;34.80;016;03.44.55.677
12928;170772;34.80;017;03.44.55.677
12876;170777;34.80;018;03.44.55.677
12880;170771;34.80;019;03.44.55.688
12912;170759;34.80;020;03.44.55.688
12892;170769;34.80;021;03.44.55.688
12912;170762;34.80;022;03.44.55.688
12904;170767;34.80;023;03.44.55.688
12904;170764;34.80;024;03.44.55.688
12884;170765;34.80;025;03.44.55.798
12908;170767;34.80;026;03.44.55.798
12904;170764;34.80;027;03.44.55.798
12888;170767;34.80;028;03.44.55.809
12888;170766;34.80;029;03.44.55.809
12860;170766;34.80;030;03.44.55.809
12892;170759;34.80;031;03.44.55.809
12928;170756;34.80;032;03.44.55.809
12928;170764;34.80;033;03.44.55.809
12892;170763;34.80;034;03.44.55.809
12916;170758;34.80;035;03.44.55.809
12892;170753;34.80;036;03.44.55.809
12928;170753;34.80;037;03.44.55.809
12904;170759;34.80;038;03.44.55.809
12904;170761;34.80;039;03.44.55.809
12896;170767;34.80;040;03.44.55.809
12924;170763;34.80;041;03.44.55.819
12912;170764;34.80;042;03.44.55.819
12892;170765;34.80;043;03.44.55.819
12900;170763;34.80;044;03.44.55.819
12896;170762;34.80;045;03.44.55.819
12884;170774;34.80;046;03.44.55.819
12916;170767;34.80;047;03.44.55.819
12884;170767;34.80;048;03.44.55.819
12924;170775;34.80;049;03.44.55.819
12888;170772;34.80;050;03.44.55.918
12876;170765;34.80;051;03.44.55.918
12896;170773;34.80;052;03.44.55.918
12896;170763;34.80;053;03.44.55.918
12924;170765;34.80;054;03.44.55.918
12900;170765;34.80;055;03.44.55.918
12872;170768;34.80;056;03.44.55.918
12904;170764;34.80;057;03.44.55.918
12920;170768;34.80;058;03.44.55.950
12900;170760;34.80;059;03.44.55.950
12884;170770;34.80;060;03.44.55.950
12920;170765;34.80;061;03.44.55.950
12904;170765;34.80;062;03.44.55.950
12912;170764;34.80;063;03.44.55.950
12876;170762;34.80;064;03.44.55.950
12888;170768;34.80;065;03.44.55.950
12872;170760;34.80;066;03.44.55.950
12928;170767;34.80;067;03.44.55.950
12928;170766;34.80;068;03.44.55.950
12936;170761;34.80;069;03.44.55.961
12892;170762;34.80;070;03.44.55.961
12896;170771;34.80;071;03.44.55.961
12920;170766;34.80;072;03.44.55.961
12884;170759;34.80;073;03.44.55.961
12904;170764;34.80;074;03.44.55.961
12860;170758;34.80;075;03.44.56.038
12896;170764;34.80;076;03.44.56.038
12892;170768;34.80;077;03.44.56.038
12888;170765;34.80;078;03.44.56.038
12916;170765;34.80;079;03.44.56.038
12936;170769;34.80;080;03.44.56.038
12892;170758;34.80;081;03.44.56.038
12892;170764;34.80;082;03.44.56.038
12916;170766;34.80;083;03.44.56.049
12892;170756;34.80;084;03.44.56.049
12896;170758;34.80;085;03.44.56.049
12908;170771;34.80;086;03.44.56.049
12932;170758;34.80;087;03.44.56.049
12920;170769;34.80;088;03.44.56.049
12892;170760;34.80;089;03.44.56.049
12916;170761;34.80;090;03.44.56.049
12888;170757;34.80;091;03.44.56.049
12904;170754;34.80;092;03.44.56.049
12916;170744;34.80;093;03.44.56.049
12912;170748;34.80;094;03.44.56.049
12888;170739;34.80;095;03.44.56.049
12916;170733;34.80;096;03.44.56.060
12912;170730;34.80;097;03.44.56.060
12916;170721;34.80;098;03.44.56.060
12908;170716;34.80;099;03.44.56.060
12888;170707;34.80;100;03.44.56.159
12884;170704;34.80;101;03.44.56.159
12888;170692;34.80;102;03.44.56.170
12892;170694;34.80;103;03.44.56.170
12888;170683;34.80;104;03.44.56.170
12896;170681;34.80;105;03.44.56.170
12912;170677;34.80;106;03.44.56.170
12900;170672;34.80;107;03.44.56.170
12912;170667;34.80;108;03.44.56.170
12920;170663;34.80;109;03.44.56.170
12928;170662;34.80;110;03.44.56.170
12904;170657;34.80;111;03.44.56.170
12892;170652;34.80;112;03.44.56.170
12932;170652;34.80;113;03.44.56.181
12892;170648;34.80;114;03.44.56.181
12884;170648;34.80;115;03.44.56.181
12904;170641;34.80;116;03.44.56.181
12900;170631;34.80;117;03.44.56.181
12908;170627;34.80;118;03.44.56.181
12892;170621;34.80;119;03.44.56.181
12884;170626;34.80;120;03.44.56.181
12928;170629;34.80;121;03.44.56.181
12904;170634;34.80;122;03.44.56.181
12928;170628;34.80;123;03.44.56.181
12928;170623;34.80;124;03.44.56.181
12928;170633;34.76;125;03.44.56.312
12912;170629;34.76;126;03.44.56.312
12928;170625;34.76;127;03.44.56.312
12904;170630;34.76;128;03.44.56.312
12932;170622;34.76;129;03.44.56.312
12904;170626;34.76;130;03.44.56.312
12892;170622;34.76;131;03.44.56.312
12868;170624;34.76;132;03.44.56.312
12888;170626;34.76;133;03.44.56.312
12896;170625;34.76;134;03.44.56.312
12904;170626;34.76;135;03.44.56.312
12884;170615;34.76;136;03.44.56.312
12888;170621;34.76;137;03.44.56.323
12896;170616;34.76;138;03.44.56.323
12888;170620;34.76;139;03.44.56.323
12876;170622;34.76;140;03.44.56.323
12900;170625;34.76;141;03.44.56.323
12888;170620;34.76;142;03.44.56.323
12912;170620;34.76;143;03.44.56.323
12900;170617;34.76;144;03.44.56.323
12884;170614;34.76;145;03.44.56.323
12892;170620;34.76;146;03.44.56.323
12884;170616;34.76;147;03.44.56.323
12928;170626;34.76;148;03.44.56.323
12904;170624;34.76;149;03.44.56.323
12892;170626;34.76;150;03.44.56.422
12900;170626;34.76;151;03.44.56.422
12916;170612;34.76;152;03.44.56.422
12904;170615;34.76;153;03.44.56.422
12896;170615;34.76;154;03.44.56.422
12904;170627;34.76;155;03.44.56.422
