gsr; bvp; skt; skt2; Cont; time
12944;000800;34.40;050;03.18.01.180
12928;057554;34.40;051;03.18.01.180
12944;073947;34.40;052;03.18.01.180
12940;090348;34.40;053;03.18.01.180
12936;106718;34.40;054;03.18.01.180
12932;123081;34.40;055;03.18.01.180
12940;139498;34.40;056;03.18.01.180
12920;155876;34.40;057;03.18.01.180
12928;172274;34.40;058;03.18.01.191
12924;174702;34.40;059;03.18.01.191
12924;174701;34.40;060;03.18.01.191
12932;174702;34.40;061;03.18.01.191
12928;174701;34.40;062;03.18.01.191
12908;174708;34.40;063;03.18.01.191
12924;174700;34.40;064;03.18.01.191
12932;174709;34.40;065;03.18.01.191
12920;174703;34.40;066;03.18.01.191
12896;174708;34.40;067;03.18.01.257
12928;174702;34.40;068;03.18.01.257
12916;174716;34.40;069;03.18.01.257
12920;174711;34.40;070;03.18.01.257
12948;174705;34.40;071;03.18.01.257
12936;174700;34.40;072;03.18.01.257
12912;174697;34.40;073;03.18.01.257
12940;174699;34.40;074;03.18.01.257
12944;174702;34.40;075;03.18.01.290
12944;174698;34.40;076;03.18.01.290
12928;174695;34.40;077;03.18.01.290
12948;174697;34.40;078;03.18.01.290
12960;174694;34.40;079;03.18.01.290
12960;174679;34.40;080;03.18.01.290
12904;174680;34.40;081;03.18.01.290
12924;174682;34.40;082;03.18.01.290
12936;174674;34.40;083;03.18.01.301
12956;174660;34.40;084;03.18.01.301
12924;174659;34.40;085;03.18.01.301
12952;174659;34.40;086;03.18.01.301
12916;174649;34.40;087;03.18.01.301
12932;174636;34.40;088;03.18.01.301
12912;174639;34.40;089;03.18.01.301
12932;174638;34.40;090;03.18.01.301
12952;174628;34.40;091;03.18.01.301
12940;174630;34.40;092;03.18.01.301
12928;174623;34.40;093;03.18.01.301
12932;174629;34.40;094;03.18.01.301
12920;174626;34.40;095;03.18.01.301
12924;174632;34.40;096;03.18.01.301
12908;174628;34.40;097;03.18.01.312
12924;174627;34.40;098;03.18.01.312
12928;174625;34.40;099;03.18.01.312
12944;174634;34.40;100;03.18.01.411
12924;174625;34.40;101;03.18.01.411
12932;174624;34.40;102;03.18.01.411
12936;174621;34.40;103;03.18.01.411
12920;174636;34.40;104;03.18.01.422
12928;174637;34.40;105;03.18.01.422
12924;174634;34.40;106;03.18.01.422
12920;174633;34.40;107;03.18.01.422
12940;174629;34.40;108;03.18.01.422
12936;174638;34.40;109;03.18.01.422
12932;174636;34.40;110;03.18.01.422
12924;174633;34.40;111;03.18.01.422
12936;174634;34.40;112;03.18.01.422
12932;174634;34.40;113;03.18.01.433
12960;174640;34.40;114;03.18.01.433
12920;174635;34.40;115;03.18.01.433
12944;174621;34.40;116;03.18.01.433
12948;174627;34.40;117;03.18.01.433
12924;174621;34.40;118;03.18.01.433
12924;174614;34.40;119;03.18.01.433
12924;174626;34.40;120;03.18.01.433
12928;174616;34.40;121;03.18.01.433
12928;174621;34.40;122;03.18.01.444
12960;174610;34.40;123;03.18.01.444
12968;174619;34.40;124;03.18.01.444
12888;174613;34.40;125;03.18.01.542
12968;174618;34.40;126;03.18.01.553
12948;174616;34.40;127;03.18.01.553
12960;174618;34.40;128;03.18.01.553
12932;174617;34.40;129;03.18.01.553
12908;174617;34.40;130;03.18.01.553
12944;174616;34.40;131;03.18.01.553
12944;174618;34.40;132;03.18.01.553
12912;174626;34.40;133;03.18.01.553
12932;174621;34.40;134;03.18.01.553
12912;174626;34.40;135;03.18.01.553
12944;174620;34.40;136;03.18.01.553
12932;174624;34.40;137;03.18.01.553
12932;174637;34.40;138;03.18.01.553
12912;174639;34.40;139;03.18.01.564
12892;174643;34.40;140;03.18.01.564
12908;174649;34.40;141;03.18.01.564
12920;174641;34.40;142;03.18.01.575
12932;174642;34.40;143;03.18.01.575
12936;174649;34.40;144;03.18.01.575
12936;174645;34.40;145;03.18.01.575
12916;174655;34.40;146;03.18.01.575
12944;174646;34.40;147;03.18.01.575
12912;174648;34.40;148;03.18.01.575
12940;174650;34.40;149;03.18.01.575
12928;174656;34.40;150;03.18.01.663
12944;174643;34.40;151;03.18.01.663
12940;174642;34.40;152;03.18.01.663
12928;174643;34.40;153;03.18.01.663
12908;174643;34.40;154;03.18.01.663
12964;174653;34.40;155;03.18.01.663
12928;174641;34.40;156;03.18.01.663
12884;174636;34.40;157;03.18.01.663
12900;174638;34.40;158;03.18.01.674
12928;174635;34.40;159;03.18.01.674
12936;174632;34.40;160;03.18.01.674
12948;174620;34.40;161;03.18.01.674
12948;174617;34.40;162;03.18.01.674
12932;174616;34.40;163;03.18.01.674
12952;174608;34.40;164;03.18.01.674
12912;174614;34.40;165;03.18.01.674
12968;174607;34.40;166;03.18.01.674
12908;174602;34.40;167;03.18.01.685
12936;174596;34.40;168;03.18.01.685
12936;174597;34.40;169;03.18.01.685
12932;174594;34.40;170;03.18.01.685
12952;174593;34.40;171;03.18.01.685
12944;174592;34.40;172;03.18.01.685
12924;174598;34.40;173;03.18.01.685
12968;174606;34.40;174;03.18.01.685
12944;174612;34.40;175;03.18.01.784
12900;174603;34.40;176;03.18.01.784
12940;174606;34.40;177;03.18.01.784
12940;174617;34.40;178;03.18.01.784
12932;174616;34.40;179;03.18.01.784
12924;174611;34.40;180;03.18.01.784
12936;174608;34.40;181;03.18.01.784
12924;174623;34.40;182;03.18.01.795
12960;174618;34.40;183;03.18.01.795
12924;174629;34.40;184;03.18.01.795
12932;174626;34.40;185;03.18.01.795
12908;174625;34.40;186;03.18.01.795
12916;174626;34.40;187;03.18.01.795
12952;174629;34.40;188;03.18.01.795
12944;174629;34.40;189;03.18.01.795
12936;174631;34.40;190;03.18.01.795
12924;174637;34.40;191;03.18.01.795
12928;174640;34.40;192;03.18.01.795
12904;174628;34.40;193;03.18.01.795
12924;174628;34.40;194;03.18.01.795
12916;174633;34.40;195;03.18.01.806
12928;174627;34.40;196;03.18.01.806
12944;174631;34.40;197;03.18.01.806
12924;174618;34.40;198;03.18.01.806
12960;174619;34.40;199;03.18.01.806
12920;174624;34.40;200;03.18.01.905
12932;174622;34.40;201;03.18.01.905
12936;174619;34.40;202;03.18.01.915
12952;174614;34.40;203;03.18.01.915
12924;174618;34.40;204;03.18.01.915
12936;174620;34.40;205;03.18.01.915
12940;174622;34.40;206;03.18.01.915
12920;174611;34.40;207;03.18.01.915
12912;174606;34.40;208;03.18.01.915
12944;174607;34.40;209;03.18.01.915
12916;174617;34.40;210;03.18.01.915
12908;174613;34.40;211;03.18.01.915
12960;174611;34.40;212;03.18.01.915
12940;174610;34.40;213;03.18.01.915
12964;174610;34.40;214;03.18.01.915
12908;174606;34.40;215;03.18.01.915
12952;174612;34.40;216;03.18.01.926
12932;174611;34.40;217;03.18.01.926
12944;174618;34.40;218;03.18.01.926
12944;174618;34.40;219;03.18.01.926
12884;174617;34.40;220;03.18.01.926
12900;174618;34.40;221;03.18.01.926
12936;174619;34.40;222;03.18.01.926
12916;174619;34.40;223;03.18.01.926
12948;174620;34.40;224;03.18.01.926
12908;174619;34.40;225;03.18.02.047
12936;174624;34.40;226;03.18.02.047
12960;174625;34.40;227;03.18.02.047
12948;174626;34.40;228;03.18.02.047
12908;174630;34.40;229;03.18.02.047
12928;174619;34.40;230;03.18.02.047
12912;174624;34.40;231;03.18.02.047
12912;174619;34.40;232;03.18.02.047
12928;174629;34.40;233;03.18.02.047
12908;174621;34.40;234;03.18.02.047
12960;174627;34.40;235;03.18.02.047
12940;174620;34.40;236;03.18.02.047
12936;174617;34.40;237;03.18.02.058
12924;174621;34.40;238;03.18.02.058
12928;174622;34.40;239;03.18.02.058
12920;174624;34.40;240;03.18.02.058
12928;174622;34.40;241;03.18.02.058
12900;174625;34.40;242;03.18.02.058
12932;174619;34.40;243;03.18.02.058
12928;174617;34.40;244;03.18.02.058
12924;174618;34.40;245;03.18.02.058
12904;174614;34.40;246;03.18.02.058
12936;174616;34.40;247;03.18.02.058
12924;174622;34.40;248;03.18.02.058
12948;174617;34.40;249;03.18.02.058
12920;174618;34.40;250;03.18.02.178
12900;174621;34.40;251;03.18.02.178
12932;174618;34.40;252;03.18.02.178
12928;174623;34.40;253;03.18.02.178
12932;174620;34.40;254;03.18.02.178
12924;174622;34.40;255;03.18.02.178
12944;174631;34.40;256;03.18.02.178
12940;174631;34.40;257;03.18.02.178
12944;174634;34.40;258;03.18.02.189
12904;174634;34.40;259;03.18.02.189
12924;174637;34.40;260;03.18.02.189
12952;174628;34.40;261;03.18.02.189
12936;174637;34.40;262;03.18.02.189
12920;174632;34.40;263;03.18.02.189
12924;174634;34.40;264;03.18.02.189
12928;174634;34.40;265;03.18.02.189
12916;174639;34.40;266;03.18.02.189
12920;174641;34.40;267;03.18.02.189
12936;174650;34.40;268;03.18.02.189
12936;174656;34.40;269;03.18.02.189
12928;174654;34.40;270;03.18.02.200
12924;174667;34.40;271;03.18.02.200
12928;174655;34.40;272;03.18.02.200
12912;174655;34.40;273;03.18.02.200
12968;174666;34.40;274;03.18.02.200
12940;174672;34.40;275;03.18.02.320
12932;174668;34.40;276;03.18.02.320
12912;174672;34.40;277;03.18.02.331
12924;174678;34.40;278;03.18.02.331
12920;174661;34.40;279;03.18.02.331
12932;174661;34.40;280;03.18.02.331
12908;174649;34.40;281;03.18.02.331
12936;174659;34.40;282;03.18.02.331
12920;174646;34.40;283;03.18.02.331
12928;174658;34.40;284;03.18.02.331
12936;174645;34.40;285;03.18.02.331
12916;174638;34.40;286;03.18.02.331
12944;174642;34.40;287;03.18.02.331
12936;174637;34.40;288;03.18.02.331
12932;174634;34.40;289;03.18.02.331
12936;174625;34.40;290;03.18.02.342
12944;174618;34.40;291;03.18.02.342
12940;174610;34.40;292;03.18.02.342
12944;174609;34.40;293;03.18.02.342
12960;174607;34.40;294;03.18.02.342
12932;174600;34.40;295;03.18.02.342
12928;174596;34.40;296;03.18.02.342
12916;174595;34.40;297;03.18.02.342
12940;174592;34.40;298;03.18.02.342
12900;174582;34.40;299;03.18.02.342
12936;174582;34.36;300;03.18.02.430
12944;174577;34.36;301;03.18.02.430
12888;174578;34.36;302;03.18.02.430
12944;174573;34.36;303;03.18.02.430
12944;174572;34.36;304;03.18.02.430
12928;174565;34.36;305;03.18.02.430
12928;174570;34.36;306;03.18.02.430
12928;174572;34.36;307;03.18.02.430
12936;174574;34.36;308;03.18.02.452
12932;174573;34.36;309;03.18.02.452
12952;174578;34.36;310;03.18.02.452
12940;174568;34.36;311;03.18.02.452
12936;174575;34.36;312;03.18.02.452
12920;174575;34.36;313;03.18.02.452
12944;174576;34.36;314;03.18.02.452
12920;174576;34.36;315;03.18.02.452
12944;174580;34.36;316;03.18.02.452
12956;174569;34.36;317;03.18.02.452
12908;174581;34.36;318;03.18.02.452
12908;174584;34.36;319;03.18.02.463
12908;174579;34.36;320;03.18.02.463
12932;174579;34.36;321;03.18.02.463
12928;174576;34.36;322;03.18.02.463
12960;174594;34.36;323;03.18.02.463
12928;174581;34.36;324;03.18.02.463
12904;174580;34.36;325;03.18.02.540
12936;174580;34.36;326;03.18.02.540
12940;174581;34.36;327;03.18.02.540
12916;174588;34.36;328;03.18.02.540
12924;174582;34.36;329;03.18.02.540
12924;174579;34.36;330;03.18.02.540
12948;174586;34.36;331;03.18.02.540
12928;174580;34.36;332;03.18.02.540
12952;174579;34.36;333;03.18.02.540
12928;174563;34.36;334;03.18.02.540
12932;174569;34.36;335;03.18.02.551
12932;174577;34.36;336;03.18.02.551
12960;174568;34.36;337;03.18.02.551
12932;174562;34.36;338;03.18.02.551
12916;174570;34.36;339;03.18.02.551
12892;174565;34.36;340;03.18.02.551
12936;174577;34.36;341;03.18.02.551
12916;174562;34.36;342;03.18.02.551
12912;174561;34.36;343;03.18.02.551
12948;174565;34.36;344;03.18.02.551
12928;174570;34.36;345;03.18.02.551
12908;174560;34.36;346;03.18.02.551
12924;174555;34.36;347;03.18.02.562
12924;174558;34.36;348;03.18.02.562
12940;174558;34.36;349;03.18.02.562
12952;174558;34.36;350;03.18.02.671
12960;174557;34.36;351;03.18.02.671
12936;174562;34.36;352;03.18.02.671
12920;174548;34.36;353;03.18.02.671
12924;174558;34.36;354;03.18.02.671
12916;174552;34.36;355;03.18.02.671
12956;174546;34.36;356;03.18.02.682
12916;174550;34.36;357;03.18.02.682
12908;174550;34.36;358;03.18.02.682
12928;174550;34.36;359;03.18.02.682
12904;174538;34.36;360;03.18.02.682
12936;174542;34.36;361;03.18.02.682
12924;174553;34.36;362;03.18.02.682
12916;174550;34.36;363;03.18.02.682
12884;174543;34.36;364;03.18.02.682
12928;174545;34.36;365;03.18.02.682
12960;174543;34.36;366;03.18.02.682
12932;174540;34.36;367;03.18.02.682
12936;174533;34.36;368;03.18.02.682
12940;174536;34.36;369;03.18.02.693
12936;174535;34.36;370;03.18.02.693
12944;174538;34.36;371;03.18.02.693
12936;174534;34.36;372;03.18.02.693
12948;174538;34.36;373;03.18.02.693
12936;174527;34.36;374;03.18.02.693
12944;174535;34.36;375;03.18.02.781
12908;174528;34.36;376;03.18.02.781
12948;174530;34.36;377;03.18.02.792
12932;174533;34.36;378;03.18.02.792
12928;174540;34.36;379;03.18.02.792
12928;174533;34.36;380;03.18.02.792
12908;174533;34.36;381;03.18.02.792
12944;174543;34.36;382;03.18.02.792
12908;174535;34.36;383;03.18.02.814
12920;174550;34.36;384;03.18.02.814
12920;174547;34.36;385;03.18.02.814
12928;174554;34.36;386;03.18.02.814
12936;174549;34.36;387;03.18.02.814
12948;174553;34.36;388;03.18.02.814
12932;174555;34.36;389;03.18.02.814
12928;174553;34.36;390;03.18.02.814
12960;174560;34.36;391;03.18.02.814
12936;174567;34.36;392;03.18.02.814
12932;174563;34.36;393;03.18.02.814
12912;174560;34.36;394;03.18.02.814
12944;174561;34.36;395;03.18.02.814
12960;174562;34.36;396;03.18.02.824
12904;174557;34.36;397;03.18.02.824
12940;174563;34.36;398;03.18.02.824
12976;174571;34.36;399;03.18.02.824
12920;174564;34.36;400;03.18.02.923
12924;174567;34.36;401;03.18.02.923
12940;174567;34.36;402;03.18.02.923
12932;174562;34.36;403;03.18.02.923
12936;174571;34.36;404;03.18.02.923
12908;174561;34.36;405;03.18.02.923
12924;174558;34.36;406;03.18.02.923
12948;174564;34.36;407;03.18.02.923
12888;174553;34.36;408;03.18.02.934
12916;174545;34.36;409;03.18.02.934
12916;174548;34.36;410;03.18.02.934
12900;174549;34.36;411;03.18.02.934
12952;174551;34.36;412;03.18.02.934
12932;174536;34.36;413;03.18.02.934
12928;174537;34.36;414;03.18.02.934
12944;174532;34.36;415;03.18.02.934
12940;174540;34.36;416;03.18.02.934
12932;174528;34.36;417;03.18.02.956
12908;174531;34.36;418;03.18.02.956
12936;174524;34.36;419;03.18.02.956
12900;174518;34.36;420;03.18.02.956
12960;174513;34.36;421;03.18.02.956
12944;174513;34.36;422;03.18.02.956
12924;174511;34.36;423;03.18.02.956
12948;174507;34.36;424;03.18.02.956
12908;174504;34.36;425;03.18.03.043
12924;174497;34.36;426;03.18.03.043
12920;174499;34.36;427;03.18.03.043
12960;174492;34.36;428;03.18.03.043
12928;174490;34.36;429;03.18.03.043
12944;174493;34.36;430;03.18.03.043
12924;174494;34.36;431;03.18.03.054
12932;174482;34.36;432;03.18.03.054
12908;174486;34.36;433;03.18.03.054
12944;174488;34.36;434;03.18.03.054
12928;174479;34.36;435;03.18.03.054
12924;174492;34.36;436;03.18.03.054
12944;174493;34.36;437;03.18.03.054
12936;174484;34.36;438;03.18.03.054
12952;174484;34.36;439;03.18.03.054
12924;174485;34.36;440;03.18.03.054
12912;174483;34.36;441;03.18.03.054
12936;174492;34.36;442;03.18.03.054
12928;174493;34.36;443;03.18.03.054
12928;174484;34.36;444;03.18.03.065
12924;174485;34.36;445;03.18.03.065
12904;174484;34.36;446;03.18.03.065
12908;174490;34.36;447;03.18.03.065
12900;174490;34.36;448;03.18.03.065
12932;174481;34.36;449;03.18.03.065
12944;174477;34.36;450;03.18.03.175
12936;174488;34.36;451;03.18.03.175
12900;174485;34.36;452;03.18.03.186
12944;174483;34.36;453;03.18.03.186
12944;174481;34.36;454;03.18.03.186
12912;174472;34.36;455;03.18.03.186
12932;174469;34.36;456;03.18.03.186
12964;174480;34.36;457;03.18.03.186
12928;174474;34.36;458;03.18.03.186
12912;174468;34.36;459;03.18.03.186
12924;174478;34.36;460;03.18.03.186
12944;174467;34.36;461;03.18.03.186
12916;174470;34.36;462;03.18.03.186
12940;174471;34.36;463;03.18.03.186
12944;174464;34.36;464;03.18.03.186
12928;174453;34.36;465;03.18.03.197
12924;174461;34.36;466;03.18.03.197
12920;174467;34.36;467;03.18.03.197
12956;174460;34.36;468;03.18.03.197
12936;174455;34.36;469;03.18.03.197
12944;174457;34.36;470;03.18.03.197
12936;174449;34.36;471;03.18.03.197
12948;174453;34.36;472;03.18.03.197
12944;174451;34.36;473;03.18.03.197
12932;174444;34.36;474;03.18.03.197
12940;174450;34.36;475;03.18.03.318
12932;174448;34.36;476;03.18.03.318
12960;174450;34.36;477;03.18.03.318
12940;174446;34.36;478;03.18.03.318
12956;174449;34.36;479;03.18.03.318
12940;174443;34.36;480;03.18.03.318
12928;174443;34.36;481;03.18.03.318
12928;174447;34.36;482;03.18.03.318
12936;174445;34.36;483;03.18.03.318
12916;174451;34.36;484;03.18.03.318
12916;174446;34.36;485;03.18.03.318
12936;174440;34.36;486;03.18.03.329
12928;174440;34.36;487;03.18.03.329
12920;174446;34.36;488;03.18.03.329
12928;174444;34.36;489;03.18.03.329
12924;174444;34.36;490;03.18.03.329
12924;174448;34.36;491;03.18.03.329
12908;174444;34.36;492;03.18.03.329
12908;174448;34.36;493;03.18.03.329
12908;174447;34.36;494;03.18.03.329
12924;174445;34.36;495;03.18.03.329
12924;174449;34.36;496;03.18.03.329
12908;174444;34.36;497;03.18.03.329
12928;174452;34.36;498;03.18.03.329
12912;174437;34.36;499;03.18.03.340
12904;174446;34.36;500;03.18.03.416
12928;174446;34.36;501;03.18.03.416
12932;174441;34.36;502;03.18.03.416
12960;174446;34.36;503;03.18.03.416
12936;174444;34.36;504;03.18.03.416
12928;174450;34.36;505;03.18.03.416
12928;174438;34.36;506;03.18.03.416
12932;174447;34.36;507;03.18.03.416
12944;174444;34.36;508;03.18.03.427
12924;174453;34.36;509;03.18.03.427
12916;174451;34.36;510;03.18.03.427
12912;174454;34.36;511;03.18.03.427
12944;174443;34.36;512;03.18.03.427
12944;174450;34.36;513;03.18.03.427
12948;174452;34.36;514;03.18.03.427
12932;174451;34.36;515;03.18.03.427
12960;174449;34.36;516;03.18.03.427
12932;174451;34.36;517;03.18.03.449
12924;174450;34.36;518;03.18.03.449
12928;174449;34.36;519;03.18.03.449
12936;174445;34.36;520;03.18.03.449
12928;174451;34.36;521;03.18.03.449
12924;174448;34.36;522;03.18.03.449
12924;174447;34.36;523;03.18.03.449
12920;174460;34.36;524;03.18.03.449
12924;174456;34.36;525;03.18.03.537
12924;174451;34.36;526;03.18.03.537
12924;174460;34.36;527;03.18.03.537
12932;174450;34.36;528;03.18.03.537
12924;174449;34.36;529;03.18.03.537
12912;174454;34.36;530;03.18.03.548
12940;174453;34.36;531;03.18.03.548
12920;174450;34.36;532;03.18.03.548
12928;174447;34.36;533;03.18.03.548
12940;174454;34.36;534;03.18.03.548
12960;174447;34.36;535;03.18.03.548
12960;174449;34.36;536;03.18.03.548
12944;174444;34.36;537;03.18.03.548
12944;174449;34.36;538;03.18.03.548
12928;174445;34.36;539;03.18.03.548
12940;174440;34.36;540;03.18.03.548
12952;174441;34.36;541;03.18.03.548
12928;174432;34.36;542;03.18.03.581
12944;174436;34.36;543;03.18.03.581
12944;174430;34.36;544;03.18.03.581
12944;174431;34.36;545;03.18.03.581
12940;174425;34.36;546;03.18.03.581
12924;174427;34.36;547;03.18.03.592
12940;174421;34.36;548;03.18.03.592
12912;174428;34.36;549;03.18.03.592
12916;174422;34.36;550;03.18.03.669
12924;174422;34.36;551;03.18.03.679
12924;174416;34.36;552;03.18.03.679
12940;174420;34.36;553;03.18.03.679
12920;174416;34.36;554;03.18.03.679
12940;174420;34.36;555;03.18.03.679
12924;174414;34.36;556;03.18.03.679
12924;174421;34.36;557;03.18.03.679
12924;174425;34.36;558;03.18.03.701
12932;174430;34.36;559;03.18.03.701
12948;174434;34.36;560;03.18.03.701
12928;174425;34.36;561;03.18.03.701
12948;174420;34.36;562;03.18.03.701
12928;174433;34.36;563;03.18.03.701
12948;174440;34.36;564;03.18.03.701
12908;174429;34.36;565;03.18.03.701
12956;174439;34.36;566;03.18.03.701
12916;174442;34.36;567;03.18.03.723
12928;174451;34.36;568;03.18.03.723
12944;174453;34.36;569;03.18.03.723
12920;174451;34.36;570;03.18.03.723
12908;174453;34.36;571;03.18.03.723
12932;174456;34.36;572;03.18.03.723
12932;174454;34.36;573;03.18.03.723
12936;174460;34.36;574;03.18.03.723
12940;174469;34.36;575;03.18.03.788
12940;174470;34.36;576;03.18.03.788
12908;174480;34.36;577;03.18.03.788
12920;174481;34.36;578;03.18.03.788
12936;174480;34.36;579;03.18.03.788
12900;174486;34.36;580;03.18.03.788
12928;174493;34.36;581;03.18.03.788
12920;174494;34.36;582;03.18.03.788
12936;174495;34.36;583;03.18.03.810
12928;174498;34.36;584;03.18.03.810
12920;174500;34.36;585;03.18.03.810
12928;174499;34.36;586;03.18.03.810
12944;174492;34.36;587;03.18.03.810
12940;174499;34.36;588;03.18.03.810
12916;174499;34.36;589;03.18.03.810
12936;174502;34.36;590;03.18.03.810
12916;174503;34.36;591;03.18.03.810
12932;174509;34.36;592;03.18.03.810
12928;174503;34.36;593;03.18.03.810
12932;174514;34.36;594;03.18.03.821
12944;174515;34.36;595;03.18.03.821
12932;174523;34.36;596;03.18.03.821
12944;174521;34.36;597;03.18.03.821
12924;174523;34.36;598;03.18.03.821
12936;174521;34.36;599;03.18.03.821
12916;174512;34.40;600;03.18.03.909
12944;174512;34.40;601;03.18.03.909
12924;174509;34.40;602;03.18.03.909
12892;174514;34.40;603;03.18.03.909
12908;174507;34.40;604;03.18.03.909
12940;174508;34.40;605;03.18.03.909
12912;174513;34.40;606;03.18.03.920
12916;174510;34.40;607;03.18.03.920
12920;174511;34.40;608;03.18.03.920
12920;174499;34.40;609;03.18.03.920
12924;174495;34.40;610;03.18.03.920
12956;174500;34.40;611;03.18.03.920
12940;174498;34.40;612;03.18.03.930
12940;174496;34.40;613;03.18.03.930
12920;174492;34.40;614;03.18.03.930
12924;174496;34.40;615;03.18.03.930
12932;174498;34.40;616;03.18.03.930
12924;174497;34.40;617;03.18.03.941
12896;174495;34.40;618;03.18.03.941
12908;174488;34.40;619;03.18.03.941
12936;174491;34.40;620;03.18.03.941
12928;174491;34.40;621;03.18.03.941
12944;174480;34.40;622;03.18.03.952
12936;174486;34.40;623;03.18.03.952
12952;174488;34.40;624;03.18.03.952
12940;174480;34.40;625;03.18.04.039
12928;174488;34.40;626;03.18.04.039
12928;174492;34.40;627;03.18.04.039
12932;174488;34.40;628;03.18.04.039
12932;174487;34.40;629;03.18.04.039
12928;174487;34.40;630;03.18.04.039
12948;174490;34.40;631;03.18.04.039
12936;174499;34.40;632;03.18.04.039
12952;174497;34.40;633;03.18.04.039
12936;174496;34.40;634;03.18.04.039
12924;174494;34.40;635;03.18.04.039
12924;174489;34.40;636;03.18.04.039
12920;174488;34.40;637;03.18.04.039
12952;174488;34.40;638;03.18.04.050
12928;174498;34.40;639;03.18.04.050
12944;174488;34.40;640;03.18.04.050
12948;174489;34.40;641;03.18.04.050
12932;174492;34.40;642;03.18.04.050
12944;174495;34.40;643;03.18.04.050
12892;174487;34.40;644;03.18.04.050
12916;174491;34.40;645;03.18.04.050
12924;174485;34.40;646;03.18.04.050
12960;174479;34.40;647;03.18.04.050
12944;174492;34.40;648;03.18.04.050
12944;174483;34.40;649;03.18.04.050
12920;174489;34.36;650;03.18.04.171
12928;174481;34.36;651;03.18.04.171
12932;174489;34.36;652;03.18.04.171
12936;174490;34.36;653;03.18.04.171
12908;174495;34.36;654;03.18.04.171
12892;174484;34.36;655;03.18.04.171
12948;174493;34.36;656;03.18.04.171
12904;174482;34.36;657;03.18.04.171
12916;174477;34.36;658;03.18.04.182
12916;174491;34.36;659;03.18.04.182
12932;174489;34.36;660;03.18.04.182
12960;174485;34.36;661;03.18.04.182
12928;174471;34.36;662;03.18.04.182
12932;174483;34.36;663;03.18.04.182
12932;174475;34.36;664;03.18.04.182
12908;174480;34.36;665;03.18.04.182
12908;174483;34.36;666;03.18.04.182
12936;174475;34.36;667;03.18.04.182
12944;174475;34.36;668;03.18.04.182
12924;174483;34.36;669;03.18.04.182
12896;174483;34.36;670;03.18.04.182
12924;174472;34.36;671;03.18.04.182
12924;174477;34.36;672;03.18.04.194
12928;174475;34.36;673;03.18.04.194
12960;174473;34.36;674;03.18.04.194
12916;174461;34.36;675;03.18.04.314
12952;174461;34.36;676;03.18.04.314
12908;174462;34.36;677;03.18.04.314
12952;174455;34.36;678;03.18.04.314
12908;174456;34.36;679;03.18.04.314
12904;174456;34.36;680;03.18.04.314
12892;174442;34.36;681;03.18.04.314
12900;174449;34.36;682;03.18.04.325
12948;174439;34.36;683;03.18.04.325
12924;174439;34.36;684;03.18.04.325
12932;174434;34.36;685;03.18.04.325
12924;174430;34.36;686;03.18.04.325
12920;174420;34.36;687;03.18.04.325
12936;174422;34.36;688;03.18.04.325
12960;174417;34.36;689;03.18.04.325
12920;174404;34.36;690;03.18.04.325
12944;174409;34.36;691;03.18.04.325
12944;174412;34.36;692;03.18.04.325
12928;174403;34.36;693;03.18.04.325
12924;174396;34.36;694;03.18.04.325
12940;174402;34.36;695;03.18.04.337
12936;174394;34.36;696;03.18.04.337
12892;174390;34.36;697;03.18.04.337
12936;174382;34.36;698;03.18.04.337
12936;174395;34.36;699;03.18.04.337
12936;174383;34.40;700;03.18.04.414
12944;174382;34.40;701;03.18.04.414
12904;174392;34.40;702;03.18.04.414
12924;174381;34.40;703;03.18.04.414
12920;174379;34.40;704;03.18.04.425
12924;174374;34.40;705;03.18.04.425
12944;174378;34.40;706;03.18.04.425
12904;174378;34.40;707;03.18.04.425
12924;174375;34.40;708;03.18.04.435
12936;174369;34.40;709;03.18.04.446
12904;174359;34.40;710;03.18.04.446
12936;174377;34.40;711;03.18.04.446
12928;174365;34.40;712;03.18.04.446
12924;174362;34.40;713;03.18.04.446
12944;174356;34.40;714;03.18.04.446
12916;174364;34.40;715;03.18.04.446
12900;174363;34.40;716;03.18.04.446
12912;174359;34.40;717;03.18.04.446
12908;174356;34.40;718;03.18.04.446
12944;174360;34.40;719;03.18.04.446
12932;174339;34.40;720;03.18.04.446
12920;174341;34.40;721;03.18.04.446
12908;174343;34.40;722;03.18.04.446
12928;174333;34.40;723;03.18.04.458
12944;174332;34.40;724;03.18.04.458
12932;174326;34.40;725;03.18.04.535
12932;174326;34.40;726;03.18.04.546
12932;174322;34.40;727;03.18.04.546
12912;174314;34.40;728;03.18.04.546
12932;174327;34.40;729;03.18.04.546
12936;174320;34.40;730;03.18.04.546
12936;174315;34.40;731;03.18.04.546
12912;174326;34.40;732;03.18.04.546
12932;174330;34.40;733;03.18.04.546
12936;174323;34.40;734;03.18.04.546
12916;174309;34.40;735;03.18.04.546
12936;174317;34.40;736;03.18.04.546
12936;174321;34.40;737;03.18.04.546
12928;174318;34.40;738;03.18.04.546
12916;174324;34.40;739;03.18.04.557
12936;174321;34.40;740;03.18.04.557
12948;174320;34.40;741;03.18.04.557
12928;174320;34.40;742;03.18.04.557
12944;174316;34.40;743;03.18.04.557
12936;174318;34.40;744;03.18.04.557
12948;174321;34.40;745;03.18.04.557
12936;174309;34.40;746;03.18.04.557
12916;174328;34.40;747;03.18.04.557
12944;174319;34.40;748;03.18.04.557
12940;174320;34.40;749;03.18.04.557
12948;174317;34.36;750;03.18.04.667
12944;174322;34.36;751;03.18.04.667
12944;174332;34.36;752;03.18.04.667
12900;174338;34.36;753;03.18.04.667
12928;174338;34.36;754;03.18.04.667
12936;174346;34.36;755;03.18.04.667
12948;174344;34.36;756;03.18.04.667
12896;174345;34.36;757;03.18.04.667
12944;174354;34.36;758;03.18.04.667
12908;174354;34.36;759;03.18.04.667
12936;174351;34.36;760;03.18.04.678
12960;174353;34.36;761;03.18.04.678
12904;174352;34.36;762;03.18.04.678
12928;174359;34.36;763;03.18.04.678
12940;174359;34.36;764;03.18.04.678
12920;174360;34.36;765;03.18.04.678
12924;174363;34.36;766;03.18.04.678
12928;174366;34.36;767;03.18.04.689
12936;174359;34.36;768;03.18.04.689
12928;174362;34.36;769;03.18.04.689
12936;174387;34.36;770;03.18.04.689
12924;174365;34.36;771;03.18.04.689
12900;174372;34.36;772;03.18.04.689
12924;174379;34.36;773;03.18.04.689
12920;174364;34.36;774;03.18.04.689
12920;174377;34.36;775;03.18.04.798
12908;174373;34.36;776;03.18.04.798
12892;174375;34.36;777;03.18.04.798
12940;174384;34.36;778;03.18.04.798
12908;174378;34.36;779;03.18.04.798
12944;174385;34.36;780;03.18.04.798
12944;174381;34.36;781;03.18.04.809
12904;174383;34.36;782;03.18.04.809
12952;174388;34.36;783;03.18.04.809
12924;174391;34.36;784;03.18.04.809
12928;174383;34.36;785;03.18.04.809
12888;174395;34.36;786;03.18.04.809
12900;174389;34.36;787;03.18.04.809
12944;174386;34.36;788;03.18.04.809
12920;174391;34.36;789;03.18.04.809
12952;174394;34.36;790;03.18.04.809
12908;174396;34.36;791;03.18.04.809
12960;174399;34.36;792;03.18.04.809
12936;174404;34.36;793;03.18.04.809
12924;174398;34.36;794;03.18.04.819
12928;174401;34.36;795;03.18.04.819
12920;174407;34.36;796;03.18.04.819
12904;174409;34.36;797;03.18.04.819
12920;174394;34.36;798;03.18.04.819
12928;174401;34.36;799;03.18.04.819
12932;174405;34.40;800;03.18.04.907
12916;174408;34.40;801;03.18.04.907
12928;174413;34.40;802;03.18.04.918
12908;174417;34.40;803;03.18.04.918
12908;174426;34.40;804;03.18.04.918
12936;174424;34.40;805;03.18.04.918
12932;174426;34.40;806;03.18.04.918
12912;174424;34.40;807;03.18.04.918
12912;174433;34.40;808;03.18.04.929
12944;174430;34.40;809;03.18.04.929
12944;174431;34.40;810;03.18.04.929
12892;174429;34.40;811;03.18.04.940
12928;174430;34.40;812;03.18.04.940
12940;174431;34.40;813;03.18.04.940
12928;174437;34.40;814;03.18.04.940
12944;174430;34.40;815;03.18.04.940
12948;174435;34.40;816;03.18.04.940
12944;174437;34.40;817;03.18.04.940
12932;174439;34.40;818;03.18.04.940
12944;174438;34.40;819;03.18.04.940
12924;174434;34.40;820;03.18.04.940
12936;174443;34.40;821;03.18.04.940
12928;174434;34.40;822;03.18.04.940
12940;174434;34.40;823;03.18.04.940
12952;174439;34.40;824;03.18.04.951
12916;174440;34.40;825;03.18.05.050
12916;174444;34.40;826;03.18.05.050
12932;174451;34.40;827;03.18.05.050
12952;174451;34.40;828;03.18.05.050
12912;174451;34.40;829;03.18.05.050
12916;174437;34.40;830;03.18.05.050
12904;174453;34.40;831;03.18.05.050
12940;174451;34.40;832;03.18.05.050
12924;174446;34.40;833;03.18.05.072
12928;174460;34.40;834;03.18.05.072
12892;174464;34.40;835;03.18.05.072
12924;174459;34.40;836;03.18.05.072
12944;174466;34.40;837;03.18.05.072
12928;174466;34.40;838;03.18.05.072
12928;174464;34.40;839;03.18.05.072
12920;174463;34.40;840;03.18.05.072
12928;174456;34.40;841;03.18.05.072
12920;174465;34.40;842;03.18.05.072
12932;174459;34.40;843;03.18.05.072
12908;174465;34.40;844;03.18.05.083
12952;174448;34.40;845;03.18.05.083
12924;174452;34.40;846;03.18.05.083
12928;174451;34.40;847;03.18.05.083
12948;174438;34.40;848;03.18.05.083
12928;174434;34.40;849;03.18.05.083
12928;174437;34.36;850;03.18.05.158
12952;174432;34.36;851;03.18.05.158
12924;174434;34.36;852;03.18.05.158
12920;174435;34.36;853;03.18.05.158
12928;174437;34.36;854;03.18.05.158
12928;174428;34.36;855;03.18.05.158
12904;174426;34.36;856;03.18.05.169
12932;174429;34.36;857;03.18.05.169
12892;174431;34.36;858;03.18.05.169
12892;174429;34.36;859;03.18.05.169
12924;174434;34.36;860;03.18.05.169
12924;174428;34.36;861;03.18.05.169
12920;174429;34.36;862;03.18.05.169
12928;174430;34.36;863;03.18.05.169
12928;174424;34.36;864;03.18.05.169
12892;174431;34.36;865;03.18.05.169
12892;174428;34.36;866;03.18.05.169
12928;174424;34.36;867;03.18.05.169
12916;174431;34.36;868;03.18.05.169
12924;174428;34.36;869;03.18.05.169
12928;174439;34.36;870;03.18.05.180
12884;174430;34.36;871;03.18.05.180
12916;174435;34.36;872;03.18.05.180
12948;174438;34.36;873;03.18.05.180
12928;174440;34.36;874;03.18.05.180
12932;174430;34.36;875;03.18.05.290
12960;174433;34.36;876;03.18.05.290
12892;174438;34.36;877;03.18.05.301
12936;174435;34.36;878;03.18.05.301
12936;174441;34.36;879;03.18.05.301
12924;174439;34.36;880;03.18.05.301
12892;174440;34.36;881;03.18.05.301
12952;174450;34.36;882;03.18.05.301
12928;174446;34.36;883;03.18.05.301
12936;174443;34.36;884;03.18.05.301
12940;174456;34.36;885;03.18.05.301
12936;174445;34.36;886;03.18.05.301
12944;174442;34.36;887;03.18.05.301
12892;174456;34.36;888;03.18.05.301
12944;174451;34.36;889;03.18.05.301
12928;174447;34.36;890;03.18.05.312
12928;174450;34.36;891;03.18.05.312
12900;174448;34.36;892;03.18.05.312
12940;174453;34.36;893;03.18.05.312
12932;174448;34.36;894;03.18.05.312
12936;174457;34.36;895;03.18.05.312
12916;174455;34.36;896;03.18.05.312
12928;174456;34.36;897;03.18.05.312
12892;174455;34.36;898;03.18.05.312
12952;174465;34.36;899;03.18.05.312
12932;174466;34.40;900;03.18.05.433
12916;174468;34.40;901;03.18.05.433
12928;174458;34.40;902;03.18.05.433
12932;174469;34.40;903;03.18.05.433
12928;174475;34.40;904;03.18.05.433
12924;174470;34.40;905;03.18.05.433
12928;174467;34.40;906;03.18.05.433
12924;174473;34.40;907;03.18.05.433
12924;174474;34.40;908;03.18.05.433
12904;174477;34.40;909;03.18.05.433
12920;174480;34.40;910;03.18.05.433
12944;174477;34.40;911;03.18.05.433
12928;174473;34.40;912;03.18.05.443
12944;174477;34.40;913;03.18.05.443
12896;174477;34.40;914;03.18.05.443
12944;174480;34.40;915;03.18.05.443
12932;174478;34.40;916;03.18.05.443
12908;174477;34.40;917;03.18.05.443
12932;174487;34.40;918;03.18.05.443
12944;174479;34.40;919;03.18.05.443
12908;174475;34.40;920;03.18.05.443
12940;174482;34.40;921;03.18.05.443
12928;174478;34.40;922;03.18.05.443
12904;174480;34.40;923;03.18.05.443
12924;174482;34.40;924;03.18.05.454
12928;174483;34.40;925;03.18.05.542
12928;174485;34.40;926;03.18.05.542
12920;174490;34.40;927;03.18.05.542
12928;174483;34.40;928;03.18.05.542
12888;174480;34.40;929;03.18.05.542
12940;174490;34.40;930;03.18.05.542
12948;174475;34.40;931;03.18.05.542
12932;174471;34.40;932;03.18.05.542
12908;174478;34.40;933;03.18.05.564
12940;174478;34.40;934;03.18.05.564
12932;174478;34.40;935;03.18.05.564
12924;174482;34.40;936;03.18.05.564
12916;174490;34.40;937;03.18.05.564
12916;174477;34.40;938;03.18.05.564
12944;174485;34.40;939;03.18.05.564
12928;174485;34.40;940;03.18.05.564
12940;174484;34.40;941;03.18.05.575
12924;174484;34.40;942;03.18.05.575
12920;174488;34.40;943;03.18.05.575
12924;174483;34.40;944;03.18.05.575
12908;174491;34.40;945;03.18.05.575
12960;174492;34.40;946;03.18.05.575
12924;174492;34.40;947;03.18.05.575
12960;174488;34.40;948;03.18.05.575
12956;174499;34.40;949;03.18.05.575
12920;174491;34.40;950;03.18.05.662
12936;174500;34.40;951;03.18.05.662
12932;174492;34.40;952;03.18.05.674
12892;174496;34.40;953;03.18.05.674
12948;174496;34.40;954;03.18.05.674
12944;174493;34.40;955;03.18.05.674
12944;174491;34.40;956;03.18.05.674
12908;174492;34.40;957;03.18.05.674
12928;174491;34.40;958;03.18.05.674
12916;174499;34.40;959;03.18.05.674
12928;174503;34.40;960;03.18.05.674
12932;174502;34.40;961;03.18.05.674
12904;174497;34.40;962;03.18.05.674
12944;174513;34.40;963;03.18.05.674
12908;174508;34.40;964;03.18.05.674
12924;174501;34.40;965;03.18.05.674
12924;174514;34.40;966;03.18.05.674
12924;174508;34.40;967;03.18.05.674
12944;174507;34.40;968;03.18.05.685
12952;174511;34.40;969;03.18.05.685
12964;174514;34.40;970;03.18.05.685
12900;174512;34.40;971;03.18.05.685
12932;174515;34.40;972;03.18.05.685
12916;174511;34.40;973;03.18.05.685
12956;174522;34.40;974;03.18.05.685
12908;174516;34.40;975;03.18.05.784
12936;174505;34.40;976;03.18.05.795
12912;174523;34.40;977;03.18.05.795
12916;174510;34.40;978;03.18.05.795
12924;174518;34.40;979;03.18.05.795
12928;174504;34.40;980;03.18.05.795
12924;174515;34.40;981;03.18.05.795
12900;174505;34.40;982;03.18.05.795
12908;174503;34.40;983;03.18.05.795
12932;174512;34.40;984;03.18.05.795
12928;174503;34.40;985;03.18.05.795
12928;174508;34.40;986;03.18.05.795
12936;174511;34.40;987;03.18.05.795
12928;174512;34.40;988;03.18.05.795
12916;174498;34.40;989;03.18.05.806
12944;174496;34.40;990;03.18.05.806
12928;174496;34.40;991;03.18.05.806
12956;174490;34.40;992;03.18.05.806
12904;174479;34.40;993;03.18.05.806
12932;174478;34.40;994;03.18.05.806
12928;174481;34.40;995;03.18.05.806
12944;174471;34.40;996;03.18.05.806
12920;174472;34.40;997;03.18.05.806
12928;174468;34.40;998;03.18.05.806
12948;174465;34.40;999;03.18.05.806
12940;174461;34.36;000;03.18.05.926
12924;174453;34.36;001;03.18.05.926
12936;174446;34.36;002;03.18.05.926
12920;174448;34.36;003;03.18.05.926
12936;174443;34.36;004;03.18.05.926
12916;174443;34.36;005;03.18.05.926
12952;174439;34.36;006;03.18.05.926
12928;174433;34.36;007;03.18.05.926
12936;174430;34.36;008;03.18.05.937
12928;174436;34.36;009;03.18.05.937
12944;174433;34.36;010;03.18.05.937
12924;174417;34.36;011;03.18.05.937
12936;174432;34.36;012;03.18.05.937
12904;174424;34.36;013;03.18.05.937
12920;174423;34.36;014;03.18.05.937
12928;174423;34.36;015;03.18.05.937
12948;174417;34.36;016;03.18.05.937
12908;174427;34.36;017;03.18.05.937
12908;174425;34.36;018;03.18.05.949
12940;174435;34.36;019;03.18.05.949
12936;174427;34.36;020;03.18.05.949
12944;174428;34.36;021;03.18.05.949
12920;174432;34.36;022;03.18.05.949
12892;174434;34.36;023;03.18.05.949
12960;174437;34.36;024;03.18.05.949
12932;174438;34.36;025;03.18.06.037
12908;174445;34.36;026;03.18.06.037
12936;174440;34.36;027;03.18.06.037
12932;174444;34.36;028;03.18.06.037
12928;174444;34.36;029;03.18.06.037
12932;174441;34.36;030;03.18.06.037
12916;174451;34.36;031;03.18.06.037
12908;174453;34.36;032;03.18.06.037
12936;174451;34.36;033;03.18.06.059
12920;174451;34.36;034;03.18.06.059
12892;174452;34.36;035;03.18.06.059
12928;174446;34.36;036;03.18.06.059
12944;174443;34.36;037;03.18.06.059
12952;174444;34.36;038;03.18.06.059
12928;174445;34.36;039;03.18.06.059
12928;174432;34.36;040;03.18.06.059
12928;174429;34.36;041;03.18.06.070
12932;174432;34.36;042;03.18.06.070
12944;174426;34.36;043;03.18.06.070
12920;174422;34.36;044;03.18.06.070
12936;174422;34.36;045;03.18.06.070
12936;174426;34.36;046;03.18.06.070
12936;174413;34.36;047;03.18.06.070
12916;174407;34.36;048;03.18.06.070
12944;174405;34.36;049;03.18.06.070
12920;174404;34.36;050;03.18.06.158
12924;174398;34.36;051;03.18.06.158
12928;174405;34.36;052;03.18.06.158
12908;174392;34.36;053;03.18.06.158
12908;174394;34.36;054;03.18.06.169
12928;174392;34.36;055;03.18.06.169
12944;174383;34.36;056;03.18.06.169
12904;174396;34.36;057;03.18.06.169
12920;174395;34.36;058;03.18.06.180
12932;174383;34.36;059;03.18.06.180
12932;174391;34.36;060;03.18.06.180
12920;174379;34.36;061;03.18.06.191
12892;174395;34.36;062;03.18.06.191
12924;174384;34.36;063;03.18.06.191
12920;174395;34.36;064;03.18.06.191
12920;174384;34.36;065;03.18.06.191
12916;174386;34.36;066;03.18.06.191
12916;174385;34.36;067;03.18.06.191
12936;174381;34.36;068;03.18.06.191
12900;174384;34.36;069;03.18.06.191
12904;174384;34.36;070;03.18.06.191
12936;174389;34.36;071;03.18.06.191
12960;174390;34.36;072;03.18.06.191
12952;174390;34.36;073;03.18.06.191
12924;174390;34.36;074;03.18.06.202
12908;174386;34.36;075;03.18.06.290
12924;174383;34.36;076;03.18.06.290
12916;174390;34.36;077;03.18.06.290
12888;174392;34.36;078;03.18.06.290
12932;174388;34.36;079;03.18.06.290
12928;174391;34.36;080;03.18.06.290
12924;174392;34.36;081;03.18.06.290
12912;174397;34.36;082;03.18.06.290
12928;174394;34.36;083;03.18.06.290
12916;174388;34.36;084;03.18.06.290
12928;174390;34.36;085;03.18.06.290
12900;174394;34.36;086;03.18.06.290
12936;174399;34.36;087;03.18.06.290
12908;174397;34.36;088;03.18.06.290
12940;174391;34.36;089;03.18.06.301
12920;174387;34.36;090;03.18.06.301
12908;174393;34.36;091;03.18.06.301
12912;174398;34.36;092;03.18.06.301
12916;174398;34.36;093;03.18.06.301
12928;174394;34.36;094;03.18.06.301
12936;174391;34.36;095;03.18.06.301
12932;174387;34.36;096;03.18.06.301
12932;174394;34.36;097;03.18.06.301
12892;174400;34.36;098;03.18.06.301
12932;174396;34.36;099;03.18.06.301
12928;174399;34.36;100;03.18.06.421
12920;174400;34.36;101;03.18.06.421
12928;174401;34.36;102;03.18.06.421
12928;174405;34.36;103;03.18.06.421
12904;174406;34.36;104;03.18.06.421
12936;174399;34.36;105;03.18.06.421
12900;174400;34.36;106;03.18.06.421
12900;174398;34.36;107;03.18.06.421
12892;174399;34.36;108;03.18.06.421
12896;174403;34.36;109;03.18.06.432
12920;174407;34.36;110;03.18.06.432
12908;174403;34.36;111;03.18.06.432
12900;174405;34.36;112;03.18.06.432
12920;174406;34.36;113;03.18.06.432
12916;174409;34.36;114;03.18.06.432
12920;174411;34.36;115;03.18.06.432
12912;174409;34.36;116;03.18.06.432
12908;174412;34.36;117;03.18.06.443
12892;174413;34.36;118;03.18.06.443
12908;174407;34.36;119;03.18.06.443
12916;174411;34.36;120;03.18.06.443
12912;174415;34.36;121;03.18.06.443
12900;174412;34.36;122;03.18.06.443
12908;174415;34.36;123;03.18.06.443
12920;174409;34.36;124;03.18.06.443
12912;174403;34.36;125;03.18.06.553
12892;174415;34.36;126;03.18.06.553
12920;174413;34.36;127;03.18.06.553
12944;174405;34.36;128;03.18.06.553
12920;174408;34.36;129;03.18.06.553
12904;174409;34.36;130;03.18.06.553
12916;174404;34.36;131;03.18.06.564
12952;174407;34.36;132;03.18.06.564
12928;174402;34.36;133;03.18.06.564
12908;174417;34.36;134;03.18.06.564
12908;174412;34.36;135;03.18.06.564
12944;174428;34.36;136;03.18.06.564
12932;174425;34.36;137;03.18.06.564
12908;174427;34.36;138;03.18.06.564
12912;174437;34.36;139;03.18.06.564
12928;174424;34.36;140;03.18.06.564
12944;174419;34.36;141;03.18.06.564
12892;174429;34.36;142;03.18.06.564
12924;174421;34.36;143;03.18.06.564
12924;174416;34.36;144;03.18.06.564
12908;174410;34.36;145;03.18.06.575
12928;174414;34.36;146;03.18.06.575
12908;174412;34.36;147;03.18.06.575
12916;174405;34.36;148;03.18.06.575
12936;174409;34.36;149;03.18.06.575
12900;174398;34.40;150;03.18.06.663
12924;174399;34.40;151;03.18.06.663
12920;174391;34.40;152;03.18.06.663
12920;174384;34.40;153;03.18.06.674
12904;174383;34.40;154;03.18.06.674
12908;174392;34.40;155;03.18.06.674
12920;174381;34.40;156;03.18.06.674
12920;174365;34.40;157;03.18.06.674
12916;174366;34.40;158;03.18.06.684
12964;174367;34.40;159;03.18.06.684
12928;174377;34.40;160;03.18.06.695
12928;174361;34.40;161;03.18.06.695
12920;174362;34.40;162;03.18.06.695
12944;174356;34.40;163;03.18.06.695
12916;174353;34.40;164;03.18.06.695
12944;174353;34.40;165;03.18.06.695
12920;174338;34.40;166;03.18.06.695
12924;174340;34.40;167;03.18.06.695
12912;174339;34.40;168;03.18.06.695
12944;174335;34.40;169;03.18.06.695
12908;174329;34.40;170;03.18.06.695
12928;174330;34.40;171;03.18.06.695
12928;174329;34.40;172;03.18.06.695
12924;174325;34.40;173;03.18.06.706
12952;174321;34.40;174;03.18.06.706
12944;174321;34.40;175;03.18.06.794
12932;174300;34.40;176;03.18.06.794
12928;174316;34.40;177;03.18.06.794
12912;174320;34.40;178;03.18.06.794
12948;174306;34.40;179;03.18.06.794
12932;174313;34.40;180;03.18.06.794
12960;174315;34.40;181;03.18.06.794
12920;174309;34.40;182;03.18.06.794
12908;174308;34.40;183;03.18.06.816
12916;174316;34.40;184;03.18.06.816
12920;174301;34.40;185;03.18.06.816
12912;174308;34.40;186;03.18.06.816
12928;174308;34.40;187;03.18.06.816
12928;174310;34.40;188;03.18.06.816
12924;174311;34.40;189;03.18.06.816
12928;174312;34.40;190;03.18.06.816
12940;174314;34.40;191;03.18.06.816
12956;174309;34.40;192;03.18.06.827
12916;174307;34.40;193;03.18.06.827
12924;174308;34.40;194;03.18.06.827
12924;174304;34.40;195;03.18.06.827
12908;174299;34.40;196;03.18.06.827
12932;174305;34.40;197;03.18.06.827
12932;174293;34.40;198;03.18.06.827
12940;174306;34.40;199;03.18.06.827
12924;174307;34.36;200;03.18.06.926
12924;174300;34.36;201;03.18.06.926
12912;174310;34.36;202;03.18.06.926
12944;174305;34.36;203;03.18.06.926
12960;174311;34.36;204;03.18.06.926
12964;174311;34.36;205;03.18.06.926
12924;174310;34.36;206;03.18.06.926
12940;174302;34.36;207;03.18.06.926
12928;174313;34.36;208;03.18.06.937
12952;174317;34.36;209;03.18.06.937
12944;174308;34.36;210;03.18.06.937
12932;174300;34.36;211;03.18.06.937
12916;174303;34.36;212;03.18.06.937
12936;174307;34.36;213;03.18.06.937
12920;174293;34.36;214;03.18.06.937
12960;174303;34.36;215;03.18.06.937
12924;174299;34.36;216;03.18.06.937
12940;174297;34.36;217;03.18.06.937
12900;174293;34.36;218;03.18.06.937
12916;174287;34.36;219;03.18.06.937
12908;174292;34.36;220;03.18.06.937
12912;174293;34.36;221;03.18.06.948
12920;174295;34.36;222;03.18.06.948
12912;174291;34.36;223;03.18.06.948
12924;174289;34.36;224;03.18.06.948
12916;174290;34.36;225;03.18.07.056
12920;174291;34.36;226;03.18.07.056
12932;174292;34.36;227;03.18.07.067
12928;174286;34.36;228;03.18.07.067
12960;174285;34.36;229;03.18.07.067
12908;174275;34.36;230;03.18.07.067
12944;174288;34.36;231;03.18.07.067
12932;174289;34.36;232;03.18.07.067
12932;174296;34.36;233;03.18.07.067
12936;174285;34.36;234;03.18.07.067
12928;174296;34.36;235;03.18.07.067
12920;174287;34.36;236;03.18.07.067
12916;174285;34.36;237;03.18.07.067
12932;174292;34.36;238;03.18.07.067
12932;174295;34.36;239;03.18.07.067
12936;174298;34.36;240;03.18.07.078
12944;174291;34.36;241;03.18.07.078
12920;174294;34.36;242;03.18.07.078
12960;174286;34.36;243;03.18.07.078
12952;174291;34.36;244;03.18.07.089
12920;174296;34.36;245;03.18.07.089
12924;174292;34.36;246;03.18.07.089
12952;174287;34.36;247;03.18.07.089
12960;174289;34.36;248;03.18.07.089
12932;174287;34.36;249;03.18.07.089
12916;174293;34.36;250;03.18.07.165
12908;174294;34.36;251;03.18.07.165
12920;174289;34.36;252;03.18.07.165
12932;174296;34.36;253;03.18.07.165
12916;174296;34.36;254;03.18.07.165
12936;174276;34.36;255;03.18.07.165
12892;174291;34.36;256;03.18.07.165
12944;174288;34.36;257;03.18.07.165
12912;174294;34.36;258;03.18.07.198
12936;174289;34.36;259;03.18.07.198
12936;174289;34.36;260;03.18.07.198
12964;174291;34.36;261;03.18.07.198
12928;174290;34.36;262;03.18.07.198
12924;174290;34.36;263;03.18.07.198
12924;174297;34.36;264;03.18.07.198
12916;174293;34.36;265;03.18.07.198
12884;174292;34.36;266;03.18.07.198
12932;174294;34.36;267;03.18.07.209
12908;174295;34.36;268;03.18.07.209
12908;174298;34.36;269;03.18.07.209
12928;174300;34.36;270;03.18.07.209
12940;174296;34.36;271;03.18.07.209
12920;174302;34.36;272;03.18.07.209
12928;174296;34.36;273;03.18.07.209
12932;174305;34.36;274;03.18.07.209
12892;174305;34.36;275;03.18.07.286
12924;174308;34.36;276;03.18.07.286
12920;174306;34.36;277;03.18.07.286
12932;174303;34.36;278;03.18.07.286
12948;174311;34.36;279;03.18.07.286
12916;174308;34.36;280;03.18.07.286
12916;174307;34.36;281;03.18.07.286
12928;174311;34.36;282;03.18.07.297
12920;174305;34.36;283;03.18.07.297
12928;174311;34.36;284;03.18.07.297
12924;174305;34.36;285;03.18.07.297
12900;174314;34.36;286;03.18.07.297
12916;174321;34.36;287;03.18.07.297
12924;174318;34.36;288;03.18.07.297
12932;174325;34.36;289;03.18.07.297
12912;174317;34.36;290;03.18.07.297
12920;174318;34.36;291;03.18.07.297
12940;174318;34.36;292;03.18.07.297
12904;174327;34.36;293;03.18.07.297
12912;174320;34.36;294;03.18.07.297
12932;174326;34.36;295;03.18.07.308
12948;174324;34.36;296;03.18.07.308
12932;174315;34.36;297;03.18.07.308
12916;174323;34.36;298;03.18.07.308
12960;174325;34.36;299;03.18.07.308
12944;174332;34.36;300;03.18.07.428
12912;174329;34.36;301;03.18.07.428
12940;174329;34.36;302;03.18.07.428
12908;174334;34.36;303;03.18.07.428
12924;174332;34.36;304;03.18.07.439
12920;174333;34.36;305;03.18.07.439
12928;174336;34.36;306;03.18.07.439
12928;174332;34.36;307;03.18.07.439
12920;174339;34.36;308;03.18.07.439
12992;174340;34.36;309;03.18.07.439
12944;174334;34.36;310;03.18.07.439
12900;174333;34.36;311;03.18.07.439
12912;174335;34.36;312;03.18.07.439
12928;174332;34.36;313;03.18.07.439
12912;174320;34.36;314;03.18.07.439
12916;174329;34.36;315;03.18.07.450
12948;174322;34.36;316;03.18.07.450
12900;174321;34.36;317;03.18.07.450
12936;174314;34.36;318;03.18.07.450
12928;174316;34.36;319;03.18.07.450
12924;174299;34.36;320;03.18.07.450
12928;174301;34.36;321;03.18.07.450
12924;174297;34.36;322;03.18.07.450
12916;174287;34.36;323;03.18.07.450
12924;174289;34.36;324;03.18.07.450
12924;174289;34.36;325;03.18.07.560
12904;174283;34.36;326;03.18.07.560
12920;174280;34.36;327;03.18.07.560
12904;174277;34.36;328;03.18.07.560
12920;174268;34.36;329;03.18.07.560
12916;174270;34.36;330;03.18.07.560
12932;174266;34.36;331;03.18.07.560
12932;174266;34.36;332;03.18.07.560
12928;174265;34.36;333;03.18.07.560
12928;174263;34.36;334;03.18.07.560
12928;174259;34.36;335;03.18.07.560
12928;174257;34.36;336;03.18.07.560
12908;174256;34.36;337;03.18.07.571
12892;174255;34.36;338;03.18.07.571
12932;174255;34.36;339;03.18.07.571
12932;174252;34.36;340;03.18.07.571
12928;174257;34.36;341;03.18.07.571
12912;174254;34.36;342;03.18.07.571
12936;174242;34.36;343;03.18.07.571
12936;174248;34.36;344;03.18.07.571
12928;174244;34.36;345;03.18.07.571
12952;174241;34.36;346;03.18.07.571
12932;174246;34.36;347;03.18.07.571
12928;174240;34.36;348;03.18.07.571
12920;174248;34.36;349;03.18.07.571
12940;174247;34.40;350;03.18.07.691
12924;174241;34.40;351;03.18.07.691
12948;174243;34.40;352;03.18.07.691
12912;174247;34.40;353;03.18.07.691
12944;174239;34.40;354;03.18.07.691
12928;174243;34.40;355;03.18.07.691
12952;174237;34.40;356;03.18.07.691
12908;174246;34.40;357;03.18.07.691
12916;174241;34.40;358;03.18.07.702
12940;174248;34.40;359;03.18.07.702
12928;174248;34.40;360;03.18.07.702
12952;174256;34.40;361;03.18.07.702
12932;174237;34.40;362;03.18.07.702
12924;174236;34.40;363;03.18.07.702
12944;174247;34.40;364;03.18.07.702
12936;174254;34.40;365;03.18.07.702
12932;174243;34.40;366;03.18.07.702
12920;174244;34.40;367;03.18.07.702
12944;174249;34.40;368;03.18.07.702
12944;174255;34.40;369;03.18.07.702
12908;174244;34.40;370;03.18.07.702
12924;174256;34.40;371;03.18.07.713
12960;174254;34.40;372;03.18.07.713
12924;174249;34.40;373;03.18.07.713
12936;174252;34.40;374;03.18.07.713
12916;174250;34.40;375;03.18.07.790
12924;174253;34.40;376;03.18.07.790
12928;174258;34.40;377;03.18.07.790
12944;174251;34.40;378;03.18.07.790
12924;174252;34.40;379;03.18.07.790
12960;174246;34.40;380;03.18.07.801
12924;174246;34.40;381;03.18.07.801
12892;174253;34.40;382;03.18.07.801
12920;174244;34.40;383;03.18.07.801
12908;174256;34.40;384;03.18.07.801
12892;174245;34.40;385;03.18.07.801
12944;174256;34.40;386;03.18.07.801
12908;174253;34.40;387;03.18.07.801
12920;174252;34.40;388;03.18.07.801
12932;174253;34.40;389;03.18.07.812
12908;174244;34.40;390;03.18.07.812
12944;174245;34.40;391;03.18.07.812
12924;174249;34.40;392;03.18.07.823
12928;174240;34.40;393;03.18.07.823
12920;174246;34.40;394;03.18.07.823
12916;174261;34.40;395;03.18.07.823
12928;174258;34.40;396;03.18.07.833
12908;174260;34.40;397;03.18.07.833
12924;174262;34.40;398;03.18.07.833
12960;174271;34.40;399;03.18.07.833
12944;174263;34.36;400;03.18.07.910
12936;174266;34.36;401;03.18.07.921
12928;174262;34.36;402;03.18.07.921
12936;174261;34.36;403;03.18.07.921
12932;174264;34.36;404;03.18.07.921
12924;174269;34.36;405;03.18.07.921
12920;174277;34.36;406;03.18.07.921
12860;174274;34.36;407;03.18.07.921
12924;174277;34.36;408;03.18.07.921
12912;174280;34.36;409;03.18.07.921
12892;174277;34.36;410;03.18.07.921
12940;174278;34.36;411;03.18.07.921
12944;174276;34.36;412;03.18.07.921
12904;174278;34.36;413;03.18.07.921
12948;174273;34.36;414;03.18.07.932
12892;174275;34.36;415;03.18.07.932
12952;174277;34.36;416;03.18.07.932
12960;174277;34.36;417;03.18.07.932
12944;174272;34.36;418;03.18.07.943
12908;174275;34.36;419;03.18.07.943
12928;174277;34.36;420;03.18.07.943
12960;174276;34.36;421;03.18.07.943
12916;174282;34.36;422;03.18.07.943
12920;174285;34.36;423;03.18.07.943
12924;174282;34.36;424;03.18.07.943
12912;174280;34.36;425;03.18.08.053
12908;174276;34.36;426;03.18.08.053
12928;174286;34.36;427;03.18.08.053
12908;174283;34.36;428;03.18.08.053
12892;174286;34.36;429;03.18.08.053
12936;174291;34.36;430;03.18.08.053
12944;174286;34.36;431;03.18.08.053
12960;174291;34.36;432;03.18.08.053
12928;174295;34.36;433;03.18.08.053
12920;174296;34.36;434;03.18.08.053
12944;174285;34.36;435;03.18.08.064
12916;174294;34.36;436;03.18.08.064
12944;174298;34.36;437;03.18.08.064
12916;174293;34.36;438;03.18.08.064
12928;174302;34.36;439;03.18.08.064
12892;174302;34.36;440;03.18.08.064
12936;174309;34.36;441;03.18.08.064
12936;174308;34.36;442;03.18.08.064
12940;174312;34.36;443;03.18.08.064
12924;174320;34.36;444;03.18.08.064
12960;174311;34.36;445;03.18.08.064
12928;174331;34.36;446;03.18.08.064
12940;174332;34.36;447;03.18.08.064
12936;174329;34.36;448;03.18.08.064
12928;174330;34.36;449;03.18.08.075
12928;174336;34.36;450;03.18.08.185
12960;174341;34.36;451;03.18.08.185
12948;174339;34.36;452;03.18.08.185
12952;174343;34.36;453;03.18.08.185
12924;174338;34.36;454;03.18.08.185
12920;174345;34.36;455;03.18.08.185
12900;174345;34.36;456;03.18.08.185
12916;174355;34.36;457;03.18.08.185
12928;174350;34.36;458;03.18.08.196
12916;174349;34.36;459;03.18.08.196
12944;174355;34.36;460;03.18.08.196
12920;174358;34.36;461;03.18.08.196
12940;174357;34.36;462;03.18.08.196
12928;174350;34.36;463;03.18.08.207
12924;174351;34.36;464;03.18.08.207
12908;174367;34.36;465;03.18.08.207
12924;174360;34.36;466;03.18.08.207
12936;174369;34.36;467;03.18.08.207
12916;174371;34.36;468;03.18.08.207
12924;174367;34.36;469;03.18.08.207
12928;174385;34.36;470;03.18.08.207
12924;174369;34.36;471;03.18.08.207
12944;174380;34.36;472;03.18.08.207
12928;174375;34.36;473;03.18.08.217
12920;174373;34.36;474;03.18.08.217
12916;174371;34.36;475;03.18.08.283
12928;174376;34.36;476;03.18.08.283
12924;174367;34.36;477;03.18.08.283
12924;174383;34.36;478;03.18.08.294
12920;174361;34.36;479;03.18.08.294
12948;174371;34.36;480;03.18.08.294
12936;174365;34.36;481;03.18.08.294
12932;174358;34.36;482;03.18.08.294
12944;174372;34.36;483;03.18.08.294
12916;174365;34.36;484;03.18.08.294
12936;174362;34.36;485;03.18.08.294
12916;174354;34.36;486;03.18.08.294
12944;174356;34.36;487;03.18.08.305
12916;174350;34.36;488;03.18.08.305
12892;174344;34.36;489;03.18.08.305
12924;174344;34.36;490;03.18.08.305
12916;174346;34.36;491;03.18.08.305
12944;174343;34.36;492;03.18.08.316
12944;174343;34.36;493;03.18.08.316
12916;174337;34.36;494;03.18.08.316
12892;174331;34.36;495;03.18.08.327
12928;174334;34.36;496;03.18.08.327
12908;174339;34.36;497;03.18.08.327
12928;174332;34.36;498;03.18.08.327
12952;174332;34.36;499;03.18.08.327
12940;174335;34.36;500;03.18.08.426
12908;174338;34.36;501;03.18.08.426
12916;174344;34.36;502;03.18.08.426
12928;174342;34.36;503;03.18.08.426
12908;174354;34.36;504;03.18.08.426
12936;174338;34.36;505;03.18.08.426
12924;174342;34.36;506;03.18.08.426
12936;174338;34.36;507;03.18.08.426
12944;174339;34.36;508;03.18.08.426
12936;174324;34.36;509;03.18.08.426
12940;174327;34.36;510;03.18.08.426
12944;174341;34.36;511;03.18.08.426
12928;174335;34.36;512;03.18.08.426
12940;174327;34.36;513;03.18.08.437
12960;174330;34.36;514;03.18.08.437
12924;174330;34.36;515;03.18.08.437
12900;174337;34.36;516;03.18.08.437
12932;174323;34.36;517;03.18.08.437
12928;174328;34.36;518;03.18.08.437
12920;174324;34.36;519;03.18.08.437
12932;174334;34.36;520;03.18.08.437
12916;174320;34.36;521;03.18.08.437
12936;174326;34.36;522;03.18.08.437
12916;174333;34.36;523;03.18.08.437
12956;174332;34.36;524;03.18.08.437
12944;174330;34.36;525;03.18.08.558
12948;174328;34.36;526;03.18.08.558
12924;174322;34.36;527;03.18.08.558
12920;174321;34.36;528;03.18.08.558
12928;174320;34.36;529;03.18.08.558
12932;174312;34.36;530;03.18.08.558
12908;174329;34.36;531;03.18.08.558
12932;174318;34.36;532;03.18.08.558
12908;174330;34.36;533;03.18.08.558
12932;174330;34.36;534;03.18.08.569
12936;174333;34.36;535;03.18.08.569
12936;174339;34.36;536;03.18.08.569
12932;174346;34.36;537;03.18.08.569
12928;174341;34.36;538;03.18.08.569
12928;174353;34.36;539;03.18.08.569
12932;174351;34.36;540;03.18.08.569
12928;174355;34.36;541;03.18.08.569
12944;174358;34.36;542;03.18.08.569
12920;174360;34.36;543;03.18.08.569
12908;174364;34.36;544;03.18.08.569
12936;174377;34.36;545;03.18.08.569
12908;174374;34.36;546;03.18.08.580
12900;174378;34.36;547;03.18.08.580
12920;174377;34.36;548;03.18.08.580
12948;174366;34.36;549;03.18.08.580
12908;174364;34.36;550;03.18.08.678
12888;174371;34.36;551;03.18.08.678
12908;174363;34.36;552;03.18.08.678
12912;174372;34.36;553;03.18.08.678
12908;174371;34.36;554;03.18.08.678
12940;174372;34.36;555;03.18.08.689
12952;174374;34.36;556;03.18.08.689
12924;174378;34.36;557;03.18.08.689
12932;174377;34.36;558;03.18.08.689
12936;174382;34.36;559;03.18.08.689
12916;174384;34.36;560;03.18.08.689
12940;174390;34.36;561;03.18.08.689
12904;174397;34.36;562;03.18.08.689
12920;174395;34.36;563;03.18.08.689
12952;174398;34.36;564;03.18.08.689
12936;174399;34.36;565;03.18.08.689
12944;174403;34.36;566;03.18.08.689
12936;174409;34.36;567;03.18.08.689
12936;174409;34.36;568;03.18.08.700
12900;174417;34.36;569;03.18.08.700
12920;174431;34.36;570;03.18.08.700
12944;174428;34.36;571;03.18.08.700
12916;174438;34.36;572;03.18.08.700
12932;174436;34.36;573;03.18.08.700
12920;174440;34.36;574;03.18.08.700
12908;174452;34.36;575;03.18.08.788
12944;174454;34.36;576;03.18.08.788
12932;174457;34.36;577;03.18.08.799
12892;174463;34.36;578;03.18.08.799
12908;174460;34.36;579;03.18.08.799
12940;174468;34.36;580;03.18.08.799
12936;174462;34.36;581;03.18.08.799
12944;174454;34.36;582;03.18.08.799
12944;174457;34.36;583;03.18.08.810
12952;174461;34.36;584;03.18.08.821
12940;174445;34.36;585;03.18.08.821
12932;174450;34.36;586;03.18.08.821
12944;174439;34.36;587;03.18.08.821
12936;174434;34.36;588;03.18.08.821
12916;174418;34.36;589;03.18.08.821
12932;174419;34.36;590;03.18.08.821
12948;174417;34.36;591;03.18.08.821
12920;174404;34.36;592;03.18.08.821
12944;174405;34.36;593;03.18.08.821
12924;174399;34.36;594;03.18.08.821
12908;174389;34.36;595;03.18.08.821
12924;174401;34.36;596;03.18.08.821
12916;174391;34.36;597;03.18.08.832
12936;174392;34.36;598;03.18.08.832
12928;174388;34.36;599;03.18.08.832
12940;174390;34.36;600;03.18.08.919
12928;174392;34.36;601;03.18.08.919
12940;174389;34.36;602;03.18.08.919
12916;174391;34.36;603;03.18.08.919
12944;174398;34.36;604;03.18.08.919
12928;174395;34.36;605;03.18.08.919
12936;174379;34.36;606;03.18.08.919
12924;174378;34.36;607;03.18.08.919
12920;174373;34.36;608;03.18.08.919
12928;174377;34.36;609;03.18.08.919
12948;174368;34.36;610;03.18.08.930
12936;174367;34.36;611;03.18.08.930
12936;174355;34.36;612;03.18.08.930
12916;174351;34.36;613;03.18.08.930
12932;174341;34.36;614;03.18.08.930
12940;174343;34.36;615;03.18.08.930
12932;174339;34.36;616;03.18.08.930
12936;174336;34.36;617;03.18.08.930
12948;174326;34.36;618;03.18.08.930
12924;174321;34.36;619;03.18.08.930
12916;174317;34.36;620;03.18.08.930
12920;174309;34.36;621;03.18.08.930
12928;174309;34.36;622;03.18.08.930
12904;174300;34.36;623;03.18.08.941
12924;174301;34.36;624;03.18.08.941
d;e;f;03.18.10.212
12924;000887;34.40;625;03.18.10.333
12948;057585;34.40;626;03.18.10.333
12892;073943;34.40;627;03.18.10.333
12928;090322;34.40;628;03.18.10.333
12952;106728;34.40;629;03.18.10.333
12916;123087;34.40;630;03.18.10.333
12908;139500;34.40;631;03.18.10.344
12896;155889;34.40;632;03.18.10.344
12916;172253;34.40;633;03.18.10.355
12924;173945;34.40;634;03.18.10.355
12908;173953;34.40;635;03.18.10.355
12928;173930;34.40;636;03.18.10.355
12924;173938;34.40;637;03.18.10.355
12924;173940;34.40;638;03.18.10.355
12928;173946;34.40;639;03.18.10.355
12928;173940;34.40;640;03.18.10.366
12924;173944;34.40;641;03.18.10.366
12908;173942;34.40;642;03.18.10.366
12916;173941;34.40;643;03.18.10.366
12900;173934;34.40;644;03.18.10.366
12908;173932;34.40;645;03.18.10.366
12908;173933;34.40;646;03.18.10.366
12912;173932;34.40;647;03.18.10.366
12920;173928;34.40;648;03.18.10.366
12928;173924;34.40;649;03.18.10.366
12940;173922;34.40;650;03.18.10.454
12900;173923;34.40;651;03.18.10.455
12928;173922;34.40;652;03.18.10.455
12932;173925;34.40;653;03.18.10.466
12920;173924;34.40;654;03.18.10.466
12932;173931;34.40;655;03.18.10.466
12960;173930;34.40;656;03.18.10.466
12936;173931;34.40;657;03.18.10.466
12932;173928;34.40;658;03.18.10.466
12904;173934;34.40;659;03.18.10.466
12928;173939;34.40;660;03.18.10.466
12908;173943;34.40;661;03.18.10.466
12932;173941;34.40;662;03.18.10.466
12936;173951;34.40;663;03.18.10.466
12932;173949;34.40;664;03.18.10.466
12920;173970;34.40;665;03.18.10.466
12908;173966;34.40;666;03.18.10.467
12912;173963;34.40;667;03.18.10.478
12928;173971;34.40;668;03.18.10.478
12944;173979;34.40;669;03.18.10.478
12904;173982;34.40;670;03.18.10.478
12932;173983;34.40;671;03.18.10.478
12928;173984;34.40;672;03.18.10.478
12920;173994;34.40;673;03.18.10.478
12936;173998;34.40;674;03.18.10.478
12960;173994;34.36;675;03.18.10.576
12952;173999;34.36;676;03.18.10.587
12924;174002;34.36;677;03.18.10.587
12928;173995;34.36;678;03.18.10.587
12932;174012;34.36;679;03.18.10.587
12920;174020;34.36;680;03.18.10.587
12924;174027;34.36;681;03.18.10.587
12936;174033;34.36;682;03.18.10.587
12932;174042;34.36;683;03.18.10.587
12932;174044;34.36;684;03.18.10.587
12908;174059;34.36;685;03.18.10.587
12920;174073;34.36;686;03.18.10.587
12916;174072;34.36;687;03.18.10.587
12920;174095;34.36;688;03.18.10.598
12924;174099;34.36;689;03.18.10.598
12924;174124;34.36;690;03.18.10.598
12924;174137;34.36;691;03.18.10.598
12884;174151;34.36;692;03.18.10.598
12928;174170;34.36;693;03.18.10.598
12932;174192;34.36;694;03.18.10.598
12928;174203;34.36;695;03.18.10.598
12912;174228;34.36;696;03.18.10.598
12928;174253;34.36;697;03.18.10.598
12924;174279;34.36;698;03.18.10.598
12940;174303;34.36;699;03.18.10.598
12916;174319;34.36;700;03.18.10.718
12912;174336;34.36;701;03.18.10.718
12924;174356;34.36;702;03.18.10.718
12924;174378;34.36;703;03.18.10.718
12904;174405;34.36;704;03.18.10.718
12948;174422;34.36;705;03.18.10.718
12904;174442;34.36;706;03.18.10.718
12932;174470;34.36;707;03.18.10.718
12936;174500;34.36;708;03.18.10.718
12928;174533;34.36;709;03.18.10.729
12944;174545;34.36;710;03.18.10.729
12908;174580;34.36;711;03.18.10.729
12908;174618;34.36;712;03.18.10.729
12944;174640;34.36;713;03.18.10.729
12928;174669;34.36;714;03.18.10.729
12924;174700;34.36;715;03.18.10.729
12944;174724;34.36;716;03.18.10.729
12912;174743;34.36;717;03.18.10.729
12900;174766;34.36;718;03.18.10.729
12892;174780;34.36;719;03.18.10.729
12916;174800;34.36;720;03.18.10.729
12924;174827;34.36;721;03.18.10.729
12908;174851;34.36;722;03.18.10.729
12928;174874;34.36;723;03.18.10.740
12928;174887;34.36;724;03.18.10.740
12928;174897;34.36;725;03.18.10.828
12928;174926;34.36;726;03.18.10.828
12908;174954;34.36;727;03.18.10.828
12968;174973;34.36;728;03.18.10.828
12892;174999;34.36;729;03.18.10.828
12944;175022;34.36;730;03.18.10.828
12904;175028;34.36;731;03.18.10.839
12924;175049;34.36;732;03.18.10.839
12892;175057;34.36;733;03.18.10.839
12920;175069;34.36;734;03.18.10.839
12928;175063;34.36;735;03.18.10.839
12916;175066;34.36;736;03.18.10.839
12924;175078;34.36;737;03.18.10.839
12928;175074;34.36;738;03.18.10.850
12920;175069;34.36;739;03.18.10.850
12916;175065;34.36;740;03.18.10.850
12936;175063;34.36;741;03.18.10.850
12936;175056;34.36;742;03.18.10.850
12908;175050;34.36;743;03.18.10.850
12936;175057;34.36;744;03.18.10.850
12928;175056;34.36;745;03.18.10.850
12912;175056;34.36;746;03.18.10.850
12952;175062;34.36;747;03.18.10.850
12924;175059;34.36;748;03.18.10.861
12940;175066;34.36;749;03.18.10.861
12908;175082;34.36;750;03.18.10.949
12908;175083;34.36;751;03.18.10.949
12904;175096;34.36;752;03.18.10.949
12908;175113;34.36;753;03.18.10.960
12916;175120;34.36;754;03.18.10.960
12916;175150;34.36;755;03.18.10.960
12932;175151;34.36;756;03.18.10.960
12920;175170;34.36;757;03.18.10.960
12928;175183;34.36;758;03.18.10.971
12892;175195;34.36;759;03.18.10.982
12916;175207;34.36;760;03.18.10.982
12948;175219;34.36;761;03.18.10.982
12928;175248;34.36;762;03.18.10.982
12928;175246;34.36;763;03.18.10.982
12920;175252;34.36;764;03.18.10.982
12932;175267;34.36;765;03.18.10.982
12928;175274;34.36;766;03.18.10.982
12968;175281;34.36;767;03.18.10.982
12948;175291;34.36;768;03.18.10.982
12932;175300;34.36;769;03.18.10.982
12908;175293;34.36;770;03.18.10.993
12908;175298;34.36;771;03.18.10.993
12932;175307;34.36;772;03.18.10.993
12928;175305;34.36;773;03.18.10.993
12940;175311;34.36;774;03.18.10.993
12928;175319;34.36;775;03.18.11.081
12960;175332;34.36;776;03.18.11.081
12944;175330;34.36;777;03.18.11.081
12940;175334;34.36;778;03.18.11.081
12920;175342;34.36;779;03.18.11.081
12944;175350;34.36;780;03.18.11.081
12936;175349;34.36;781;03.18.11.081
12924;175359;34.36;782;03.18.11.081
12908;175366;34.36;783;03.18.11.081
12948;175367;34.36;784;03.18.11.081
12928;175368;34.36;785;03.18.11.081
12928;175367;34.36;786;03.18.11.081
12924;175377;34.36;787;03.18.11.092
12920;175381;34.36;788;03.18.11.092
12936;175380;34.36;789;03.18.11.092
12932;175395;34.36;790;03.18.11.092
12928;175390;34.36;791;03.18.11.092
12952;175397;34.36;792;03.18.11.092
12944;175403;34.36;793;03.18.11.092
12924;175412;34.36;794;03.18.11.092
12928;175419;34.36;795;03.18.11.092
12892;175418;34.36;796;03.18.11.092
12908;175426;34.36;797;03.18.11.092
12948;175428;34.36;798;03.18.11.092
12928;175429;34.36;799;03.18.11.092
12932;175444;34.36;800;03.18.11.212
12940;175447;34.36;801;03.18.11.212
12936;175455;34.36;802;03.18.11.212
12960;175458;34.36;803;03.18.11.212
12936;175472;34.36;804;03.18.11.212
12960;175487;34.36;805;03.18.11.212
12940;175485;34.36;806;03.18.11.212
12928;175496;34.36;807;03.18.11.212
12944;175504;34.36;808;03.18.11.223
12928;175499;34.36;809;03.18.11.223
12924;175501;34.36;810;03.18.11.223
12924;175511;34.36;811;03.18.11.223
12924;175520;34.36;812;03.18.11.223
12928;175524;34.36;813;03.18.11.223
12912;175520;34.36;814;03.18.11.223
12924;175523;34.36;815;03.18.11.223
12948;175527;34.36;816;03.18.11.223
12932;175519;34.36;817;03.18.11.223
12924;175522;34.36;818;03.18.11.223
12912;175522;34.36;819;03.18.11.223
12920;175521;34.36;820;03.18.11.223
12944;175511;34.36;821;03.18.11.234
12932;175515;34.36;822;03.18.11.234
12940;175521;34.36;823;03.18.11.234
12936;175518;34.36;824;03.18.11.234
12960;175528;34.36;825;03.18.11.344
12928;175531;34.36;826;03.18.11.344
12932;175549;34.36;827;03.18.11.344
12928;175549;34.36;828;03.18.11.344
12932;175549;34.36;829;03.18.11.355
12916;175565;34.36;830;03.18.11.355
12928;175559;34.36;831;03.18.11.355
12892;175571;34.36;832;03.18.11.355
12940;175568;34.36;833;03.18.11.355
12924;175573;34.36;834;03.18.11.355
12928;175566;34.36;835;03.18.11.355
12928;175567;34.36;836;03.18.11.355
12912;175572;34.36;837;03.18.11.355
12936;175565;34.36;838;03.18.11.355
12928;175565;34.36;839;03.18.11.355
12940;175571;34.36;840;03.18.11.355
12936;175568;34.36;841;03.18.11.355
12932;175562;34.36;842;03.18.11.366
12932;175556;34.36;843;03.18.11.366
12928;175532;34.36;844;03.18.11.366
12908;175531;34.36;845;03.18.11.366
12932;175519;34.36;846;03.18.11.366
12936;175511;34.36;847;03.18.11.366
12932;175502;34.36;848;03.18.11.366
12936;175507;34.36;849;03.18.11.366
12932;175497;34.36;850;03.18.11.465
12948;175492;34.36;851;03.18.11.465
12920;175482;34.36;852;03.18.11.465
12916;175482;34.36;853;03.18.11.465
12932;175484;34.36;854;03.18.11.465
12932;175481;34.36;855;03.18.11.465
12924;175472;34.36;856;03.18.11.465
12908;175487;34.36;857;03.18.11.465
12912;175483;34.36;858;03.18.11.476
12892;175481;34.36;859;03.18.11.476
12924;175488;34.36;860;03.18.11.476
12928;175493;34.36;861;03.18.11.476
12916;175503;34.36;862;03.18.11.476
12916;175504;34.36;863;03.18.11.476
12940;175505;34.36;864;03.18.11.476
12920;175504;34.36;865;03.18.11.476
12924;175507;34.36;866;03.18.11.476
12940;175521;34.36;867;03.18.11.476
12944;175529;34.36;868;03.18.11.476
12908;175532;34.36;869;03.18.11.476
12920;175535;34.36;870;03.18.11.476
12936;175539;34.36;871;03.18.11.486
12960;175537;34.36;872;03.18.11.486
12916;175547;34.36;873;03.18.11.486
12920;175554;34.36;874;03.18.11.486
12916;175566;34.36;875;03.18.11.596
12904;175569;34.36;876;03.18.11.596
12940;175588;34.36;877;03.18.11.596
12944;175592;34.36;878;03.18.11.596
12924;175587;34.36;879;03.18.11.596
12896;175601;34.36;880;03.18.11.596
12920;175603;34.36;881;03.18.11.596
12920;175604;34.36;882;03.18.11.596
12936;175615;34.36;883;03.18.11.596
12928;175611;34.36;884;03.18.11.596
12932;175616;34.36;885;03.18.11.607
12920;175625;34.36;886;03.18.11.607
12908;175633;34.36;887;03.18.11.607
12960;175630;34.36;888;03.18.11.607
12944;175636;34.36;889;03.18.11.607
12928;175641;34.36;890;03.18.11.607
12928;175645;34.36;891;03.18.11.607
12920;175639;34.36;892;03.18.11.629
12892;175649;34.36;893;03.18.11.629
12928;175648;34.36;894;03.18.11.629
12932;175643;34.36;895;03.18.11.629
12932;175642;34.36;896;03.18.11.629
12928;175636;34.36;897;03.18.11.629
12908;175639;34.36;898;03.18.11.629
12956;175634;34.36;899;03.18.11.629
12904;175633;34.36;900;03.18.11.706
12924;175643;34.36;901;03.18.11.706
12940;175645;34.36;902;03.18.11.706
12928;175647;34.36;903;03.18.11.706
12932;175651;34.36;904;03.18.11.706
12960;175653;34.36;905;03.18.11.706
12924;175658;34.36;906;03.18.11.717
12936;175652;34.36;907;03.18.11.717
12952;175657;34.36;908;03.18.11.717
12952;175654;34.36;909;03.18.11.717
12928;175651;34.36;910;03.18.11.717
12936;175652;34.36;911;03.18.11.717
12952;175647;34.36;912;03.18.11.717
12912;175647;34.36;913;03.18.11.717
12936;175644;34.36;914;03.18.11.717
12924;175641;34.36;915;03.18.11.717
12964;175633;34.36;916;03.18.11.717
12940;175632;34.36;917;03.18.11.717
12944;175624;34.36;918;03.18.11.717
12940;175619;34.36;919;03.18.11.728
12924;175616;34.36;920;03.18.11.728
12956;175601;34.36;921;03.18.11.728
12916;175589;34.36;922;03.18.11.728
12920;175578;34.36;923;03.18.11.728
12932;175565;34.36;924;03.18.11.728
12908;175555;34.36;925;03.18.11.838
12944;175538;34.36;926;03.18.11.838
12920;175530;34.36;927;03.18.11.838
12936;175512;34.36;928;03.18.11.849
12920;175487;34.36;929;03.18.11.849
12924;175471;34.36;930;03.18.11.849
12912;175468;34.36;931;03.18.11.849
12912;175442;34.36;932;03.18.11.849
12936;175432;34.36;933;03.18.11.849
12928;175431;34.36;934;03.18.11.849
12936;175420;34.36;935;03.18.11.849
12928;175413;34.36;936;03.18.11.849
12920;175398;34.36;937;03.18.11.849
12976;175399;34.36;938;03.18.11.849
12912;175390;34.36;939;03.18.11.849
12904;175379;34.36;940;03.18.11.859
12928;175370;34.36;941;03.18.11.859
12928;175370;34.36;942;03.18.11.859
12928;175366;34.36;943;03.18.11.859
12892;175371;34.36;944;03.18.11.859
12928;175367;34.36;945;03.18.11.859
12936;175367;34.36;946;03.18.11.859
12928;175374;34.36;947;03.18.11.859
12912;175376;34.36;948;03.18.11.859
12924;175385;34.36;949;03.18.11.859
12940;175392;34.36;950;03.18.11.958
12920;175395;34.36;951;03.18.11.958
12916;175405;34.36;952;03.18.11.958
12936;175403;34.36;953;03.18.11.958
12912;175414;34.36;954;03.18.11.958
12920;175418;34.36;955;03.18.11.958
12932;175432;34.36;956;03.18.11.958
12916;175431;34.36;957;03.18.11.958
12944;175436;34.36;958;03.18.11.980
12944;175440;34.36;959;03.18.11.980
12936;175441;34.36;960;03.18.11.980
12916;175447;34.36;961;03.18.11.980
12944;175447;34.36;962;03.18.11.980
12928;175458;34.36;963;03.18.11.980
12968;175454;34.36;964;03.18.11.980
12928;175459;34.36;965;03.18.11.980
12928;175462;34.36;966;03.18.11.980
12912;175479;34.36;967;03.18.11.980
12944;175467;34.36;968;03.18.11.980
12916;175473;34.36;969;03.18.11.980
12908;175485;34.36;970;03.18.11.990
12936;175489;34.36;971;03.18.11.990
12960;175489;34.36;972;03.18.11.990
12940;175498;34.36;973;03.18.11.990
12960;175500;34.36;974;03.18.11.990
12944;175494;34.36;975;03.18.12.080
12916;175510;34.36;976;03.18.12.080
12948;175515;34.36;977;03.18.12.080
12928;175511;34.36;978;03.18.12.080
12908;175506;34.36;979;03.18.12.080
12960;175514;34.36;980;03.18.12.080
12908;175506;34.36;981;03.18.12.080
12904;175509;34.36;982;03.18.12.080
12916;175510;34.36;983;03.18.12.080
12924;175513;34.36;984;03.18.12.080
12952;175525;34.36;985;03.18.12.080
12960;175525;34.36;986;03.18.12.092
12932;175520;34.36;987;03.18.12.092
12916;175520;34.36;988;03.18.12.092
12908;175519;34.36;989;03.18.12.092
12936;175522;34.36;990;03.18.12.092
12916;175523;34.36;991;03.18.12.092
12932;175508;34.36;992;03.18.12.092
12952;175512;34.36;993;03.18.12.092
12932;175507;34.36;994;03.18.12.092
12924;175514;34.36;995;03.18.12.092
12936;175506;34.36;996;03.18.12.092
12912;175508;34.36;997;03.18.12.092
12960;175499;34.36;998;03.18.12.092
12960;175497;34.36;999;03.18.12.103
12936;175495;34.36;000;03.18.12.213
12924;175501;34.36;001;03.18.12.213
12904;175498;34.36;002;03.18.12.213
12936;175496;34.36;003;03.18.12.213
12928;175479;34.36;004;03.18.12.213
12916;175490;34.36;005;03.18.12.213
12932;175476;34.36;006;03.18.12.213
12924;175476;34.36;007;03.18.12.224
12928;175467;34.36;008;03.18.12.224
12924;175467;34.36;009;03.18.12.224
12920;175463;34.36;010;03.18.12.224
12900;175458;34.36;011;03.18.12.224
12928;175449;34.36;012;03.18.12.224
12908;175445;34.36;013;03.18.12.224
12924;175442;34.36;014;03.18.12.224
12908;175429;34.36;015;03.18.12.224
12908;175429;34.36;016;03.18.12.235
12940;175436;34.36;017;03.18.12.235
12936;175428;34.36;018;03.18.12.235
12944;175427;34.36;019;03.18.12.235
12928;175417;34.36;020;03.18.12.235
12948;175417;34.36;021;03.18.12.235
12912;175427;34.36;022;03.18.12.235
12944;175428;34.36;023;03.18.12.235
12964;175428;34.36;024;03.18.12.235
12944;175422;34.36;025;03.18.12.344
12948;175421;34.36;026;03.18.12.344
12952;175416;34.36;027;03.18.12.344
12916;175421;34.36;028;03.18.12.355
12944;175414;34.36;029;03.18.12.355
12936;175428;34.36;030;03.18.12.355
12948;175432;34.36;031;03.18.12.355
12956;175427;34.36;032;03.18.12.355
12952;175428;34.36;033;03.18.12.355
12928;175429;34.36;034;03.18.12.355
12892;175434;34.36;035;03.18.12.355
12896;175442;34.36;036;03.18.12.355
12916;175444;34.36;037;03.18.12.355
12904;175444;34.36;038;03.18.12.355
12888;175444;34.36;039;03.18.12.355
12916;175445;34.36;040;03.18.12.355
12892;175454;34.36;041;03.18.12.366
12892;175448;34.36;042;03.18.12.366
12932;175460;34.36;043;03.18.12.366
12924;175466;34.36;044;03.18.12.366
12932;175472;34.36;045;03.18.12.366
12908;175464;34.36;046;03.18.12.366
12944;175479;34.36;047;03.18.12.366
12916;175481;34.36;048;03.18.12.366
12952;175481;34.36;049;03.18.12.366
12892;175486;34.36;050;03.18.12.486
12908;175499;34.36;051;03.18.12.486
12936;175500;34.36;052;03.18.12.486
12932;175495;34.36;053;03.18.12.486
12924;175505;34.36;054;03.18.12.486
12928;175505;34.36;055;03.18.12.486
12908;175509;34.36;056;03.18.12.486
12952;175519;34.36;057;03.18.12.486
12920;175502;34.36;058;03.18.12.486
12916;175508;34.36;059;03.18.12.486
12920;175517;34.36;060;03.18.12.486
12940;175509;34.36;061;03.18.12.486
12956;175514;34.36;062;03.18.12.497
12932;175502;34.36;063;03.18.12.497
12940;175505;34.36;064;03.18.12.497
12936;175503;34.36;065;03.18.12.497
12936;175497;34.36;066;03.18.12.497
12940;175496;34.36;067;03.18.12.508
12956;175503;34.36;068;03.18.12.508
12968;175496;34.36;069;03.18.12.508
12940;175490;34.36;070;03.18.12.508
12960;175482;34.36;071;03.18.12.508
12960;175482;34.36;072;03.18.12.508
12924;175476;34.36;073;03.18.12.508
12948;175474;34.36;074;03.18.12.508
12960;175466;34.36;075;03.18.12.585
12944;175466;34.36;076;03.18.12.585
12952;175465;34.36;077;03.18.12.585
12916;175456;34.36;078;03.18.12.585
12936;175458;34.36;079;03.18.12.585
12936;175458;34.36;080;03.18.12.585
12936;175453;34.36;081;03.18.12.585
12968;175451;34.36;082;03.18.12.585
12944;175458;34.36;083;03.18.12.618
12928;175439;34.36;084;03.18.12.618
12952;175440;34.36;085;03.18.12.618
12940;175438;34.36;086;03.18.12.618
12928;175441;34.36;087;03.18.12.618
12940;175436;34.36;088;03.18.12.618
12936;175436;34.36;089;03.18.12.618
12932;175438;34.36;090;03.18.12.618
12944;175439;34.36;091;03.18.12.629
12952;175440;34.36;092;03.18.12.629
12908;175436;34.36;093;03.18.12.629
12952;175434;34.36;094;03.18.12.629
12908;175425;34.36;095;03.18.12.629
12936;175424;34.36;096;03.18.12.629
12952;175429;34.36;097;03.18.12.629
12920;175419;34.36;098;03.18.12.629
12952;175413;34.36;099;03.18.12.629
12932;175406;34.36;100;03.18.12.706
12928;175403;34.36;101;03.18.12.706
12912;175396;34.36;102;03.18.12.706
12924;175401;34.36;103;03.18.12.706
12920;175393;34.36;104;03.18.12.717
12920;175387;34.36;105;03.18.12.717
12960;175389;34.36;106;03.18.12.717
12908;175385;34.36;107;03.18.12.717
12924;175383;34.36;108;03.18.12.717
12936;175368;34.36;109;03.18.12.717
12920;175368;34.36;110;03.18.12.717
12932;175356;34.36;111;03.18.12.717
12956;175358;34.36;112;03.18.12.717
12904;175362;34.36;113;03.18.12.717
12936;175344;34.36;114;03.18.12.717
12928;175337;34.36;115;03.18.12.717
12908;175337;34.36;116;03.18.12.717
12936;175331;34.36;117;03.18.12.717
12928;175325;34.36;118;03.18.12.728
12956;175316;34.36;119;03.18.12.728
12936;175322;34.36;120;03.18.12.728
12908;175310;34.36;121;03.18.12.728
12960;175316;34.36;122;03.18.12.728
12920;175303;34.36;123;03.18.12.728
12948;175316;34.36;124;03.18.12.728
12904;175310;34.36;125;03.18.12.837
12936;175311;34.36;126;03.18.12.848
12944;175305;34.36;127;03.18.12.848
12944;175299;34.36;128;03.18.12.848
12944;175295;34.36;129;03.18.12.848
12940;175296;34.36;130;03.18.12.848
12916;175291;34.36;131;03.18.12.848
12936;175296;34.36;132;03.18.12.848
12908;175293;34.36;133;03.18.12.848
12920;175292;34.36;134;03.18.12.848
12916;175287;34.36;135;03.18.12.848
12932;175285;34.36;136;03.18.12.848
12932;175284;34.36;137;03.18.12.848
12944;175282;34.36;138;03.18.12.859
12936;175280;34.36;139;03.18.12.859
12932;175280;34.36;140;03.18.12.859
12932;175284;34.36;141;03.18.12.859
12920;175272;34.36;142;03.18.12.859
12904;175278;34.36;143;03.18.12.859
12932;175275;34.36;144;03.18.12.859
12892;175275;34.36;145;03.18.12.859
12948;175285;34.36;146;03.18.12.859
12956;175278;34.36;147;03.18.12.859
12932;175280;34.36;148;03.18.12.859
12932;175298;34.36;149;03.18.12.859
12896;175293;34.36;150;03.18.12.958
12948;175298;34.36;151;03.18.12.958
12924;175297;34.36;152;03.18.12.958
12952;175297;34.36;153;03.18.12.958
12960;175303;34.36;154;03.18.12.958
12908;175302;34.36;155;03.18.12.958
12916;175296;34.36;156;03.18.12.958
12916;175289;34.36;157;03.18.12.958
12936;175311;34.36;158;03.18.12.979
12944;175302;34.36;159;03.18.12.979
12932;175314;34.36;160;03.18.12.979
12928;175317;34.36;161;03.18.12.979
12936;175316;34.36;162;03.18.12.979
12924;175322;34.36;163;03.18.12.979
12940;175315;34.36;164;03.18.12.979
12944;175318;34.36;165;03.18.12.979
12940;175330;34.36;166;03.18.12.979
12944;175331;34.36;167;03.18.12.990
12924;175328;34.36;168;03.18.12.990
12924;175324;34.36;169;03.18.12.990
12944;175331;34.36;170;03.18.12.990
12908;175330;34.36;171;03.18.12.990
12920;175330;34.36;172;03.18.12.990
12960;175335;34.36;173;03.18.12.990
12948;175342;34.36;174;03.18.12.990
12940;175340;34.36;175;03.18.13.078
12900;175340;34.36;176;03.18.13.078
12908;175338;34.36;177;03.18.13.078
12924;175343;34.36;178;03.18.13.078
12908;175349;34.36;179;03.18.13.078
12948;175336;34.36;180;03.18.13.078
12936;175341;34.36;181;03.18.13.089
12904;175347;34.36;182;03.18.13.089
12944;175343;34.36;183;03.18.13.089
12916;175344;34.36;184;03.18.13.089
12940;175342;34.36;185;03.18.13.089
12932;175350;34.36;186;03.18.13.089
12944;175341;34.36;187;03.18.13.089
12940;175349;34.36;188;03.18.13.089
12928;175337;34.36;189;03.18.13.089
12904;175340;34.36;190;03.18.13.100
12916;175343;34.36;191;03.18.13.100
12940;175341;34.36;192;03.18.13.111
12936;175334;34.36;193;03.18.13.111
12936;175343;34.36;194;03.18.13.111
12932;175346;34.36;195;03.18.13.111
12948;175352;34.36;196;03.18.13.111
12928;175346;34.36;197;03.18.13.122
12960;175347;34.36;198;03.18.13.122
12908;175353;34.36;199;03.18.13.122
12920;175353;34.36;200;03.18.13.198
12924;175353;34.36;201;03.18.13.209
12912;175360;34.36;202;03.18.13.209
12928;175362;34.36;203;03.18.13.209
12916;175364;34.36;204;03.18.13.209
12916;175365;34.36;205;03.18.13.209
12924;175381;34.36;206;03.18.13.209
12968;175368;34.36;207;03.18.13.209
12928;175381;34.36;208;03.18.13.209
12920;175377;34.36;209;03.18.13.209
12928;175375;34.36;210;03.18.13.209
12916;175380;34.36;211;03.18.13.209
12928;175377;34.36;212;03.18.13.209
12940;175383;34.36;213;03.18.13.209
12920;175390;34.36;214;03.18.13.220
12932;175388;34.36;215;03.18.13.220
12944;175387;34.36;216;03.18.13.220
12936;175381;34.36;217;03.18.13.220
12924;175391;34.36;218;03.18.13.220
12928;175384;34.36;219;03.18.13.220
12928;175380;34.36;220;03.18.13.220
12924;175382;34.36;221;03.18.13.220
12916;175392;34.36;222;03.18.13.220
12920;175387;34.36;223;03.18.13.220
12948;175394;34.36;224;03.18.13.220
12920;175395;34.40;225;03.18.13.341
12928;175392;34.40;226;03.18.13.341
12932;175394;34.40;227;03.18.13.341
12936;175390;34.40;228;03.18.13.341
12928;175406;34.40;229;03.18.13.341
12936;175394;34.40;230;03.18.13.341
12916;175386;34.40;231;03.18.13.341
12916;175381;34.40;232;03.18.13.341
12936;175393;34.40;233;03.18.13.341
12936;175388;34.40;234;03.18.13.341
12944;175390;34.40;235;03.18.13.341
12936;175384;34.40;236;03.18.13.352
12940;175382;34.40;237;03.18.13.352
12948;175386;34.40;238;03.18.13.352
12924;175387;34.40;239;03.18.13.352
12920;175392;34.40;240;03.18.13.352
12944;175385;34.40;241;03.18.13.352
12932;175391;34.40;242;03.18.13.352
12948;175387;34.40;243;03.18.13.352
12932;175380;34.40;244;03.18.13.352
12932;175387;34.40;245;03.18.13.352
12924;175390;34.40;246;03.18.13.352
12928;175382;34.40;247;03.18.13.352
12924;175389;34.40;248;03.18.13.363
12972;175380;34.40;249;03.18.13.363
12960;175391;34.40;250;03.18.13.473
12904;175388;34.40;251;03.18.13.473
12892;175389;34.40;252;03.18.13.473
12944;175398;34.40;253;03.18.13.473
12952;175394;34.40;254;03.18.13.473
12920;175403;34.40;255;03.18.13.473
12916;175397;34.40;256;03.18.13.473
12944;175407;34.40;257;03.18.13.484
12912;175406;34.40;258;03.18.13.484
12924;175406;34.40;259;03.18.13.484
12924;175410;34.40;260;03.18.13.484
12924;175408;34.40;261;03.18.13.484
12916;175413;34.40;262;03.18.13.484
12940;175418;34.40;263;03.18.13.484
12928;175425;34.40;264;03.18.13.484
12940;175408;34.40;265;03.18.13.484
12916;175410;34.40;266;03.18.13.484
12928;175417;34.40;267;03.18.13.484
12916;175414;34.40;268;03.18.13.484
12924;175415;34.40;269;03.18.13.484
12940;175413;34.40;270;03.18.13.494
12928;175418;34.40;271;03.18.13.494
12940;175423;34.40;272;03.18.13.494
12928;175428;34.40;273;03.18.13.494
12924;175413;34.40;274;03.18.13.494
12908;175419;34.40;275;03.18.13.614
12928;175414;34.40;276;03.18.13.614
12912;175410;34.40;277;03.18.13.625
12924;175404;34.40;278;03.18.13.625
12940;175413;34.40;279;03.18.13.625
12924;175410;34.40;280;03.18.13.625
12932;175418;34.40;281;03.18.13.625
12928;175419;34.40;282;03.18.13.625
12924;175411;34.40;283;03.18.13.625
12916;175425;34.40;284;03.18.13.625
12904;175410;34.40;285;03.18.13.636
12928;175409;34.40;286;03.18.13.636
12888;175412;34.40;287;03.18.13.636
12960;175408;34.40;288;03.18.13.636
12928;175410;34.40;289;03.18.13.636
12912;175407;34.40;290;03.18.13.636
12932;175418;34.40;291;03.18.13.636
12928;175406;34.40;292;03.18.13.647
12948;175414;34.40;293;03.18.13.658
12920;175415;34.40;294;03.18.13.658
12948;175408;34.40;295;03.18.13.658
12924;175409;34.40;296;03.18.13.658
12916;175404;34.40;297;03.18.13.658
12924;175406;34.40;298;03.18.13.658
12936;175413;34.40;299;03.18.13.658
12912;175416;34.40;300;03.18.13.713
12932;175420;34.40;301;03.18.13.713
12928;175421;34.40;302;03.18.13.713
12944;175417;34.40;303;03.18.13.713
12948;175425;34.40;304;03.18.13.713
12944;175410;34.40;305;03.18.13.713
12944;175412;34.40;306;03.18.13.713
12912;175420;34.40;307;03.18.13.713
12928;175422;34.40;308;03.18.13.724
12948;175418;34.40;309;03.18.13.724
12932;175413;34.40;310;03.18.13.724
12932;175417;34.40;311;03.18.13.724
12932;175420;34.40;312;03.18.13.724
12944;175415;34.40;313;03.18.13.724
12936;175414;34.40;314;03.18.13.724
12916;175422;34.40;315;03.18.13.724
12916;175424;34.40;316;03.18.13.724
12928;175420;34.40;317;03.18.13.746
12928;175422;34.40;318;03.18.13.746
12892;175415;34.40;319;03.18.13.746
12932;175420;34.40;320;03.18.13.746
12944;175420;34.40;321;03.18.13.746
12928;175421;34.40;322;03.18.13.746
12932;175417;34.40;323;03.18.13.746
12932;175421;34.40;324;03.18.13.746
12928;175414;34.40;325;03.18.13.834
12920;175418;34.40;326;03.18.13.834
12908;175424;34.40;327;03.18.13.834
12944;175423;34.40;328;03.18.13.834
12940;175420;34.40;329;03.18.13.834
12960;175418;34.40;330;03.18.13.834
12920;175416;34.40;331;03.18.13.834
12896;175413;34.40;332;03.18.13.834
12924;175409;34.40;333;03.18.13.834
12932;175416;34.40;334;03.18.13.835
12928;175409;34.40;335;03.18.13.846
12928;175407;34.40;336;03.18.13.846
12912;175406;34.40;337;03.18.13.846
12928;175411;34.40;338;03.18.13.846
12924;175407;34.40;339;03.18.13.846
12908;175412;34.40;340;03.18.13.846
12912;175398;34.40;341;03.18.13.846
12932;175410;34.40;342;03.18.13.846
12960;175406;34.40;343;03.18.13.846
12944;175401;34.40;344;03.18.13.846
12928;175400;34.40;345;03.18.13.846
12928;175402;34.40;346;03.18.13.846
12920;175398;34.40;347;03.18.13.857
12928;175400;34.40;348;03.18.13.857
12936;175400;34.40;349;03.18.13.857
12920;175393;34.40;350;03.18.13.965
12900;175388;34.40;351;03.18.13.965
12904;175390;34.40;352;03.18.13.965
12920;175392;34.40;353;03.18.13.965
12960;175385;34.40;354;03.18.13.975
12916;175388;34.40;355;03.18.13.975
12920;175378;34.40;356;03.18.13.975
12908;175376;34.40;357;03.18.13.975
12916;175382;34.40;358;03.18.13.975
12920;175372;34.40;359;03.18.13.975
12952;175373;34.40;360;03.18.13.975
12944;175370;34.40;361;03.18.13.975
12928;175363;34.40;362;03.18.13.975
12892;175371;34.40;363;03.18.13.975
12924;175370;34.40;364;03.18.13.975
12932;175368;34.40;365;03.18.13.975
12944;175364;34.40;366;03.18.13.975
12908;175359;34.40;367;03.18.13.987
12960;175362;34.40;368;03.18.13.987
12916;175357;34.40;369;03.18.13.987
12924;175351;34.40;370;03.18.13.987
12908;175362;34.40;371;03.18.13.987
12904;175356;34.40;372;03.18.13.987
12960;175356;34.40;373;03.18.13.987
12924;175359;34.40;374;03.18.13.987
12928;175360;34.36;375;03.18.14.084
12908;175364;34.36;376;03.18.14.084
12928;175357;34.36;377;03.18.14.084
12924;175355;34.36;378;03.18.14.084
12924;175360;34.36;379;03.18.14.084
12944;175357;34.36;380;03.18.14.084
12924;175363;34.36;381;03.18.14.084
12932;175367;34.36;382;03.18.14.084
12916;175362;34.36;383;03.18.14.084
12904;175365;34.36;384;03.18.14.095
12944;175368;34.36;385;03.18.14.095
12892;175354;34.36;386;03.18.14.095
12920;175362;34.36;387;03.18.14.095
12940;175366;34.36;388;03.18.14.095
12924;175368;34.36;389;03.18.14.095
12932;175371;34.36;390;03.18.14.095
12932;175371;34.36;391;03.18.14.095
12928;175373;34.36;392;03.18.14.128
12944;175373;34.36;393;03.18.14.128
12928;175368;34.36;394;03.18.14.128
12920;175363;34.36;395;03.18.14.128
12928;175366;34.36;396;03.18.14.128
12912;175369;34.36;397;03.18.14.128
12924;175371;34.36;398;03.18.14.128
12940;175373;34.36;399;03.18.14.128
12948;175368;34.36;400;03.18.14.205
12944;175373;34.36;401;03.18.14.205
12908;175377;34.36;402;03.18.14.205
12908;175378;34.36;403;03.18.14.205
12928;175381;34.36;404;03.18.14.205
12928;175370;34.36;405;03.18.14.205
12920;175377;34.36;406;03.18.14.205
12928;175388;34.36;407;03.18.14.205
12928;175375;34.36;408;03.18.14.215
12920;175389;34.36;409;03.18.14.215
12916;175379;34.36;410;03.18.14.215
12936;175382;34.36;411;03.18.14.215
12936;175387;34.36;412;03.18.14.215
12932;175394;34.36;413;03.18.14.215
12916;175398;34.36;414;03.18.14.215
12928;175384;34.36;415;03.18.14.215
12932;175388;34.36;416;03.18.14.215
12920;175393;34.36;417;03.18.14.215
12916;175400;34.36;418;03.18.14.215
12916;175401;34.36;419;03.18.14.215
12932;175398;34.36;420;03.18.14.215
12936;175406;34.36;421;03.18.14.226
12928;175408;34.36;422;03.18.14.226
12932;175400;34.36;423;03.18.14.226
12936;175399;34.36;424;03.18.14.226
12920;175406;34.40;425;03.18.14.325
12936;175398;34.40;426;03.18.14.325
12908;175401;34.40;427;03.18.14.325
12928;175391;34.40;428;03.18.14.336
12928;175401;34.40;429;03.18.14.336
12908;175386;34.40;430;03.18.14.336
12920;175388;34.40;431;03.18.14.336
12920;175393;34.40;432;03.18.14.336
12960;175380;34.40;433;03.18.14.336
12964;175383;34.40;434;03.18.14.336
12948;175377;34.40;435;03.18.14.336
12908;175372;34.40;436;03.18.14.336
12936;175376;34.40;437;03.18.14.336
12924;175366;34.40;438;03.18.14.347
12940;175373;34.40;439;03.18.14.347
12928;175369;34.40;440;03.18.14.347
12932;175359;34.40;441;03.18.14.347
12928;175361;34.40;442;03.18.14.347
12932;175363;34.40;443;03.18.14.347
12916;175361;34.40;444;03.18.14.347
12944;175366;34.40;445;03.18.14.347
12892;175364;34.40;446;03.18.14.347
12940;175356;34.40;447;03.18.14.347
12944;175357;34.40;448;03.18.14.347
12952;175343;34.40;449;03.18.14.347
12900;175355;34.40;450;03.18.14.468
12944;175352;34.40;451;03.18.14.468
12932;175348;34.40;452;03.18.14.468
12908;175341;34.40;453;03.18.14.468
12956;175346;34.40;454;03.18.14.468
12952;175345;34.40;455;03.18.14.468
12912;175334;34.40;456;03.18.14.468
12888;175326;34.40;457;03.18.14.468
12908;175327;34.40;458;03.18.14.468
12944;175322;34.40;459;03.18.14.468
12924;175324;34.40;460;03.18.14.468
12948;175318;34.40;461;03.18.14.468
12924;175323;34.40;462;03.18.14.468
12944;175319;34.40;463;03.18.14.479
12924;175321;34.40;464;03.18.14.479
12908;175324;34.40;465;03.18.14.479
12944;175330;34.40;466;03.18.14.479
12944;175322;34.40;467;03.18.14.490
12928;175330;34.40;468;03.18.14.490
12948;175332;34.40;469;03.18.14.490
12928;175324;34.40;470;03.18.14.490
12916;175325;34.40;471;03.18.14.490
12960;175318;34.40;472;03.18.14.490
12904;175319;34.40;473;03.18.14.490
12956;175324;34.40;474;03.18.14.490
12924;175323;34.36;475;03.18.14.599
12920;175326;34.36;476;03.18.14.599
12964;175329;34.36;477;03.18.14.599
12944;175336;34.36;478;03.18.14.599
12928;175327;34.36;479;03.18.14.599
12936;175335;34.36;480;03.18.14.599
12944;175328;34.36;481;03.18.14.599
12952;175331;34.36;482;03.18.14.599
12956;175332;34.36;483;03.18.14.599
12944;175329;34.36;484;03.18.14.610
12908;175323;34.36;485;03.18.14.610
12884;175316;34.36;486;03.18.14.610
12916;175319;34.36;487;03.18.14.610
12940;175328;34.36;488;03.18.14.610
12904;175334;34.36;489;03.18.14.610
12912;175330;34.36;490;03.18.14.610
12920;175330;34.36;491;03.18.14.610
12936;175338;34.36;492;03.18.14.610
12920;175321;34.36;493;03.18.14.610
12932;175339;34.36;494;03.18.14.610
12888;175334;34.36;495;03.18.14.610
12920;175324;34.36;496;03.18.14.610
12992;175322;34.36;497;03.18.14.621
12948;175331;34.36;498;03.18.14.621
12944;175338;34.36;499;03.18.14.621
12924;175319;34.36;500;03.18.14.731
12928;175332;34.36;501;03.18.14.731
12916;175320;34.36;502;03.18.14.731
12932;175325;34.36;503;03.18.14.731
12928;175319;34.36;504;03.18.14.731
12916;175322;34.36;505;03.18.14.731
12940;175325;34.36;506;03.18.14.742
12912;175332;34.36;507;03.18.14.742
12916;175331;34.36;508;03.18.14.742
12936;175322;34.36;509;03.18.14.742
12924;175313;34.36;510;03.18.14.742
12968;175322;34.36;511;03.18.14.742
12932;175316;34.36;512;03.18.14.742
12908;175323;34.36;513;03.18.14.742
12940;175308;34.36;514;03.18.14.742
12916;175314;34.36;515;03.18.14.742
12940;175309;34.36;516;03.18.14.742
12944;175311;34.36;517;03.18.14.742
12976;175311;34.36;518;03.18.14.742
12908;175311;34.36;519;03.18.14.753
12936;175303;34.36;520;03.18.14.753
12916;175315;34.36;521;03.18.14.753
12900;175307;34.36;522;03.18.14.753
12924;175312;34.36;523;03.18.14.753
12944;175310;34.36;524;03.18.14.753
12920;175305;34.36;525;03.18.14.841
12928;175312;34.36;526;03.18.14.841
12940;175311;34.36;527;03.18.14.852
12944;175315;34.36;528;03.18.14.852
12932;175317;34.36;529;03.18.14.852
12940;175315;34.36;530;03.18.14.852
12920;175312;34.36;531;03.18.14.852
12940;175323;34.36;532;03.18.14.852
12936;175319;34.36;533;03.18.14.863
12908;175323;34.36;534;03.18.14.874
12924;175323;34.36;535;03.18.14.874
12916;175325;34.36;536;03.18.14.874
12912;175330;34.36;537;03.18.14.874
12952;175333;34.36;538;03.18.14.874
12936;175334;34.36;539;03.18.14.874
12920;175327;34.36;540;03.18.14.874
12916;175339;34.36;541;03.18.14.874
12948;175344;34.36;542;03.18.14.874
12916;175333;34.36;543;03.18.14.874
12920;175335;34.36;544;03.18.14.874
12920;175344;34.36;545;03.18.14.874
12912;175341;34.36;546;03.18.14.874
12944;175343;34.36;547;03.18.14.874
12940;175343;34.36;548;03.18.14.885
12964;175348;34.36;549;03.18.14.885
12936;175350;34.36;550;03.18.14.961
12924;175351;34.36;551;03.18.14.961
12944;175353;34.36;552;03.18.14.961
12944;175344;34.36;553;03.18.14.961
12924;175344;34.36;554;03.18.14.961
12924;175358;34.36;555;03.18.14.961
12936;175354;34.36;556;03.18.14.961
12924;175355;34.36;557;03.18.14.961
12944;175357;34.36;558;03.18.14.961
12928;175354;34.36;559;03.18.14.961
12940;175348;34.36;560;03.18.14.961
12920;175345;34.36;561;03.18.14.961
12924;175355;34.36;562;03.18.14.972
12920;175342;34.36;563;03.18.14.972
12940;175360;34.36;564;03.18.14.972
12928;175363;34.36;565;03.18.14.972
12944;175363;34.36;566;03.18.14.972
12936;175359;34.36;567;03.18.14.983
12948;175358;34.36;568;03.18.14.983
12924;175355;34.36;569;03.18.14.983
12944;175352;34.36;570;03.18.14.983
12924;175343;34.36;571;03.18.14.983
12932;175349;34.36;572;03.18.14.983
12928;175353;34.36;573;03.18.14.983
12936;175352;34.36;574;03.18.14.983
12916;175349;34.40;575;03.18.15.093
12944;175336;34.40;576;03.18.15.093
12908;175338;34.40;577;03.18.15.093
12912;175339;34.40;578;03.18.15.093
12944;175335;34.40;579;03.18.15.093
12928;175337;34.40;580;03.18.15.093
12916;175340;34.40;581;03.18.15.093
12948;175327;34.40;582;03.18.15.104
12912;175328;34.40;583;03.18.15.104
12940;175329;34.40;584;03.18.15.104
12944;175329;34.40;585;03.18.15.104
12924;175321;34.40;586;03.18.15.104
12936;175319;34.40;587;03.18.15.104
12940;175319;34.40;588;03.18.15.104
12928;175329;34.40;589;03.18.15.104
12924;175316;34.40;590;03.18.15.104
12928;175315;34.40;591;03.18.15.104
12936;175317;34.40;592;03.18.15.104
12924;175313;34.40;593;03.18.15.104
12928;175322;34.40;594;03.18.15.104
12904;175320;34.40;595;03.18.15.115
12924;175318;34.40;596;03.18.15.115
12976;175318;34.40;597;03.18.15.115
12920;175321;34.40;598;03.18.15.115
12928;175323;34.40;599;03.18.15.115
12936;175332;34.40;600;03.18.15.203
12916;175333;34.40;601;03.18.15.203
12928;175329;34.40;602;03.18.15.203
12952;175333;34.40;603;03.18.15.203
12932;175336;34.40;604;03.18.15.214
12944;175326;34.40;605;03.18.15.214
12944;175335;34.40;606;03.18.15.214
12932;175331;34.40;607;03.18.15.214
12940;175336;34.40;608;03.18.15.214
12964;175341;34.40;609;03.18.15.214
12948;175344;34.40;610;03.18.15.214
12940;175336;34.40;611;03.18.15.214
12944;175349;34.40;612;03.18.15.214
12924;175353;34.40;613;03.18.15.214
12944;175359;34.40;614;03.18.15.214
12908;175359;34.40;615;03.18.15.214
12916;175358;34.40;616;03.18.15.214
12932;175361;34.40;617;03.18.15.225
12936;175365;34.40;618;03.18.15.225
12940;175366;34.40;619;03.18.15.225
12928;175365;34.40;620;03.18.15.225
12936;175354;34.40;621;03.18.15.235
12928;175357;34.40;622;03.18.15.235
12928;175365;34.40;623;03.18.15.235
12956;175369;34.40;624;03.18.15.235
12948;175362;34.36;625;03.18.15.334
12916;175362;34.36;626;03.18.15.334
12900;175365;34.36;627;03.18.15.334
12904;175362;34.36;628;03.18.15.334
12944;175360;34.36;629;03.18.15.334
12936;175357;34.36;630;03.18.15.334
12932;175347;34.36;631;03.18.15.334
12936;175350;34.36;632;03.18.15.334
12936;175354;34.36;633;03.18.15.367
12952;175353;34.36;634;03.18.15.367
12944;175346;34.36;635;03.18.15.367
12920;175355;34.36;636;03.18.15.367
12912;175360;34.36;637;03.18.15.367
12944;175347;34.36;638;03.18.15.367
12940;175348;34.36;639;03.18.15.367
12920;175347;34.36;640;03.18.15.367
12908;175342;34.36;641;03.18.15.367
12920;175342;34.36;642;03.18.15.367
12916;175333;34.36;643;03.18.15.367
12920;175327;34.36;644;03.18.15.367
12944;175337;34.36;645;03.18.15.367
12960;175328;34.36;646;03.18.15.378
12928;175331;34.36;647;03.18.15.378
12936;175325;34.36;648;03.18.15.378
12960;175320;34.36;649;03.18.15.378
12932;175319;34.36;650;03.18.15.455
12904;175319;34.36;651;03.18.15.455
12944;175317;34.36;652;03.18.15.455
12928;175314;34.36;653;03.18.15.455
12960;175317;34.36;654;03.18.15.455
12932;175312;34.36;655;03.18.15.455
12936;175308;34.36;656;03.18.15.455
12936;175297;34.36;657;03.18.15.455
12932;175304;34.36;658;03.18.15.455
12944;175302;34.36;659;03.18.15.466
12924;175288;34.36;660;03.18.15.466
12936;175295;34.36;661;03.18.15.466
12924;175293;34.36;662;03.18.15.466
12944;175292;34.36;663;03.18.15.466
12916;175290;34.36;664;03.18.15.466
12940;175291;34.36;665;03.18.15.466
12944;175295;34.36;666;03.18.15.466
12916;175283;34.36;667;03.18.15.466
12912;175297;34.36;668;03.18.15.466
12932;175284;34.36;669;03.18.15.466
12920;175283;34.36;670;03.18.15.466
12908;175284;34.36;671;03.18.15.466
12932;175291;34.36;672;03.18.15.477
12960;175285;34.36;673;03.18.15.477
12944;175293;34.36;674;03.18.15.477
12916;175288;34.36;675;03.18.15.586
12916;175286;34.36;676;03.18.15.586
12924;175282;34.36;677;03.18.15.586
12920;175290;34.36;678;03.18.15.586
12940;175280;34.36;679;03.18.15.586
12944;175288;34.36;680;03.18.15.597
12932;175285;34.36;681;03.18.15.597
12936;175281;34.36;682;03.18.15.597
12948;175284;34.36;683;03.18.15.597
12948;175266;34.36;684;03.18.15.597
12952;175275;34.36;685;03.18.15.597
12944;175276;34.36;686;03.18.15.597
12936;175276;34.36;687;03.18.15.597
12944;175273;34.36;688;03.18.15.597
12944;175262;34.36;689;03.18.15.597
12936;175266;34.36;690;03.18.15.597
12928;175262;34.36;691;03.18.15.597
12920;175257;34.36;692;03.18.15.597
12940;175247;34.36;693;03.18.15.608
12956;175244;34.36;694;03.18.15.608
12928;175246;34.36;695;03.18.15.608
12944;175235;34.36;696;03.18.15.608
12932;175223;34.36;697;03.18.15.608
12936;175234;34.36;698;03.18.15.608
12944;175211;34.36;699;03.18.15.608
12952;175206;34.36;700;03.18.15.718
12936;175211;34.36;701;03.18.15.718
12944;175199;34.36;702;03.18.15.729
12928;175202;34.36;703;03.18.15.729
12960;175201;34.36;704;03.18.15.729
12940;175193;34.36;705;03.18.15.729
12960;175199;34.36;706;03.18.15.729
12920;175182;34.36;707;03.18.15.729
12932;175183;34.36;708;03.18.15.729
12936;175185;34.36;709;03.18.15.729
12948;175173;34.36;710;03.18.15.740
12916;175171;34.36;711;03.18.15.740
12948;175177;34.36;712;03.18.15.740
12936;175181;34.36;713;03.18.15.740
12924;175167;34.36;714;03.18.15.740
12912;175173;34.36;715;03.18.15.740
12924;175173;34.36;716;03.18.15.740
12936;175176;34.36;717;03.18.15.762
12920;175174;34.36;718;03.18.15.773
12928;175172;34.36;719;03.18.15.773
12932;175171;34.36;720;03.18.15.773
12936;175168;34.36;721;03.18.15.773
12944;175169;34.36;722;03.18.15.773
12932;175162;34.36;723;03.18.15.773
12940;175172;34.36;724;03.18.15.773
12920;175173;34.36;725;03.18.15.839
12916;175161;34.36;726;03.18.15.839
12936;175163;34.36;727;03.18.15.839
12932;175167;34.36;728;03.18.15.839
12944;175166;34.36;729;03.18.15.839
12932;175167;34.36;730;03.18.15.839
12920;175164;34.36;731;03.18.15.839
12964;175163;34.36;732;03.18.15.839
12960;175154;34.36;733;03.18.15.861
12920;175157;34.36;734;03.18.15.861
12928;175151;34.36;735;03.18.15.861
12940;175148;34.36;736;03.18.15.861
12928;175147;34.36;737;03.18.15.861
12936;175148;34.36;738;03.18.15.861
12924;175144;34.36;739;03.18.15.861
12928;175134;34.36;740;03.18.15.861
12968;175134;34.36;741;03.18.15.861
12928;175119;34.36;742;03.18.15.861
12924;175113;34.36;743;03.18.15.861
12936;175111;34.36;744;03.18.15.872
12912;175111;34.36;745;03.18.15.872
12912;175101;34.36;746;03.18.15.872
12952;175099;34.36;747;03.18.15.872
12920;175095;34.36;748;03.18.15.872
12948;175092;34.36;749;03.18.15.872
12924;175088;34.36;750;03.18.15.959
12912;175080;34.36;751;03.18.15.959
12948;175075;34.36;752;03.18.15.959
12924;175073;34.36;753;03.18.15.959
12904;175054;34.36;754;03.18.15.959
12920;175053;34.36;755;03.18.15.959
12920;175069;34.36;756;03.18.15.959
12916;175089;34.36;757;03.18.15.959
12948;175083;34.36;758;03.18.15.970
12916;175071;34.36;759;03.18.15.970
12948;175062;34.36;760;03.18.15.970
12924;175056;34.36;761;03.18.15.970
12940;175052;34.36;762;03.18.15.970
12912;175045;34.36;763;03.18.15.970
12908;175047;34.36;764;03.18.15.970
12932;175042;34.36;765;03.18.15.970
12960;175044;34.36;766;03.18.15.981
12920;175053;34.36;767;03.18.15.981
12936;175056;34.36;768;03.18.15.981
12936;175051;34.36;769;03.18.15.981
12908;175045;34.36;770;03.18.15.981
12920;175035;34.36;771;03.18.15.981
12940;175027;34.36;772;03.18.15.981
12908;175027;34.36;773;03.18.15.981
12924;175039;34.36;774;03.18.15.981
12928;175028;34.36;775;03.18.16.091
12916;175035;34.36;776;03.18.16.091
12932;175022;34.36;777;03.18.16.091
12904;175026;34.36;778;03.18.16.091
12920;175033;34.36;779;03.18.16.102
12944;175020;34.36;780;03.18.16.102
12940;175017;34.36;781;03.18.16.102
12940;175018;34.36;782;03.18.16.102
12960;175013;34.36;783;03.18.16.102
12916;175018;34.36;784;03.18.16.102
12940;175003;34.36;785;03.18.16.102
12944;175006;34.36;786;03.18.16.102
12944;175004;34.36;787;03.18.16.102
12908;175006;34.36;788;03.18.16.102
12896;175007;34.36;789;03.18.16.102
12940;174998;34.36;790;03.18.16.102
12944;175001;34.36;791;03.18.16.113
12952;175006;34.36;792;03.18.16.113
12940;174998;34.36;793;03.18.16.113
12928;175009;34.36;794;03.18.16.113
12936;174997;34.36;795;03.18.16.113
12944;175002;34.36;796;03.18.16.113
12924;175006;34.36;797;03.18.16.113
12904;175006;34.36;798;03.18.16.113
12952;175000;34.36;799;03.18.16.113
12944;175019;34.36;800;03.18.16.234
12908;175027;34.36;801;03.18.16.234
12944;175013;34.36;802;03.18.16.234
12916;175017;34.36;803;03.18.16.234
12944;175018;34.36;804;03.18.16.234
12928;175018;34.36;805;03.18.16.234
12916;175027;34.36;806;03.18.16.234
12924;175031;34.36;807;03.18.16.234
12952;175034;34.36;808;03.18.16.234
12916;175039;34.36;809;03.18.16.234
12960;175030;34.36;810;03.18.16.234
12940;175039;34.36;811;03.18.16.234
12948;175036;34.36;812;03.18.16.245
12932;175038;34.36;813;03.18.16.245
12904;175039;34.36;814;03.18.16.245
12920;175032;34.36;815;03.18.16.245
12928;175040;34.36;816;03.18.16.245
12920;175040;34.36;817;03.18.16.245
12936;175034;34.36;818;03.18.16.245
12924;175032;34.36;819;03.18.16.245
12944;175031;34.36;820;03.18.16.245
12924;175025;34.36;821;03.18.16.245
12936;175026;34.36;822;03.18.16.245
12908;175039;34.36;823;03.18.16.245
12936;175022;34.36;824;03.18.16.245
12912;175023;34.36;825;03.18.16.332
12924;175019;34.36;826;03.18.16.332
12928;175018;34.36;827;03.18.16.332
12932;175013;34.36;828;03.18.16.332
12928;175010;34.36;829;03.18.16.332
12924;175008;34.36;830;03.18.16.332
12924;175012;34.36;831;03.18.16.332
12908;175012;34.36;832;03.18.16.332
12944;175010;34.36;833;03.18.16.332
12908;175010;34.36;834;03.18.16.343
12944;175019;34.36;835;03.18.16.343
12908;175004;34.36;836;03.18.16.343
12932;175019;34.36;837;03.18.16.343
12924;175015;34.36;838;03.18.16.343
12892;175016;34.36;839;03.18.16.343
12944;175015;34.36;840;03.18.16.343
12936;175019;34.36;841;03.18.16.343
12932;175019;34.36;842;03.18.16.343
12920;175014;34.36;843;03.18.16.343
12908;175024;34.36;844;03.18.16.343
12916;175025;34.36;845;03.18.16.343
12924;175029;34.36;846;03.18.16.343
12892;175027;34.36;847;03.18.16.354
12936;175026;34.36;848;03.18.16.354
12960;175027;34.36;849;03.18.16.354
12932;175021;34.36;850;03.18.16.453
12928;175020;34.36;851;03.18.16.453
12916;175027;34.36;852;03.18.16.453
12920;175020;34.36;853;03.18.16.453
12908;175021;34.36;854;03.18.16.453
12904;175014;34.36;855;03.18.16.464
12920;175015;34.36;856;03.18.16.464
12952;175016;34.36;857;03.18.16.464
12928;175014;34.36;858;03.18.16.464
12928;175012;34.36;859;03.18.16.464
12936;175007;34.36;860;03.18.16.464
12952;175007;34.36;861;03.18.16.464
12944;174997;34.36;862;03.18.16.464
12928;174992;34.36;863;03.18.16.464
12920;174990;34.36;864;03.18.16.464
12920;174981;34.36;865;03.18.16.464
12912;174983;34.36;866;03.18.16.464
12924;174974;34.36;867;03.18.16.464
12944;174972;34.36;868;03.18.16.464
12920;174976;34.36;869;03.18.16.475
12928;174974;34.36;870;03.18.16.475
12940;174972;34.36;871;03.18.16.475
12924;174979;34.36;872;03.18.16.475
12892;174962;34.36;873;03.18.16.475
12940;174968;34.36;874;03.18.16.475
12916;174973;34.36;875;03.18.16.585
12928;174971;34.36;876;03.18.16.596
12912;174964;34.36;877;03.18.16.596
12928;174965;34.36;878;03.18.16.596
12908;174967;34.36;879;03.18.16.596
12932;174965;34.36;880;03.18.16.596
12936;174966;34.36;881;03.18.16.596
12916;174971;34.36;882;03.18.16.596
12940;174969;34.36;883;03.18.16.596
12948;174975;34.36;884;03.18.16.596
12952;174978;34.36;885;03.18.16.596
12904;174973;34.36;886;03.18.16.596
12940;174980;34.36;887;03.18.16.596
12960;174978;34.36;888;03.18.16.596
12932;174974;34.36;889;03.18.16.607
12940;174972;34.36;890;03.18.16.607
12928;174983;34.36;891;03.18.16.607
12936;174980;34.36;892;03.18.16.607
12948;174978;34.36;893;03.18.16.607
12936;174984;34.36;894;03.18.16.607
12924;174984;34.36;895;03.18.16.607
12944;174987;34.36;896;03.18.16.607
12904;174991;34.36;897;03.18.16.607
12928;174994;34.36;898;03.18.16.607
12936;174997;34.36;899;03.18.16.607
12912;174996;34.36;900;03.18.16.727
12908;174993;34.36;901;03.18.16.727
12920;174991;34.36;902;03.18.16.727
12924;174998;34.36;903;03.18.16.727
12940;174995;34.36;904;03.18.16.727
12912;175003;34.36;905;03.18.16.727
12944;174998;34.36;906;03.18.16.727
12952;174999;34.36;907;03.18.16.727
12908;175006;34.36;908;03.18.16.727
12952;175005;34.36;909;03.18.16.727
12924;175008;34.36;910;03.18.16.727
12928;174994;34.36;911;03.18.16.738
12924;175006;34.36;912;03.18.16.738
12928;175013;34.36;913;03.18.16.738
12944;175007;34.36;914;03.18.16.738
12924;175020;34.36;915;03.18.16.738
12940;175014;34.36;916;03.18.16.738
12904;175006;34.36;917;03.18.16.738
12916;175005;34.36;918;03.18.16.738
12908;175015;34.36;919;03.18.16.738
12932;175006;34.36;920;03.18.16.738
12908;175017;34.36;921;03.18.16.738
12948;175006;34.36;922;03.18.16.738
12908;175016;34.36;923;03.18.16.749
12948;175009;34.36;924;03.18.16.749
12892;175017;34.36;925;03.18.16.835
12932;175009;34.36;926;03.18.16.835
12948;175007;34.36;927;03.18.16.835
12932;175015;34.36;928;03.18.16.835
12932;175011;34.36;929;03.18.16.835
12916;175009;34.36;930;03.18.16.835
12928;175009;34.36;931;03.18.16.846
12968;175005;34.36;932;03.18.16.846
12924;175006;34.36;933;03.18.16.857
12960;175012;34.36;934;03.18.16.857
12912;175011;34.36;935;03.18.16.857
12940;175003;34.36;936;03.18.16.857
12908;175012;34.36;937;03.18.16.857
12920;175008;34.36;938;03.18.16.857
12924;175009;34.36;939;03.18.16.868
12944;175013;34.36;940;03.18.16.868
12924;175014;34.36;941;03.18.16.868
12952;175018;34.36;942;03.18.16.868
12920;175020;34.36;943;03.18.16.868
12936;175017;34.36;944;03.18.16.868
12952;175016;34.36;945;03.18.16.868
12948;175027;34.36;946;03.18.16.868
12944;175025;34.36;947;03.18.16.868
12920;175028;34.36;948;03.18.16.868
12944;175033;34.36;949;03.18.16.868
12912;175032;34.36;950;03.18.16.956
12944;175036;34.36;951;03.18.16.956
12908;175033;34.36;952;03.18.16.967
12936;175033;34.36;953;03.18.16.967
12964;175026;34.36;954;03.18.16.967
12924;175030;34.36;955;03.18.16.967
12904;175032;34.36;956;03.18.16.967
12928;175034;34.36;957;03.18.16.967
12924;175040;34.36;958;03.18.16.967
12952;175037;34.36;959;03.18.16.967
12948;175039;34.36;960;03.18.16.967
12912;175036;34.36;961;03.18.16.978
12932;175046;34.36;962;03.18.16.978
12916;175042;34.36;963;03.18.16.978
12928;175048;34.36;964;03.18.16.978
12960;175055;34.36;965;03.18.16.978
12944;175050;34.36;966;03.18.16.978
12936;175050;34.36;967;03.18.17.000
12916;175054;34.36;968;03.18.17.000
12924;175052;34.36;969;03.18.17.011
12928;175049;34.36;970;03.18.17.011
12904;175062;34.36;971;03.18.17.011
12936;175060;34.36;972;03.18.17.011
12960;175061;34.36;973;03.18.17.011
12912;175057;34.36;974;03.18.17.011
12892;175057;34.40;975;03.18.17.088
12932;175062;34.40;976;03.18.17.088
12908;175058;34.40;977;03.18.17.088
12920;175064;34.40;978;03.18.17.088
12920;175067;34.40;979;03.18.17.088
12944;175076;34.40;980;03.18.17.088
12940;175074;34.40;981;03.18.17.088
12928;175080;34.40;982;03.18.17.088
12904;175077;34.40;983;03.18.17.088
12940;175075;34.40;984;03.18.17.088
12892;175074;34.40;985;03.18.17.088
12908;175079;34.40;986;03.18.17.099
12932;175085;34.40;987;03.18.17.099
12932;175095;34.40;988;03.18.17.099
12940;175085;34.40;989;03.18.17.099
12920;175093;34.40;990;03.18.17.099
12944;175090;34.40;991;03.18.17.099
12924;175091;34.40;992;03.18.17.099
12932;175101;34.40;993;03.18.17.099
12920;175094;34.40;994;03.18.17.099
12948;175086;34.40;995;03.18.17.099
12940;175088;34.40;996;03.18.17.099
12948;175087;34.40;997;03.18.17.099
12924;175091;34.40;998;03.18.17.099
12952;175082;34.40;999;03.18.17.110
12892;175076;34.40;000;03.18.17.218
12916;175083;34.40;001;03.18.17.218
12908;175075;34.40;002;03.18.17.218
12916;175070;34.40;003;03.18.17.218
12908;175066;34.40;004;03.18.17.218
12900;175071;34.40;005;03.18.17.218
12924;175065;34.40;006;03.18.17.229
12928;175064;34.40;007;03.18.17.229
12936;175057;34.40;008;03.18.17.229
12908;175058;34.40;009;03.18.17.229
12944;175059;34.40;010;03.18.17.229
12944;175059;34.40;011;03.18.17.229
12928;175055;34.40;012;03.18.17.229
12908;175059;34.40;013;03.18.17.229
12924;175052;34.40;014;03.18.17.229
12928;175041;34.40;015;03.18.17.229
12916;175042;34.40;016;03.18.17.229
12944;175050;34.40;017;03.18.17.229
12908;175039;34.40;018;03.18.17.229
12932;175044;34.40;019;03.18.17.240
12936;175045;34.40;020;03.18.17.240
12920;175051;34.40;021;03.18.17.240
12932;175047;34.40;022;03.18.17.240
12912;175044;34.40;023;03.18.17.240
12952;175044;34.40;024;03.18.17.240
12920;175043;34.36;025;03.18.17.328
12932;175049;34.36;026;03.18.17.328
12932;175046;34.36;027;03.18.17.328
12900;175050;34.36;028;03.18.17.339
12944;175057;34.36;029;03.18.17.339
12928;175054;34.36;030;03.18.17.339
12948;175047;34.36;031;03.18.17.339
12940;175055;34.36;032;03.18.17.339
12916;175049;34.36;033;03.18.17.350
12920;175056;34.36;034;03.18.17.350
12948;175061;34.36;035;03.18.17.350
12960;175052;34.36;036;03.18.17.361
12936;175057;34.36;037;03.18.17.361
12920;175056;34.36;038;03.18.17.361
12932;175050;34.36;039;03.18.17.361
12912;175057;34.36;040;03.18.17.361
12924;175048;34.36;041;03.18.17.361
12916;175052;34.36;042;03.18.17.361
12908;175062;34.36;043;03.18.17.361
12928;175059;34.36;044;03.18.17.361
12976;175061;34.36;045;03.18.17.361
12932;175055;34.36;046;03.18.17.361
12940;175057;34.36;047;03.18.17.361
12956;175049;34.36;048;03.18.17.361
12940;175053;34.36;049;03.18.17.372
12900;175044;34.36;050;03.18.17.460
12936;175035;34.36;051;03.18.17.460
12928;175044;34.36;052;03.18.17.460
12908;175037;34.36;053;03.18.17.460
12920;175044;34.36;054;03.18.17.460
12928;175038;34.36;055;03.18.17.460
12936;175024;34.36;056;03.18.17.460
12944;175026;34.36;057;03.18.17.460
12936;175024;34.36;058;03.18.17.460
12912;175021;34.36;059;03.18.17.460
12948;175017;34.36;060;03.18.17.460
12912;175005;34.36;061;03.18.17.460
12936;175006;34.36;062;03.18.17.471
12956;174992;34.36;063;03.18.17.471
12932;175003;34.36;064;03.18.17.471
12936;174991;34.36;065;03.18.17.471
12916;174991;34.36;066;03.18.17.471
12920;174990;34.36;067;03.18.17.471
12896;174997;34.36;068;03.18.17.471
12892;174991;34.36;069;03.18.17.471
12924;174985;34.36;070;03.18.17.471
12932;174974;34.36;071;03.18.17.471
12944;174988;34.36;072;03.18.17.471
12920;174985;34.36;073;03.18.17.471
12944;174986;34.36;074;03.18.17.471
12940;174984;34.36;075;03.18.17.591
12892;174982;34.36;076;03.18.17.591
12952;174988;34.36;077;03.18.17.591
12952;174972;34.36;078;03.18.17.591
12944;174979;34.36;079;03.18.17.591
12952;174987;34.36;080;03.18.17.591
12920;174991;34.36;081;03.18.17.591
12932;174989;34.36;082;03.18.17.591
12932;174983;34.36;083;03.18.17.591
12952;174991;34.36;084;03.18.17.602
12920;174984;34.36;085;03.18.17.602
12928;174988;34.36;086;03.18.17.602
12940;174984;34.36;087;03.18.17.602
12892;174992;34.36;088;03.18.17.602
12936;174993;34.36;089;03.18.17.602
12908;174998;34.36;090;03.18.17.602
12920;175000;34.36;091;03.18.17.602
12944;174990;34.36;092;03.18.17.602
12916;174987;34.36;093;03.18.17.602
12892;174995;34.36;094;03.18.17.602
12920;175000;34.36;095;03.18.17.602
12932;174998;34.36;096;03.18.17.602
12912;174998;34.36;097;03.18.17.613
12932;175004;34.36;098;03.18.17.613
12944;175006;34.36;099;03.18.17.613
12928;174998;34.36;100;03.18.17.712
12948;175003;34.36;101;03.18.17.712
12936;174997;34.36;102;03.18.17.712
12944;175003;34.36;103;03.18.17.712
12960;175013;34.36;104;03.18.17.712
12924;175004;34.36;105;03.18.17.723
12892;175009;34.36;106;03.18.17.723
12908;175009;34.36;107;03.18.17.723
12928;175005;34.36;108;03.18.17.723
12924;175014;34.36;109;03.18.17.723
12916;175009;34.36;110;03.18.17.723
12924;175018;34.36;111;03.18.17.723
12936;175019;34.36;112;03.18.17.723
12928;175029;34.36;113;03.18.17.723
12920;175020;34.36;114;03.18.17.723
12928;175029;34.36;115;03.18.17.723
12944;175024;34.36;116;03.18.17.723
12936;175024;34.36;117;03.18.17.734
12928;175026;34.36;118;03.18.17.734
12944;175028;34.36;119;03.18.17.734
12944;175030;34.36;120;03.18.17.734
12912;175028;34.36;121;03.18.17.734
12960;175032;34.36;122;03.18.17.734
12924;175034;34.36;123;03.18.17.734
12924;175033;34.36;124;03.18.17.734
12924;175035;34.36;125;03.18.17.844
12920;175041;34.36;126;03.18.17.855
12944;175040;34.36;127;03.18.17.855
12912;175034;34.36;128;03.18.17.855
12948;175034;34.36;129;03.18.17.855
12912;175039;34.36;130;03.18.17.855
12920;175039;34.36;131;03.18.17.855
12920;175041;34.36;132;03.18.17.855
12948;175044;34.36;133;03.18.17.855
12920;175042;34.36;134;03.18.17.855
12900;175046;34.36;135;03.18.17.855
12932;175049;34.36;136;03.18.17.855
12952;175052;34.36;137;03.18.17.855
12944;175049;34.36;138;03.18.17.855
12920;175048;34.36;139;03.18.17.866
12932;175054;34.36;140;03.18.17.866
12924;175062;34.36;141;03.18.17.866
12928;175058;34.36;142;03.18.17.866
12924;175059;34.36;143;03.18.17.866
12924;175070;34.36;144;03.18.17.866
12944;175067;34.36;145;03.18.17.866
12928;175072;34.36;146;03.18.17.866
12944;175070;34.36;147;03.18.17.866
12952;175070;34.36;148;03.18.17.866
12952;175071;34.36;149;03.18.17.866
12900;175063;34.36;150;03.18.17.964
12936;175058;34.36;151;03.18.17.964
12940;175059;34.36;152;03.18.17.964
12960;175062;34.36;153;03.18.17.964
12932;175060;34.36;154;03.18.17.964
12924;175056;34.36;155;03.18.17.964
12932;175061;34.36;156;03.18.17.964
12920;175047;34.36;157;03.18.17.964
12916;175043;34.36;158;03.18.17.975
12924;175034;34.36;159;03.18.17.975
12916;175038;34.36;160;03.18.17.975
12952;175042;34.36;161;03.18.17.975
12924;175032;34.36;162;03.18.17.975
12924;175037;34.36;163;03.18.17.975
12924;175039;34.36;164;03.18.17.975
12936;175025;34.36;165;03.18.17.975
12908;175022;34.36;166;03.18.17.975
12924;175028;34.36;167;03.18.17.986
12924;175025;34.36;168;03.18.17.986
12928;175032;34.36;169;03.18.17.986
12960;175018;34.36;170;03.18.17.986
12944;175013;34.36;171;03.18.17.986
12920;175014;34.36;172;03.18.17.986
12932;175014;34.36;173;03.18.17.986
12916;175008;34.36;174;03.18.17.986
12928;175017;34.40;175;03.18.18.095
12928;175016;34.40;176;03.18.18.095
12920;175014;34.40;177;03.18.18.095
12932;175013;34.40;178;03.18.18.095
12964;175013;34.40;179;03.18.18.095
12940;175012;34.40;180;03.18.18.095
12940;175013;34.40;181;03.18.18.106
12940;175019;34.40;182;03.18.18.106
12912;175017;34.40;183;03.18.18.106
12960;175005;34.40;184;03.18.18.106
12940;175004;34.40;185;03.18.18.106
12928;175014;34.40;186;03.18.18.106
12932;175014;34.40;187;03.18.18.106
12908;175007;34.40;188;03.18.18.106
12936;175015;34.40;189;03.18.18.106
12924;175016;34.40;190;03.18.18.106
12924;175011;34.40;191;03.18.18.106
12928;175008;34.40;192;03.18.18.106
12948;175016;34.40;193;03.18.18.106
12904;175013;34.40;194;03.18.18.117
12928;175009;34.40;195;03.18.18.117
12932;175014;34.40;196;03.18.18.117
12924;175017;34.40;197;03.18.18.117
12928;175015;34.40;198;03.18.18.117
12960;175013;34.40;199;03.18.18.117
d;e;f;03.18.19.381
12928;000909;34.36;200;03.18.19.502
12928;057530;34.36;201;03.18.19.502
12924;073935;34.36;202;03.18.19.502
12920;090307;34.36;203;03.18.19.502
12924;106725;34.36;204;03.18.19.502
12936;123107;34.36;205;03.18.19.502
12940;139456;34.36;206;03.18.19.513
12896;155901;34.36;207;03.18.19.513
12936;172214;34.36;208;03.18.19.513
12932;175314;34.36;209;03.18.19.513
12944;175300;34.36;210;03.18.19.513
12936;175304;34.36;211;03.18.19.513
12912;175290;34.36;212;03.18.19.513
12928;175285;34.36;213;03.18.19.513
12948;175293;34.36;214;03.18.19.513
12952;175287;34.36;215;03.18.19.513
12916;175280;34.36;216;03.18.19.513
12908;175275;34.36;217;03.18.19.534
12964;175270;34.36;218;03.18.19.534
12916;175269;34.36;219;03.18.19.534
12924;175263;34.36;220;03.18.19.534
12924;175255;34.36;221;03.18.19.534
12940;175253;34.36;222;03.18.19.545
12924;175244;34.36;223;03.18.19.545
12960;175243;34.36;224;03.18.19.545
12932;175235;34.36;225;03.18.19.622
12924;175233;34.36;226;03.18.19.633
12920;175227;34.36;227;03.18.19.633
12936;175214;34.36;228;03.18.19.633
12920;175216;34.36;229;03.18.19.633
12924;175211;34.36;230;03.18.19.633
12944;175204;34.36;231;03.18.19.633
12928;175206;34.36;232;03.18.19.633
12916;175200;34.36;233;03.18.19.633
12916;175206;34.36;234;03.18.19.633
12924;175197;34.36;235;03.18.19.633
12920;175193;34.36;236;03.18.19.633
12932;175190;34.36;237;03.18.19.633
12920;175184;34.36;238;03.18.19.633
12940;175186;34.36;239;03.18.19.643
12928;175189;34.36;240;03.18.19.643
12908;175174;34.36;241;03.18.19.643
12924;175180;34.36;242;03.18.19.654
12932;175188;34.36;243;03.18.19.665
12944;175186;34.36;244;03.18.19.665
12944;175183;34.36;245;03.18.19.665
12924;175175;34.36;246;03.18.19.665
12944;175171;34.36;247;03.18.19.665
12920;175173;34.36;248;03.18.19.665
12948;175175;34.36;249;03.18.19.665
12936;175172;34.36;250;03.18.19.753
12932;175171;34.36;251;03.18.19.753
12916;175167;34.36;252;03.18.19.753
12940;175169;34.36;253;03.18.19.753
12912;175167;34.36;254;03.18.19.753
12924;175163;34.36;255;03.18.19.753
12924;175159;34.36;256;03.18.19.753
12928;175164;34.36;257;03.18.19.753
12948;175155;34.36;258;03.18.19.753
12928;175148;34.36;259;03.18.19.753
12936;175150;34.36;260;03.18.19.764
12936;175149;34.36;261;03.18.19.764
12908;175145;34.36;262;03.18.19.764
12924;175144;34.36;263;03.18.19.764
12936;175146;34.36;264;03.18.19.764
12936;175144;34.36;265;03.18.19.764
12928;175140;34.36;266;03.18.19.764
12940;175146;34.36;267;03.18.19.764
12944;175137;34.36;268;03.18.19.764
12920;175132;34.36;269;03.18.19.764
12932;175130;34.36;270;03.18.19.764
12904;175133;34.36;271;03.18.19.764
12928;175122;34.36;272;03.18.19.764
12928;175123;34.36;273;03.18.19.764
12940;175120;34.36;274;03.18.19.775
12924;175124;34.36;275;03.18.19.884
12920;175121;34.36;276;03.18.19.884
12952;175124;34.36;277;03.18.19.884
12924;175117;34.36;278;03.18.19.884
12908;175123;34.36;279;03.18.19.884
12924;175120;34.36;280;03.18.19.884
12924;175118;34.36;281;03.18.19.895
12956;175113;34.36;282;03.18.19.895
12936;175110;34.36;283;03.18.19.895
12944;175115;34.36;284;03.18.19.895
12936;175109;34.36;285;03.18.19.895
12924;175102;34.36;286;03.18.19.895
12928;175106;34.36;287;03.18.19.895
12932;175105;34.36;288;03.18.19.895
12936;175105;34.36;289;03.18.19.895
12936;175098;34.36;290;03.18.19.895
12944;175098;34.36;291;03.18.19.895
12912;175094;34.36;292;03.18.19.906
12904;175093;34.36;293;03.18.19.906
12912;175097;34.36;294;03.18.19.906
12936;175093;34.36;295;03.18.19.906
12924;175088;34.36;296;03.18.19.906
12924;175099;34.36;297;03.18.19.906
12932;175092;34.36;298;03.18.19.917
12952;175085;34.36;299;03.18.19.917
12920;175088;34.36;300;03.18.19.994
12944;175078;34.36;301;03.18.19.994
12916;175080;34.36;302;03.18.20.005
12940;175086;34.36;303;03.18.20.005
12944;175078;34.36;304;03.18.20.005
12928;175076;34.36;305;03.18.20.005
12964;175078;34.36;306;03.18.20.005
12940;175086;34.36;307;03.18.20.005
12892;175086;34.36;308;03.18.20.005
12924;175083;34.36;309;03.18.20.005
12944;175083;34.36;310;03.18.20.016
12936;175076;34.36;311;03.18.20.016
12908;175089;34.36;312;03.18.20.016
12936;175082;34.36;313;03.18.20.016
12924;175094;34.36;314;03.18.20.016
12928;175086;34.36;315;03.18.20.016
12900;175082;34.36;316;03.18.20.016
12920;175082;34.36;317;03.18.20.016
12928;175088;34.36;318;03.18.20.027
12916;175091;34.36;319;03.18.20.027
12928;175084;34.36;320;03.18.20.027
12928;175089;34.36;321;03.18.20.027
12932;175085;34.36;322;03.18.20.027
12936;175099;34.36;323;03.18.20.027
12928;175085;34.36;324;03.18.20.027
12908;175082;34.36;325;03.18.20.125
12904;175092;34.36;326;03.18.20.125
12924;175091;34.36;327;03.18.20.125
12912;175078;34.36;328;03.18.20.125
12932;175074;34.36;329;03.18.20.125
12924;175086;34.36;330;03.18.20.125
12936;175085;34.36;331;03.18.20.125
12944;175082;34.36;332;03.18.20.125
12920;175086;34.36;333;03.18.20.136
12924;175080;34.36;334;03.18.20.136
12928;175081;34.36;335;03.18.20.136
12904;175081;34.36;336;03.18.20.136
12916;175086;34.36;337;03.18.20.136
12920;175088;34.36;338;03.18.20.136
12936;175080;34.36;339;03.18.20.136
12936;175077;34.36;340;03.18.20.136
12944;175077;34.36;341;03.18.20.136
12944;175089;34.36;342;03.18.20.169
12920;175080;34.36;343;03.18.20.169
12924;175084;34.36;344;03.18.20.169
12916;175089;34.36;345;03.18.20.169
12912;175096;34.36;346;03.18.20.169
12916;175097;34.36;347;03.18.20.169
12924;175095;34.36;348;03.18.20.169
12940;175088;34.36;349;03.18.20.169
12944;175089;34.36;350;03.18.20.246
12928;175086;34.36;351;03.18.20.246
12928;175087;34.36;352;03.18.20.246
12924;175086;34.36;353;03.18.20.246
12920;175083;34.36;354;03.18.20.246
12960;175077;34.36;355;03.18.20.246
12936;175080;34.36;356;03.18.20.246
12928;175070;34.36;357;03.18.20.246
12928;175068;34.36;358;03.18.20.257
12920;175077;34.36;359;03.18.20.257
12936;175069;34.36;360;03.18.20.257
12928;175071;34.36;361;03.18.20.257
12936;175058;34.36;362;03.18.20.257
12944;175057;34.36;363;03.18.20.257
12924;175043;34.36;364;03.18.20.257
12936;175038;34.36;365;03.18.20.257
12964;175046;34.36;366;03.18.20.257
12924;175040;34.36;367;03.18.20.290
12928;175029;34.36;368;03.18.20.290
12944;175030;34.36;369;03.18.20.290
12916;175031;34.36;370;03.18.20.290
12928;175012;34.36;371;03.18.20.290
12912;175015;34.36;372;03.18.20.290
12956;175015;34.36;373;03.18.20.290
12932;175006;34.36;374;03.18.20.290
12936;175008;34.36;375;03.18.20.377
12908;175006;34.36;376;03.18.20.377
12920;175002;34.36;377;03.18.20.377
12936;175002;34.36;378;03.18.20.377
12916;175005;34.36;379;03.18.20.388
12932;174995;34.36;380;03.18.20.388
