gsr; bvp; skt; skt2; Cont; time
12900;001554;34.80;900;03.42.17.297
12920;057576;34.80;901;03.42.17.297
12876;073904;34.80;902;03.42.17.297
12884;090340;34.80;903;03.42.17.308
12904;106710;34.80;904;03.42.17.308
12896;123131;34.80;905;03.42.17.308
12928;139493;34.80;906;03.42.17.308
12900;155874;34.80;907;03.42.17.308
12888;171509;34.80;908;03.42.17.308
12884;171233;34.80;909;03.42.17.308
12888;171225;34.80;910;03.42.17.308
12928;171231;34.80;911;03.42.17.308
12908;171226;34.80;912;03.42.17.308
12928;171220;34.80;913;03.42.17.308
12944;171221;34.80;914;03.42.17.308
12892;171217;34.80;915;03.42.17.308
12928;171209;34.80;916;03.42.17.319
12904;171214;34.80;917;03.42.17.319
12928;171207;34.80;918;03.42.17.319
12928;171208;34.80;919;03.42.17.319
12912;171197;34.80;920;03.42.17.319
12944;171200;34.80;921;03.42.17.330
12888;171200;34.80;922;03.42.17.330
12908;171189;34.80;923;03.42.17.330
12912;171189;34.80;924;03.42.17.330
12900;171185;34.80;925;03.42.17.419
12888;171186;34.80;926;03.42.17.419
12904;171180;34.80;927;03.42.17.430
12908;171190;34.80;928;03.42.17.430
12912;171188;34.80;929;03.42.17.430
12892;171183;34.80;930;03.42.17.430
12892;171186;34.80;931;03.42.17.430
12912;171188;34.80;932;03.42.17.430
12880;171193;34.80;933;03.42.17.430
12912;171196;34.80;934;03.42.17.430
12888;171184;34.80;935;03.42.17.430
12912;171184;34.80;936;03.42.17.430
12908;171176;34.80;937;03.42.17.430
12912;171178;34.80;938;03.42.17.430
12880;171180;34.80;939;03.42.17.430
12888;171180;34.80;940;03.42.17.441
12916;171180;34.80;941;03.42.17.441
12908;171180;34.80;942;03.42.17.441
12896;171182;34.80;943;03.42.17.441
12876;171173;34.80;944;03.42.17.441
12912;171174;34.80;945;03.42.17.441
12904;171167;34.80;946;03.42.17.441
12896;171174;34.80;947;03.42.17.441
12884;171163;34.80;948;03.42.17.441
12908;171167;34.80;949;03.42.17.441
12896;171176;34.80;950;03.42.17.551
12916;171165;34.80;951;03.42.17.551
12892;171166;34.80;952;03.42.17.551
12916;171159;34.80;953;03.42.17.551
12892;171153;34.80;954;03.42.17.551
12912;171161;34.80;955;03.42.17.551
12916;171154;34.80;956;03.42.17.551
12892;171156;34.80;957;03.42.17.551
12896;171159;34.80;958;03.42.17.551
12884;171152;34.80;959;03.42.17.551
12892;171162;34.80;960;03.42.17.551
12876;171151;34.80;961;03.42.17.562
12884;171154;34.80;962;03.42.17.562
12888;171151;34.80;963;03.42.17.562
12904;171152;34.80;964;03.42.17.562
12892;171146;34.80;965;03.42.17.562
12912;171149;34.80;966;03.42.17.562
12904;171149;34.80;967;03.42.17.562
12896;171154;34.80;968;03.42.17.562
12916;171150;34.80;969;03.42.17.562
12904;171146;34.80;970;03.42.17.562
12900;171144;34.80;971;03.42.17.562
12908;171148;34.80;972;03.42.17.562
12908;171143;34.80;973;03.42.17.562
12928;171147;34.80;974;03.42.17.573
12860;171133;34.80;975;03.42.17.683
12892;171143;34.80;976;03.42.17.683
12888;171141;34.80;977;03.42.17.683
12880;171137;34.80;978;03.42.17.683
12920;171144;34.80;979;03.42.17.683
12900;171148;34.80;980;03.42.17.683
12888;171142;34.80;981;03.42.17.683
12924;171145;34.80;982;03.42.17.683
12924;171139;34.80;983;03.42.17.694
12884;171135;34.80;984;03.42.17.694
12892;171145;34.80;985;03.42.17.694
12888;171151;34.80;986;03.42.17.694
12904;171142;34.80;987;03.42.17.694
12920;171146;34.80;988;03.42.17.694
12908;171149;34.80;989;03.42.17.694
12900;171140;34.80;990;03.42.17.694
12916;171146;34.80;991;03.42.17.694
12916;171151;34.80;992;03.42.17.694
12912;171143;34.80;993;03.42.17.694
12928;171151;34.80;994;03.42.17.694
12900;171150;34.80;995;03.42.17.705
12896;171150;34.80;996;03.42.17.705
12908;171150;34.80;997;03.42.17.705
12908;171143;34.80;998;03.42.17.705
12916;171150;34.80;999;03.42.17.705
12888;171147;34.80;000;03.42.17.792
12912;171147;34.80;001;03.42.17.792
12920;171147;34.80;002;03.42.17.792
12912;171153;34.80;003;03.42.17.792
12896;171156;34.80;004;03.42.17.803
12928;171149;34.80;005;03.42.17.803
12928;171159;34.80;006;03.42.17.803
12904;171158;34.80;007;03.42.17.803
12928;171153;34.80;008;03.42.17.803
12900;171154;34.80;009;03.42.17.803
12896;171163;34.80;010;03.42.17.803
12928;171170;34.80;011;03.42.17.803
12900;171163;34.80;012;03.42.17.814
12904;171159;34.80;013;03.42.17.814
12908;171167;34.80;014;03.42.17.814
12908;171168;34.80;015;03.42.17.814
12928;171175;34.80;016;03.42.17.814
12908;171169;34.80;017;03.42.17.814
12888;171164;34.80;018;03.42.17.814
12892;171175;34.80;019;03.42.17.814
12876;171171;34.80;020;03.42.17.814
12936;171166;34.80;021;03.42.17.814
12896;171170;34.80;022;03.42.17.825
12888;171168;34.80;023;03.42.17.825
12904;171170;34.80;024;03.42.17.825
12912;171178;34.80;025;03.42.17.923
12904;171172;34.80;026;03.42.17.923
12904;171174;34.80;027;03.42.17.923
12928;171178;34.80;028;03.42.17.923
12912;171170;34.80;029;03.42.17.923
12908;171164;34.80;030;03.42.17.923
12896;171165;34.80;031;03.42.17.923
12908;171153;34.80;032;03.42.17.923
12912;171157;34.80;033;03.42.17.923
12896;171148;34.80;034;03.42.17.923
12884;171143;34.80;035;03.42.17.923
12924;171142;34.80;036;03.42.17.923
12928;171139;34.80;037;03.42.17.923
12924;171130;34.80;038;03.42.17.934
12908;171123;34.80;039;03.42.17.934
12920;171119;34.80;040;03.42.17.934
12928;171118;34.80;041;03.42.17.934
12904;171115;34.80;042;03.42.17.934
12912;171111;34.80;043;03.42.17.934
12896;171111;34.80;044;03.42.17.934
12920;171101;34.80;045;03.42.17.934
12900;171100;34.80;046;03.42.17.934
12928;171089;34.80;047;03.42.17.934
12924;171092;34.80;048;03.42.17.934
12904;171092;34.80;049;03.42.17.934
12892;171090;34.84;050;03.42.18.044
12916;171086;34.84;051;03.42.18.044
12896;171084;34.84;052;03.42.18.044
12912;171077;34.84;053;03.42.18.044
12900;171080;34.84;054;03.42.18.044
12928;171071;34.84;055;03.42.18.044
12912;171075;34.84;056;03.42.18.044
12928;171075;34.84;057;03.42.18.044
12908;171073;34.84;058;03.42.18.044
12884;171073;34.84;059;03.42.18.055
12908;171077;34.84;060;03.42.18.055
12912;171077;34.84;061;03.42.18.055
12880;171074;34.84;062;03.42.18.055
12892;171074;34.84;063;03.42.18.055
12900;171069;34.84;064;03.42.18.055
12900;171073;34.84;065;03.42.18.055
12892;171066;34.84;066;03.42.18.055
12888;171070;34.84;067;03.42.18.055
12896;171066;34.84;068;03.42.18.055
12892;171067;34.84;069;03.42.18.055
12944;171058;34.84;070;03.42.18.055
12916;171060;34.84;071;03.42.18.055
12916;171067;34.84;072;03.42.18.066
12916;171058;34.84;073;03.42.18.066
12924;171068;34.84;074;03.42.18.066
12904;171071;34.84;075;03.42.18.186
12892;171066;34.84;076;03.42.18.186
12924;171067;34.84;077;03.42.18.186
12928;171062;34.84;078;03.42.18.186
12924;171067;34.84;079;03.42.18.186
12916;171074;34.84;080;03.42.18.197
12920;171077;34.84;081;03.42.18.197
12936;171064;34.84;082;03.42.18.197
12900;171067;34.84;083;03.42.18.197
12920;171068;34.84;084;03.42.18.197
12916;171065;34.84;085;03.42.18.197
12944;171070;34.84;086;03.42.18.197
12932;171062;34.84;087;03.42.18.197
12892;171075;34.84;088;03.42.18.197
12888;171065;34.84;089;03.42.18.197
12900;171066;34.84;090;03.42.18.197
12892;171069;34.84;091;03.42.18.197
12932;171066;34.84;092;03.42.18.208
12908;171067;34.84;093;03.42.18.208
12920;171062;34.84;094;03.42.18.208
12904;171068;34.84;095;03.42.18.208
12936;171065;34.84;096;03.42.18.208
12896;171065;34.84;097;03.42.18.208
12916;171065;34.84;098;03.42.18.208
12936;171062;34.84;099;03.42.18.208
12896;171057;34.80;100;03.42.18.307
12924;171055;34.80;101;03.42.18.318
12936;171057;34.80;102;03.42.18.318
12928;171065;34.80;103;03.42.18.318
12928;171061;34.80;104;03.42.18.318
12904;171061;34.80;105;03.42.18.318
12924;171060;34.80;106;03.42.18.318
12928;171055;34.80;107;03.42.18.318
12884;171058;34.80;108;03.42.18.318
12916;171051;34.80;109;03.42.18.318
12928;171055;34.80;110;03.42.18.318
12904;171059;34.80;111;03.42.18.318
12888;171064;34.80;112;03.42.18.318
12892;171061;34.80;113;03.42.18.329
12928;171063;34.80;114;03.42.18.329
12904;171065;34.80;115;03.42.18.329
12936;171067;34.80;116;03.42.18.329
12908;171069;34.80;117;03.42.18.329
12908;171063;34.80;118;03.42.18.329
12936;171071;34.80;119;03.42.18.329
12912;171057;34.80;120;03.42.18.329
12904;171061;34.80;121;03.42.18.329
12920;171061;34.80;122;03.42.18.329
12900;171067;34.80;123;03.42.18.329
12924;171066;34.80;124;03.42.18.329
12896;171061;34.80;125;03.42.18.428
12928;171075;34.80;126;03.42.18.428
12892;171071;34.80;127;03.42.18.428
12892;171073;34.80;128;03.42.18.428
12912;171075;34.80;129;03.42.18.428
12896;171071;34.80;130;03.42.18.428
12924;171084;34.80;131;03.42.18.428
12928;171076;34.80;132;03.42.18.428
12904;171076;34.80;133;03.42.18.428
12932;171081;34.80;134;03.42.18.428
12900;171080;34.80;135;03.42.18.439
12892;171070;34.80;136;03.42.18.439
12880;171077;34.80;137;03.42.18.439
12928;171080;34.80;138;03.42.18.439
12908;171080;34.80;139;03.42.18.439
12908;171077;34.80;140;03.42.18.439
12912;171080;34.80;141;03.42.18.439
12876;171088;34.80;142;03.42.18.461
12928;171067;34.80;143;03.42.18.461
12932;171083;34.80;144;03.42.18.461
12916;171086;34.80;145;03.42.18.461
12900;171080;34.80;146;03.42.18.461
12892;171084;34.80;147;03.42.18.461
12892;171083;34.80;148;03.42.18.461
12932;171087;34.80;149;03.42.18.461
12884;171084;34.80;150;03.42.18.548
12924;171087;34.80;151;03.42.18.548
12912;171093;34.80;152;03.42.18.548
12892;171086;34.80;153;03.42.18.548
12928;171089;34.80;154;03.42.18.548
12884;171091;34.80;155;03.42.18.548
12912;171090;34.80;156;03.42.18.559
12924;171092;34.80;157;03.42.18.559
12872;171086;34.80;158;03.42.18.559
12908;171091;34.80;159;03.42.18.559
12888;171093;34.80;160;03.42.18.559
12928;171090;34.80;161;03.42.18.559
12916;171098;34.80;162;03.42.18.559
12892;171098;34.80;163;03.42.18.559
12904;171094;34.80;164;03.42.18.559
12884;171094;34.80;165;03.42.18.559
12904;171094;34.80;166;03.42.18.559
12904;171095;34.80;167;03.42.18.581
12960;171098;34.80;168;03.42.18.581
12904;171094;34.80;169;03.42.18.581
12900;171092;34.80;170;03.42.18.581
12928;171089;34.80;171;03.42.18.581
12908;171089;34.80;172;03.42.18.581
12912;171080;34.80;173;03.42.18.592
12908;171084;34.80;174;03.42.18.592
12884;171080;34.80;175;03.42.18.680
12904;171069;34.80;176;03.42.18.680
12924;171056;34.80;177;03.42.18.691
12920;171059;34.80;178;03.42.18.691
12900;171054;34.80;179;03.42.18.691
12916;171041;34.80;180;03.42.18.691
12892;171041;34.80;181;03.42.18.691
12912;171039;34.80;182;03.42.18.691
12896;171027;34.80;183;03.42.18.691
12892;171027;34.80;184;03.42.18.691
12892;171021;34.80;185;03.42.18.691
12944;171018;34.80;186;03.42.18.691
12892;171020;34.80;187;03.42.18.691
12916;171015;34.80;188;03.42.18.691
12916;171012;34.80;189;03.42.18.691
12944;171002;34.80;190;03.42.18.691
12892;170996;34.80;191;03.42.18.703
12912;170988;34.80;192;03.42.18.703
12892;171001;34.80;193;03.42.18.703
12892;170998;34.80;194;03.42.18.703
12900;170990;34.80;195;03.42.18.703
12936;170988;34.80;196;03.42.18.703
12928;170995;34.80;197;03.42.18.703
12900;170981;34.80;198;03.42.18.703
12912;170990;34.80;199;03.42.18.703
12872;170982;34.80;200;03.42.18.801
12928;170983;34.80;201;03.42.18.801
12900;170983;34.80;202;03.42.18.801
12932;170975;34.80;203;03.42.18.801
12916;170979;34.80;204;03.42.18.801
12920;170980;34.80;205;03.42.18.801
12892;170987;34.80;206;03.42.18.801
12928;170986;34.80;207;03.42.18.801
12900;170985;34.80;208;03.42.18.801
12892;170974;34.80;209;03.42.18.812
12888;170969;34.80;210;03.42.18.812
12928;170979;34.80;211;03.42.18.812
12908;170983;34.80;212;03.42.18.812
12896;170982;34.80;213;03.42.18.812
12924;170973;34.80;214;03.42.18.812
12928;170979;34.80;215;03.42.18.812
12904;170980;34.80;216;03.42.18.812
12928;170973;34.80;217;03.42.18.812
12908;170975;34.80;218;03.42.18.812
12892;170976;34.80;219;03.42.18.812
12912;170978;34.80;220;03.42.18.812
12916;170983;34.80;221;03.42.18.812
12892;170978;34.80;222;03.42.18.813
12900;170966;34.80;223;03.42.18.813
12916;170983;34.80;224;03.42.18.825
12896;170979;34.80;225;03.42.18.924
12912;170975;34.80;226;03.42.18.924
12916;170970;34.80;227;03.42.18.924
12872;170976;34.80;228;03.42.18.924
12912;170982;34.80;229;03.42.18.924
12892;170986;34.80;230;03.42.18.924
12880;170965;34.80;231;03.42.18.924
12904;170970;34.80;232;03.42.18.924
12900;170975;34.80;233;03.42.18.956
12944;170986;34.80;234;03.42.18.956
12888;170977;34.80;235;03.42.18.956
12908;170968;34.80;236;03.42.18.956
12904;170975;34.80;237;03.42.18.956
12928;170963;34.80;238;03.42.18.956
12904;170971;34.80;239;03.42.18.956
12912;170979;34.80;240;03.42.18.956
12932;170966;34.80;241;03.42.18.956
12884;170972;34.80;242;03.42.18.956
12912;170975;34.80;243;03.42.18.956
12892;170970;34.80;244;03.42.18.967
12912;170966;34.80;245;03.42.18.967
12924;170952;34.80;246;03.42.18.967
12928;170961;34.80;247;03.42.18.967
12900;170972;34.80;248;03.42.18.967
12924;170970;34.80;249;03.42.18.967
12880;170966;34.80;250;03.42.19.043
12900;170969;34.80;251;03.42.19.043
12904;170969;34.80;252;03.42.19.043
12904;170972;34.80;253;03.42.19.043
12920;170976;34.80;254;03.42.19.043
12916;170975;34.80;255;03.42.19.043
12908;170980;34.80;256;03.42.19.043
12944;170972;34.80;257;03.42.19.054
12912;170968;34.80;258;03.42.19.054
12892;170969;34.80;259;03.42.19.054
12900;170961;34.80;260;03.42.19.054
12892;170972;34.80;261;03.42.19.054
12900;170973;34.80;262;03.42.19.054
12908;170977;34.80;263;03.42.19.054
12928;170975;34.80;264;03.42.19.054
12912;170978;34.80;265;03.42.19.054
12904;170979;34.80;266;03.42.19.054
12896;170981;34.80;267;03.42.19.054
12908;170975;34.80;268;03.42.19.054
12892;170974;34.80;269;03.42.19.054
12892;170984;34.80;270;03.42.19.054
12920;170978;34.80;271;03.42.19.066
12916;170995;34.80;272;03.42.19.066
12904;170989;34.80;273;03.42.19.066
12916;170992;34.80;274;03.42.19.066
12904;170986;34.80;275;03.42.19.175
12876;170984;34.80;276;03.42.19.175
12904;170987;34.80;277;03.42.19.186
12892;170984;34.80;278;03.42.19.186
12924;170988;34.80;279;03.42.19.186
12908;170990;34.80;280;03.42.19.186
12892;170995;34.80;281;03.42.19.186
12928;170995;34.80;282;03.42.19.186
12928;170994;34.80;283;03.42.19.186
12932;170998;34.80;284;03.42.19.186
12908;170999;34.80;285;03.42.19.186
12900;171003;34.80;286;03.42.19.186
12904;170998;34.80;287;03.42.19.186
12944;171004;34.80;288;03.42.19.186
12928;171003;34.80;289;03.42.19.186
12888;171007;34.80;290;03.42.19.186
12892;171016;34.80;291;03.42.19.197
12892;171008;34.80;292;03.42.19.197
12892;171005;34.80;293;03.42.19.197
12920;171019;34.80;294;03.42.19.197
12904;171012;34.80;295;03.42.19.197
12892;171008;34.80;296;03.42.19.197
12920;171010;34.80;297;03.42.19.197
12908;171011;34.80;298;03.42.19.197
12924;171010;34.80;299;03.42.19.197
12904;171020;34.76;300;03.42.19.307
12936;171016;34.76;301;03.42.19.307
12884;171020;34.76;302;03.42.19.307
12896;171018;34.76;303;03.42.19.307
12932;171025;34.76;304;03.42.19.307
12904;171024;34.76;305;03.42.19.307
12928;171019;34.76;306;03.42.19.307
12892;171014;34.76;307;03.42.19.307
12904;171016;34.76;308;03.42.19.307
12920;171015;34.76;309;03.42.19.307
12932;171013;34.76;310;03.42.19.307
12892;171016;34.76;311;03.42.19.307
12924;171010;34.76;312;03.42.19.318
12912;171003;34.76;313;03.42.19.318
12908;171003;34.76;314;03.42.19.318
12884;170997;34.76;315;03.42.19.318
12888;170993;34.76;316;03.42.19.318
12944;170987;34.76;317;03.42.19.318
12896;170983;34.76;318;03.42.19.318
12936;170987;34.76;319;03.42.19.318
12892;170977;34.76;320;03.42.19.318
12888;170977;34.76;321;03.42.19.318
12892;170967;34.76;322;03.42.19.318
12916;170967;34.76;323;03.42.19.318
12912;170960;34.76;324;03.42.19.329
12900;170953;34.76;325;03.42.19.449
12924;170958;34.76;326;03.42.19.449
12888;170954;34.76;327;03.42.19.449
12900;170947;34.76;328;03.42.19.449
12928;170941;34.76;329;03.42.19.449
12920;170936;34.76;330;03.42.19.449
12896;170941;34.76;331;03.42.19.449
12904;170939;34.76;332;03.42.19.449
12936;170934;34.76;333;03.42.19.450
12892;170935;34.76;334;03.42.19.461
12904;170928;34.76;335;03.42.19.461
12892;170932;34.76;336;03.42.19.461
12904;170930;34.76;337;03.42.19.461
12908;170926;34.76;338;03.42.19.461
12916;170930;34.76;339;03.42.19.461
12900;170925;34.76;340;03.42.19.461
12912;170930;34.76;341;03.42.19.461
12928;170924;34.76;342;03.42.19.472
12928;170917;34.76;343;03.42.19.472
12932;170929;34.76;344;03.42.19.472
12928;170922;34.76;345;03.42.19.472
12900;170917;34.76;346;03.42.19.472
12928;170923;34.76;347;03.42.19.472
12920;170918;34.76;348;03.42.19.472
12936;170911;34.76;349;03.42.19.472
12928;170917;34.80;350;03.42.19.582
12908;170921;34.80;351;03.42.19.582
12896;170925;34.80;352;03.42.19.582
12892;170923;34.80;353;03.42.19.582
12876;170921;34.80;354;03.42.19.582
12924;170921;34.80;355;03.42.19.582
12908;170926;34.80;356;03.42.19.593
12888;170924;34.80;357;03.42.19.593
12908;170926;34.80;358;03.42.19.593
12924;170922;34.80;359;03.42.19.593
12928;170926;34.80;360;03.42.19.593
12920;170925;34.80;361;03.42.19.593
12920;170921;34.80;362;03.42.19.593
12904;170925;34.80;363;03.42.19.593
12928;170916;34.80;364;03.42.19.593
12904;170920;34.80;365;03.42.19.593
12904;170926;34.80;366;03.42.19.593
12900;170926;34.80;367;03.42.19.593
12912;170933;34.80;368;03.42.19.593
12928;170932;34.80;369;03.42.19.604
12888;170927;34.80;370;03.42.19.604
12892;170929;34.80;371;03.42.19.604
12916;170927;34.80;372;03.42.19.604
12928;170919;34.80;373;03.42.19.604
12932;170926;34.80;374;03.42.19.604
12916;170933;34.80;375;03.42.19.670
12892;170927;34.80;376;03.42.19.670
12892;170926;34.80;377;03.42.19.670
12928;170930;34.80;378;03.42.19.681
12912;170930;34.80;379;03.42.19.681
12904;170936;34.80;380;03.42.19.681
12896;170928;34.80;381;03.42.19.681
12900;170933;34.80;382;03.42.19.681
12912;170932;34.80;383;03.42.19.681
12912;170933;34.80;384;03.42.19.681
12892;170925;34.80;385;03.42.19.681
12916;170935;34.80;386;03.42.19.681
12912;170932;34.80;387;03.42.19.681
12928;170933;34.80;388;03.42.19.681
12912;170921;34.80;389;03.42.19.681
12900;170929;34.80;390;03.42.19.682
12880;170935;34.80;391;03.42.19.693
12892;170933;34.80;392;03.42.19.715
12908;170935;34.80;393;03.42.19.715
12876;170937;34.80;394;03.42.19.715
12884;170944;34.80;395;03.42.19.726
12896;170942;34.80;396;03.42.19.726
12876;170939;34.80;397;03.42.19.726
12912;170955;34.80;398;03.42.19.726
12916;170954;34.80;399;03.42.19.726
12916;170948;34.80;400;03.42.19.813
12900;170948;34.80;401;03.42.19.813
12888;170950;34.80;402;03.42.19.813
12908;170946;34.80;403;03.42.19.813
12920;170948;34.80;404;03.42.19.813
12900;170949;34.80;405;03.42.19.813
12916;170957;34.80;406;03.42.19.813
12912;170962;34.80;407;03.42.19.813
12912;170953;34.80;408;03.42.19.813
12920;170958;34.80;409;03.42.19.813
12876;170967;34.80;410;03.42.19.813
12904;170964;34.80;411;03.42.19.813
12908;170957;34.80;412;03.42.19.824
12904;170961;34.80;413;03.42.19.824
12900;170974;34.80;414;03.42.19.824
12912;170970;34.80;415;03.42.19.824
12908;170969;34.80;416;03.42.19.824
12908;170973;34.80;417;03.42.19.824
12928;170972;34.80;418;03.42.19.824
12916;170975;34.80;419;03.42.19.824
12900;170971;34.80;420;03.42.19.824
12892;170980;34.80;421;03.42.19.824
12900;170978;34.80;422;03.42.19.824
12892;170974;34.80;423;03.42.19.824
12904;170982;34.80;424;03.42.19.824
12904;170986;34.80;425;03.42.19.923
12912;170984;34.80;426;03.42.19.923
12896;170991;34.80;427;03.42.19.923
12908;170988;34.80;428;03.42.19.923
12928;170987;34.80;429;03.42.19.923
12904;170996;34.80;430;03.42.19.923
12884;170995;34.80;431;03.42.19.923
12904;170993;34.80;432;03.42.19.923
12912;170995;34.80;433;03.42.19.945
12908;170999;34.80;434;03.42.19.945
12912;171004;34.80;435;03.42.19.945
12908;171002;34.80;436;03.42.19.945
12876;171000;34.80;437;03.42.19.945
12908;171000;34.80;438;03.42.19.945
12932;171005;34.80;439;03.42.19.945
12900;171011;34.80;440;03.42.19.945
12876;171015;34.80;441;03.42.19.945
12920;171008;34.80;442;03.42.19.956
12936;171016;34.80;443;03.42.19.956
12912;171009;34.80;444;03.42.19.956
12888;171022;34.80;445;03.42.19.956
12904;171023;34.80;446;03.42.19.956
12888;171016;34.80;447;03.42.19.956
12900;171032;34.80;448;03.42.19.956
12916;171023;34.80;449;03.42.19.956
12924;171020;34.80;450;03.42.20.044
12908;171014;34.80;451;03.42.20.044
12912;171019;34.80;452;03.42.20.044
12912;171018;34.80;453;03.42.20.044
12916;171012;34.80;454;03.42.20.044
12912;171018;34.80;455;03.42.20.044
12944;171006;34.80;456;03.42.20.055
12916;171006;34.80;457;03.42.20.055
12932;170998;34.80;458;03.42.20.055
12900;171000;34.80;459;03.42.20.055
12896;170993;34.80;460;03.42.20.055
12932;170978;34.80;461;03.42.20.055
12924;170988;34.80;462;03.42.20.055
12944;170971;34.80;463;03.42.20.055
12880;170962;34.80;464;03.42.20.055
12908;170967;34.80;465;03.42.20.055
12916;170963;34.80;466;03.42.20.055
12892;170966;34.80;467;03.42.20.077
12876;170957;34.80;468;03.42.20.077
12896;170951;34.80;469;03.42.20.077
12892;170952;34.80;470;03.42.20.077
12928;170936;34.80;471;03.42.20.077
12900;170944;34.80;472;03.42.20.077
12920;170942;34.80;473;03.42.20.088
12920;170929;34.80;474;03.42.20.088
12900;170934;34.80;475;03.42.20.164
12896;170925;34.80;476;03.42.20.164
12916;170920;34.80;477;03.42.20.176
12912;170921;34.80;478;03.42.20.176
12888;170925;34.80;479;03.42.20.176
12888;170926;34.80;480;03.42.20.176
12892;170928;34.80;481;03.42.20.176
12900;170919;34.80;482;03.42.20.176
12928;170913;34.80;483;03.42.20.176
12904;170919;34.80;484;03.42.20.176
12928;170915;34.80;485;03.42.20.176
12912;170919;34.80;486;03.42.20.176
12912;170916;34.80;487;03.42.20.176
12892;170921;34.80;488;03.42.20.176
12920;170920;34.80;489;03.42.20.176
12860;170923;34.80;490;03.42.20.187
12892;170927;34.80;491;03.42.20.187
12896;170917;34.80;492;03.42.20.187
12920;170924;34.80;493;03.42.20.187
12928;170925;34.80;494;03.42.20.187
12916;170931;34.80;495;03.42.20.187
12884;170921;34.80;496;03.42.20.187
12892;170926;34.80;497;03.42.20.187
12912;170938;34.80;498;03.42.20.187
12916;170933;34.80;499;03.42.20.187
12904;170927;34.76;500;03.42.20.308
12908;170941;34.76;501;03.42.20.308
12920;170936;34.76;502;03.42.20.308
12888;170941;34.76;503;03.42.20.308
12924;170935;34.76;504;03.42.20.308
12912;170943;34.76;505;03.42.20.308
12904;170941;34.76;506;03.42.20.308
12892;170937;34.76;507;03.42.20.308
12912;170942;34.76;508;03.42.20.308
12884;170940;34.76;509;03.42.20.308
12908;170940;34.76;510;03.42.20.308
12896;170941;34.76;511;03.42.20.319
12892;170944;34.76;512;03.42.20.319
12924;170948;34.76;513;03.42.20.319
12912;170949;34.76;514;03.42.20.319
12928;170957;34.76;515;03.42.20.319
12928;170956;34.76;516;03.42.20.319
12912;170954;34.76;517;03.42.20.319
12912;170960;34.76;518;03.42.20.319
12912;170946;34.76;519;03.42.20.319
12900;170942;34.76;520;03.42.20.319
12928;170944;34.76;521;03.42.20.319
12924;170949;34.76;522;03.42.20.319
12908;170953;34.76;523;03.42.20.319
12920;170950;34.76;524;03.42.20.319
12892;170950;34.76;525;03.42.20.439
12928;170956;34.76;526;03.42.20.439
12908;170958;34.76;527;03.42.20.439
12912;170946;34.76;528;03.42.20.439
12916;170949;34.76;529;03.42.20.439
12908;170956;34.76;530;03.42.20.439
12908;170949;34.76;531;03.42.20.439
12892;170959;34.76;532;03.42.20.439
12912;170949;34.76;533;03.42.20.450
12900;170950;34.76;534;03.42.20.450
12912;170962;34.76;535;03.42.20.450
12908;170956;34.76;536;03.42.20.450
12900;170955;34.76;537;03.42.20.450
12896;170954;34.76;538;03.42.20.450
12884;170968;34.76;539;03.42.20.450
12896;170966;34.76;540;03.42.20.450
12916;170965;34.76;541;03.42.20.450
12888;170962;34.76;542;03.42.20.450
12912;170974;34.76;543;03.42.20.450
12912;170969;34.76;544;03.42.20.450
12904;170966;34.76;545;03.42.20.450
12908;170966;34.76;546;03.42.20.461
12912;170966;34.76;547;03.42.20.461
12900;170966;34.76;548;03.42.20.461
12916;170972;34.76;549;03.42.20.461
12908;170974;34.80;550;03.42.20.549
12884;170975;34.80;551;03.42.20.549
12876;170985;34.80;552;03.42.20.549
12904;170984;34.80;553;03.42.20.549
12912;170985;34.80;554;03.42.20.560
12904;170995;34.80;555;03.42.20.560
12912;170985;34.80;556;03.42.20.560
12916;170992;34.80;557;03.42.20.560
12884;170996;34.80;558;03.42.20.571
12928;170992;34.80;559;03.42.20.571
12920;170991;34.80;560;03.42.20.571
12892;170998;34.80;561;03.42.20.571
12892;170999;34.80;562;03.42.20.571
12920;170997;34.80;563;03.42.20.571
12900;171000;34.80;564;03.42.20.583
12892;171005;34.80;565;03.42.20.583
12888;171004;34.80;566;03.42.20.583
12928;171001;34.80;567;03.42.20.583
12892;171004;34.80;568;03.42.20.583
12908;171004;34.80;569;03.42.20.583
12884;171014;34.80;570;03.42.20.583
12900;171016;34.80;571;03.42.20.583
12892;171022;34.80;572;03.42.20.583
12892;171019;34.80;573;03.42.20.583
12904;171017;34.80;574;03.42.20.583
12916;171016;34.80;575;03.42.20.671
12912;171015;34.80;576;03.42.20.671
12928;171024;34.80;577;03.42.20.682
12892;171022;34.80;578;03.42.20.682
12908;171024;34.80;579;03.42.20.682
12912;171023;34.80;580;03.42.20.682
12912;171034;34.80;581;03.42.20.682
12912;171032;34.80;582;03.42.20.682
12892;171033;34.80;583;03.42.20.682
12908;171035;34.80;584;03.42.20.682
12896;171033;34.80;585;03.42.20.682
12892;171036;34.80;586;03.42.20.682
12904;171032;34.80;587;03.42.20.682
12900;171033;34.80;588;03.42.20.682
12912;171043;34.80;589;03.42.20.682
12884;171039;34.80;590;03.42.20.693
12904;171035;34.80;591;03.42.20.693
12884;171034;34.80;592;03.42.20.693
12900;171033;34.80;593;03.42.20.693
12884;171035;34.80;594;03.42.20.693
12920;171034;34.80;595;03.42.20.693
12900;171039;34.80;596;03.42.20.693
12896;171041;34.80;597;03.42.20.693
12932;171040;34.80;598;03.42.20.693
12932;171041;34.80;599;03.42.20.693
12888;171036;34.84;600;03.42.20.802
12896;171039;34.84;601;03.42.20.802
12896;171031;34.84;602;03.42.20.802
12920;171036;34.84;603;03.42.20.802
12908;171027;34.84;604;03.42.20.802
12912;171030;34.84;605;03.42.20.802
12892;171024;34.84;606;03.42.20.802
12928;171015;34.84;607;03.42.20.802
12920;171020;34.84;608;03.42.20.802
12892;171010;34.84;609;03.42.20.802
12904;171006;34.84;610;03.42.20.802
12928;171000;34.84;611;03.42.20.813
12912;170989;34.84;612;03.42.20.813
12916;170989;34.84;613;03.42.20.813
12896;170983;34.84;614;03.42.20.813
12912;170972;34.84;615;03.42.20.813
12896;170983;34.84;616;03.42.20.813
12936;170972;34.84;617;03.42.20.813
12904;170974;34.84;618;03.42.20.813
12888;170971;34.84;619;03.42.20.813
12860;170970;34.84;620;03.42.20.813
12884;170956;34.84;621;03.42.20.813
12900;170959;34.84;622;03.42.20.813
12884;170957;34.84;623;03.42.20.824
12936;170957;34.84;624;03.42.20.824
12896;170964;34.84;625;03.42.20.933
12916;170956;34.84;626;03.42.20.933
12908;170956;34.84;627;03.42.20.933
12912;170952;34.84;628;03.42.20.933
12888;170945;34.84;629;03.42.20.933
12920;170952;34.84;630;03.42.20.933
12928;170953;34.84;631;03.42.20.933
12916;170954;34.84;632;03.42.20.944
12888;170951;34.84;633;03.42.20.944
12908;170944;34.84;634;03.42.20.944
12896;170946;34.84;635;03.42.20.944
12888;170950;34.84;636;03.42.20.944
12908;170949;34.84;637;03.42.20.944
12900;170945;34.84;638;03.42.20.944
12888;170951;34.84;639;03.42.20.944
12928;170948;34.84;640;03.42.20.944
12944;170949;34.84;641;03.42.20.944
12928;170946;34.84;642;03.42.20.944
12888;170951;34.84;643;03.42.20.944
12896;170945;34.84;644;03.42.20.955
12908;170948;34.84;645;03.42.20.955
12880;170959;34.84;646;03.42.20.955
12896;170959;34.84;647;03.42.20.955
12916;170955;34.84;648;03.42.20.955
12932;170954;34.84;649;03.42.20.955
12916;170949;34.80;650;03.42.21.043
12928;170958;34.80;651;03.42.21.043
12912;170959;34.80;652;03.42.21.043
12892;170954;34.80;653;03.42.21.054
12904;170964;34.80;654;03.42.21.054
12912;170959;34.80;655;03.42.21.054
12904;170956;34.80;656;03.42.21.054
12912;170957;34.80;657;03.42.21.054
12904;170962;34.80;658;03.42.21.054
12892;170958;34.80;659;03.42.21.065
12892;170963;34.80;660;03.42.21.065
12904;170957;34.80;661;03.42.21.065
12904;170962;34.80;662;03.42.21.065
12900;170960;34.80;663;03.42.21.065
12888;170960;34.80;664;03.42.21.065
12916;170957;34.80;665;03.42.21.065
12916;170955;34.80;666;03.42.21.065
12928;170952;34.80;667;03.42.21.065
12896;170956;34.80;668;03.42.21.065
12908;170958;34.80;669;03.42.21.065
12944;170961;34.80;670;03.42.21.065
12904;170960;34.80;671;03.42.21.076
12892;170960;34.80;672;03.42.21.076
12896;170956;34.80;673;03.42.21.076
12928;170953;34.80;674;03.42.21.076
12908;170954;34.80;675;03.42.21.174
12908;170952;34.80;676;03.42.21.174
12928;170942;34.80;677;03.42.21.174
12900;170958;34.80;678;03.42.21.174
12904;170942;34.80;679;03.42.21.174
12908;170946;34.80;680;03.42.21.174
12920;170949;34.80;681;03.42.21.174
12888;170942;34.80;682;03.42.21.174
12884;170946;34.80;683;03.42.21.185
12928;170943;34.80;684;03.42.21.185
12896;170947;34.80;685;03.42.21.185
12924;170940;34.80;686;03.42.21.185
12908;170953;34.80;687;03.42.21.185
12892;170947;34.80;688;03.42.21.185
12904;170952;34.80;689;03.42.21.185
12916;170950;34.80;690;03.42.21.185
12920;170947;34.80;691;03.42.21.185
12928;170944;34.80;692;03.42.21.207
12928;170954;34.80;693;03.42.21.207
12912;170955;34.80;694;03.42.21.207
12904;170944;34.80;695;03.42.21.207
12928;170951;34.80;696;03.42.21.207
12876;170960;34.80;697;03.42.21.207
12912;170954;34.80;698;03.42.21.207
12928;170953;34.80;699;03.42.21.207
12888;170960;34.80;700;03.42.21.295
12908;170954;34.80;701;03.42.21.295
12928;170966;34.80;702;03.42.21.295
12904;170959;34.80;703;03.42.21.295
12892;170957;34.80;704;03.42.21.295
12892;170955;34.80;705;03.42.21.295
12928;170964;34.80;706;03.42.21.295
12888;170960;34.80;707;03.42.21.295
12912;170967;34.80;708;03.42.21.295
12888;170964;34.80;709;03.42.21.306
12892;170966;34.80;710;03.42.21.306
12896;170971;34.80;711;03.42.21.306
12884;170966;34.80;712;03.42.21.306
12892;170977;34.80;713;03.42.21.306
12900;170968;34.80;714;03.42.21.306
12892;170970;34.80;715;03.42.21.306
12912;170974;34.80;716;03.42.21.306
12892;170978;34.80;717;03.42.21.306
12928;170974;34.80;718;03.42.21.306
12884;170978;34.80;719;03.42.21.306
12900;170971;34.80;720;03.42.21.306
12900;170976;34.80;721;03.42.21.306
12892;170976;34.80;722;03.42.21.317
12908;170981;34.80;723;03.42.21.317
12928;170982;34.80;724;03.42.21.317
12916;170986;34.80;725;03.42.21.427
12892;170984;34.80;726;03.42.21.427
12892;170972;34.80;727;03.42.21.427
12892;170983;34.80;728;03.42.21.427
12888;170983;34.80;729;03.42.21.427
12904;170981;34.80;730;03.42.21.438
12912;170987;34.80;731;03.42.21.438
12920;170985;34.80;732;03.42.21.438
12908;170978;34.80;733;03.42.21.438
12916;170981;34.80;734;03.42.21.438
12920;170982;34.80;735;03.42.21.438
12892;170977;34.80;736;03.42.21.438
12916;170976;34.80;737;03.42.21.438
12896;170974;34.80;738;03.42.21.438
12884;170973;34.80;739;03.42.21.438
12900;170967;34.80;740;03.42.21.438
12916;170965;34.80;741;03.42.21.438
12900;170960;34.80;742;03.42.21.438
12904;170955;34.80;743;03.42.21.449
12928;170951;34.80;744;03.42.21.449
12908;170951;34.80;745;03.42.21.449
12868;170948;34.80;746;03.42.21.449
12920;170939;34.80;747;03.42.21.449
12900;170940;34.80;748;03.42.21.449
12896;170932;34.80;749;03.42.21.449
12928;170935;34.80;750;03.42.21.558
12928;170926;34.80;751;03.42.21.569
12896;170932;34.80;752;03.42.21.569
12896;170919;34.80;753;03.42.21.569
12928;170919;34.80;754;03.42.21.569
12928;170918;34.80;755;03.42.21.569
12888;170911;34.80;756;03.42.21.569
12864;170907;34.80;757;03.42.21.569
12892;170906;34.80;758;03.42.21.569
12912;170902;34.80;759;03.42.21.569
12884;170902;34.80;760;03.42.21.569
12884;170894;34.80;761;03.42.21.569
12928;170892;34.80;762;03.42.21.569
12884;170893;34.80;763;03.42.21.580
12888;170892;34.80;764;03.42.21.580
12920;170896;34.80;765;03.42.21.580
12892;170891;34.80;766;03.42.21.580
12912;170900;34.80;767;03.42.21.580
12928;170893;34.80;768;03.42.21.580
12904;170895;34.80;769;03.42.21.580
12904;170897;34.80;770;03.42.21.580
12904;170900;34.80;771;03.42.21.580
12928;170901;34.80;772;03.42.21.580
12916;170894;34.80;773;03.42.21.580
12924;170897;34.80;774;03.42.21.580
12908;170896;34.80;775;03.42.21.679
12912;170897;34.80;776;03.42.21.679
12916;170900;34.80;777;03.42.21.679
12904;170900;34.80;778;03.42.21.679
12916;170896;34.80;779;03.42.21.679
12904;170906;34.80;780;03.42.21.679
12928;170890;34.80;781;03.42.21.679
12912;170903;34.80;782;03.42.21.679
12904;170897;34.80;783;03.42.21.690
12868;170899;34.80;784;03.42.21.690
12884;170904;34.80;785;03.42.21.690
12884;170904;34.80;786;03.42.21.690
12912;170907;34.80;787;03.42.21.690
12916;170906;34.80;788;03.42.21.690
12900;170905;34.80;789;03.42.21.690
12904;170906;34.80;790;03.42.21.690
12904;170906;34.80;791;03.42.21.690
12884;170911;34.80;792;03.42.21.690
12932;170916;34.80;793;03.42.21.701
12904;170918;34.80;794;03.42.21.701
12900;170908;34.80;795;03.42.21.701
12920;170904;34.80;796;03.42.21.701
12900;170903;34.80;797;03.42.21.701
12908;170906;34.80;798;03.42.21.701
12948;170911;34.80;799;03.42.21.701
12892;170908;34.80;800;03.42.21.799
12888;170904;34.80;801;03.42.21.799
12892;170911;34.80;802;03.42.21.799
12900;170909;34.80;803;03.42.21.799
12896;170906;34.80;804;03.42.21.799
12916;170901;34.80;805;03.42.21.799
12892;170891;34.80;806;03.42.21.810
12888;170905;34.80;807;03.42.21.810
12916;170909;34.80;808;03.42.21.810
12888;170905;34.80;809;03.42.21.810
12944;170920;34.80;810;03.42.21.810
12888;170914;34.80;811;03.42.21.810
12908;170911;34.80;812;03.42.21.810
12896;170912;34.80;813;03.42.21.810
12916;170908;34.80;814;03.42.21.810
12928;170914;34.80;815;03.42.21.810
12924;170902;34.80;816;03.42.21.810
12888;170912;34.80;817;03.42.21.810
12908;170914;34.80;818;03.42.21.810
12920;170908;34.80;819;03.42.21.821
12896;170905;34.80;820;03.42.21.821
12900;170910;34.80;821;03.42.21.821
12904;170917;34.80;822;03.42.21.821
12908;170920;34.80;823;03.42.21.821
12920;170909;34.80;824;03.42.21.821
12924;170923;34.80;825;03.42.21.919
12884;170919;34.80;826;03.42.21.919
12916;170918;34.80;827;03.42.21.930
12908;170918;34.80;828;03.42.21.930
12912;170919;34.80;829;03.42.21.930
12916;170918;34.80;830;03.42.21.930
12892;170917;34.80;831;03.42.21.930
12928;170913;34.80;832;03.42.21.930
12908;170930;34.80;833;03.42.21.930
12908;170927;34.80;834;03.42.21.930
12932;170932;34.80;835;03.42.21.930
12908;170932;34.80;836;03.42.21.930
12908;170934;34.80;837;03.42.21.930
12912;170928;34.80;838;03.42.21.930
12920;170930;34.80;839;03.42.21.930
12912;170933;34.80;840;03.42.21.941
12924;170926;34.80;841;03.42.21.941
12936;170931;34.80;842;03.42.21.941
12892;170941;34.80;843;03.42.21.941
12916;170937;34.80;844;03.42.21.941
12896;170939;34.80;845;03.42.21.941
12912;170934;34.80;846;03.42.21.941
12936;170944;34.80;847;03.42.21.941
12912;170938;34.80;848;03.42.21.941
12908;170943;34.80;849;03.42.21.941
12952;170952;34.80;850;03.42.22.062
12924;170949;34.80;851;03.42.22.062
12900;170950;34.80;852;03.42.22.062
12916;170945;34.80;853;03.42.22.062
12912;170952;34.80;854;03.42.22.062
12908;170950;34.80;855;03.42.22.062
12908;170961;34.80;856;03.42.22.062
12892;170957;34.80;857;03.42.22.062
12912;170954;34.80;858;03.42.22.073
12916;170959;34.80;859;03.42.22.073
12916;170956;34.80;860;03.42.22.073
12908;170963;34.80;861;03.42.22.073
12912;170964;34.80;862;03.42.22.073
12900;170948;34.80;863;03.42.22.073
12920;170954;34.80;864;03.42.22.073
12892;170961;34.80;865;03.42.22.073
12924;170960;34.80;866;03.42.22.073
12892;170963;34.80;867;03.42.22.073
12908;170960;34.80;868;03.42.22.073
12916;170966;34.80;869;03.42.22.073
12896;170957;34.80;870;03.42.22.084
12908;170966;34.80;871;03.42.22.084
12916;170966;34.80;872;03.42.22.084
12900;170970;34.80;873;03.42.22.084
12908;170968;34.80;874;03.42.22.084
12892;170972;34.80;875;03.42.22.172
12892;170965;34.80;876;03.42.22.172
12904;170959;34.80;877;03.42.22.172
12916;170959;34.80;878;03.42.22.172
12920;170947;34.80;879;03.42.22.172
12932;170948;34.80;880;03.42.22.172
12888;170939;34.80;881;03.42.22.172
12916;170935;34.80;882;03.42.22.172
12932;170941;34.80;883;03.42.22.183
12896;170928;34.80;884;03.42.22.183
12860;170920;34.80;885;03.42.22.183
12928;170925;34.80;886;03.42.22.183
12916;170918;34.80;887;03.42.22.183
12928;170912;34.80;888;03.42.22.183
12892;170907;34.80;889;03.42.22.183
12892;170906;34.80;890;03.42.22.183
12924;170899;34.80;891;03.42.22.183
12900;170887;34.80;892;03.42.22.194
12892;170894;34.80;893;03.42.22.194
12928;170882;34.80;894;03.42.22.194
12900;170880;34.80;895;03.42.22.194
12916;170885;34.80;896;03.42.22.194
12912;170876;34.80;897;03.42.22.194
12932;170872;34.80;898;03.42.22.194
12936;170871;34.80;899;03.42.22.194
12912;170865;34.80;900;03.42.22.292
12900;170873;34.80;901;03.42.22.292
12904;170859;34.80;902;03.42.22.292
12880;170859;34.80;903;03.42.22.292
12884;170861;34.80;904;03.42.22.303
12884;170868;34.80;905;03.42.22.303
12916;170859;34.80;906;03.42.22.303
12908;170846;34.80;907;03.42.22.303
12928;170850;34.80;908;03.42.22.303
12904;170854;34.80;909;03.42.22.303
12924;170853;34.80;910;03.42.22.303
12932;170848;34.80;911;03.42.22.303
12876;170842;34.80;912;03.42.22.303
12880;170854;34.80;913;03.42.22.303
12888;170855;34.80;914;03.42.22.303
12884;170843;34.80;915;03.42.22.303
12928;170841;34.80;916;03.42.22.303
12920;170850;34.80;917;03.42.22.303
12912;170851;34.80;918;03.42.22.315
12928;170852;34.80;919;03.42.22.315
12928;170855;34.80;920;03.42.22.315
12884;170851;34.80;921;03.42.22.315
12920;170848;34.80;922;03.42.22.315
12928;170852;34.80;923;03.42.22.315
12908;170851;34.80;924;03.42.22.315
12928;170852;34.80;925;03.42.22.425
12928;170856;34.80;926;03.42.22.425
12904;170856;34.80;927;03.42.22.425
12920;170861;34.80;928;03.42.22.425
12900;170857;34.80;929;03.42.22.425
12900;170848;34.80;930;03.42.22.425
12900;170857;34.80;931;03.42.22.425
12908;170854;34.80;932;03.42.22.425
12892;170853;34.80;933;03.42.22.425
12916;170854;34.80;934;03.42.22.425
12920;170859;34.80;935;03.42.22.425
12888;170855;34.80;936;03.42.22.425
12904;170860;34.80;937;03.42.22.425
12912;170847;34.80;938;03.42.22.425
12892;170856;34.80;939;03.42.22.425
12928;170858;34.80;940;03.42.22.436
12888;170861;34.80;941;03.42.22.436
12920;170860;34.80;942;03.42.22.436
12896;170853;34.80;943;03.42.22.436
12912;170857;34.80;944;03.42.22.436
12928;170860;34.80;945;03.42.22.436
12928;170861;34.80;946;03.42.22.436
12908;170864;34.80;947;03.42.22.436
12924;170871;34.80;948;03.42.22.436
12928;170860;34.80;949;03.42.22.436
12932;170855;34.80;950;03.42.22.557
12908;170856;34.80;951;03.42.22.557
12912;170862;34.80;952;03.42.22.557
12912;170864;34.80;953;03.42.22.557
12900;170867;34.80;954;03.42.22.557
12960;170864;34.80;955;03.42.22.557
12900;170865;34.80;956;03.42.22.557
12916;170866;34.80;957;03.42.22.557
12928;170867;34.80;958;03.42.22.557
12912;170862;34.80;959;03.42.22.557
12896;170856;34.80;960;03.42.22.568
12908;170867;34.80;961;03.42.22.568
12880;170870;34.80;962;03.42.22.568
12896;170870;34.80;963;03.42.22.568
12908;170865;34.80;964;03.42.22.568
12912;170869;34.80;965;03.42.22.568
12900;170871;34.80;966;03.42.22.568
12892;170871;34.80;967;03.42.22.568
12904;170867;34.80;968;03.42.22.568
12904;170877;34.80;969;03.42.22.568
12908;170875;34.80;970;03.42.22.568
12928;170877;34.80;971;03.42.22.568
12908;170880;34.80;972;03.42.22.568
12900;170890;34.80;973;03.42.22.579
12912;170880;34.80;974;03.42.22.579
12916;170892;34.80;975;03.42.22.688
12896;170874;34.80;976;03.42.22.688
12912;170888;34.80;977;03.42.22.688
12900;170884;34.80;978;03.42.22.688
12900;170891;34.80;979;03.42.22.688
12912;170889;34.80;980;03.42.22.688
12900;170885;34.80;981;03.42.22.688
12892;170896;34.80;982;03.42.22.688
12912;170891;34.80;983;03.42.22.700
12916;170895;34.80;984;03.42.22.700
12928;170893;34.80;985;03.42.22.700
12924;170906;34.80;986;03.42.22.700
12904;170900;34.80;987;03.42.22.700
12892;170903;34.80;988;03.42.22.700
12916;170901;34.80;989;03.42.22.700
12904;170901;34.80;990;03.42.22.700
12916;170902;34.80;991;03.42.22.700
12904;170908;34.80;992;03.42.22.700
12892;170905;34.80;993;03.42.22.700
12932;170910;34.80;994;03.42.22.700
12896;170912;34.80;995;03.42.22.700
12912;170910;34.80;996;03.42.22.711
12952;170909;34.80;997;03.42.22.711
12896;170914;34.80;998;03.42.22.711
12920;170918;34.80;999;03.42.22.711
12864;170917;34.80;000;03.42.22.798
12916;170917;34.80;001;03.42.22.809
12900;170928;34.80;002;03.42.22.809
12908;170924;34.80;003;03.42.22.809
12912;170924;34.80;004;03.42.22.809
12928;170933;34.80;005;03.42.22.809
12912;170930;34.80;006;03.42.22.809
12928;170924;34.80;007;03.42.22.809
12932;170926;34.80;008;03.42.22.831
12884;170934;34.80;009;03.42.22.831
12900;170931;34.80;010;03.42.22.831
12924;170923;34.80;011;03.42.22.842
12924;170936;34.80;012;03.42.22.842
12896;170939;34.80;013;03.42.22.842
12960;170940;34.80;014;03.42.22.842
12928;170947;34.80;015;03.42.22.842
12932;170942;34.80;016;03.42.22.842
12904;170940;34.80;017;03.42.22.842
12904;170943;34.80;018;03.42.22.842
12912;170939;34.80;019;03.42.22.842
12916;170936;34.80;020;03.42.22.842
12904;170940;34.80;021;03.42.22.842
12944;170941;34.80;022;03.42.22.842
12900;170944;34.80;023;03.42.22.842
12884;170949;34.80;024;03.42.22.853
12900;170951;34.80;025;03.42.22.930
12920;170948;34.80;026;03.42.22.930
12924;170943;34.80;027;03.42.22.930
12928;170947;34.80;028;03.42.22.930
12940;170937;34.80;029;03.42.22.930
12924;170931;34.80;030;03.42.22.930
12908;170936;34.80;031;03.42.22.930
12920;170938;34.80;032;03.42.22.930
12884;170940;34.80;033;03.42.22.930
12888;170921;34.80;034;03.42.22.930
12900;170924;34.80;035;03.42.22.930
12908;170921;34.80;036;03.42.22.930
12896;170912;34.80;037;03.42.22.930
12912;170908;34.80;038;03.42.22.941
12896;170902;34.80;039;03.42.22.941
12912;170913;34.80;040;03.42.22.941
12908;170902;34.80;041;03.42.22.941
12900;170897;34.80;042;03.42.22.941
12928;170894;34.80;043;03.42.22.941
12896;170895;34.80;044;03.42.22.941
12928;170881;34.80;045;03.42.22.941
12916;170876;34.80;046;03.42.22.941
12892;170879;34.80;047;03.42.22.941
12892;170876;34.80;048;03.42.22.941
12932;170867;34.80;049;03.42.22.941
12920;170876;34.80;050;03.42.23.061
12892;170861;34.80;051;03.42.23.061
12912;170857;34.80;052;03.42.23.061
12908;170861;34.80;053;03.42.23.061
12900;170858;34.80;054;03.42.23.061
12916;170859;34.80;055;03.42.23.061
12892;170859;34.80;056;03.42.23.061
12912;170848;34.80;057;03.42.23.061
12924;170854;34.80;058;03.42.23.061
12892;170860;34.80;059;03.42.23.061
12912;170852;34.80;060;03.42.23.072
12900;170850;34.80;061;03.42.23.072
12920;170852;34.80;062;03.42.23.072
12920;170860;34.80;063;03.42.23.072
12896;170851;34.80;064;03.42.23.072
12904;170851;34.80;065;03.42.23.072
12896;170856;34.80;066;03.42.23.072
12900;170853;34.80;067;03.42.23.072
12912;170849;34.80;068;03.42.23.072
12892;170848;34.80;069;03.42.23.072
12888;170848;34.80;070;03.42.23.072
12912;170855;34.80;071;03.42.23.072
12892;170850;34.80;072;03.42.23.083
12900;170847;34.80;073;03.42.23.083
12928;170848;34.80;074;03.42.23.083
12900;170853;34.80;075;03.42.23.193
12900;170847;34.80;076;03.42.23.193
12904;170849;34.80;077;03.42.23.193
12928;170847;34.80;078;03.42.23.193
12884;170853;34.80;079;03.42.23.203
12908;170857;34.80;080;03.42.23.203
12892;170841;34.80;081;03.42.23.203
12900;170856;34.80;082;03.42.23.203
12888;170856;34.80;083;03.42.23.203
12888;170856;34.80;084;03.42.23.203
12896;170857;34.80;085;03.42.23.203
12928;170854;34.80;086;03.42.23.203
12892;170855;34.80;087;03.42.23.203
12928;170852;34.80;088;03.42.23.203
12900;170855;34.80;089;03.42.23.203
12896;170860;34.80;090;03.42.23.203
12900;170855;34.80;091;03.42.23.203
12880;170860;34.80;092;03.42.23.204
12920;170859;34.80;093;03.42.23.204
12888;170850;34.80;094;03.42.23.216
12904;170860;34.80;095;03.42.23.216
12936;170865;34.80;096;03.42.23.216
12896;170868;34.80;097;03.42.23.216
12896;170861;34.80;098;03.42.23.216
12916;170870;34.80;099;03.42.23.216
12876;170867;34.80;100;03.42.23.293
12920;170863;34.80;101;03.42.23.293
12928;170865;34.80;102;03.42.23.293
12908;170862;34.80;103;03.42.23.304
12892;170865;34.80;104;03.42.23.304
12892;170868;34.80;105;03.42.23.304
12892;170863;34.80;106;03.42.23.304
12904;170868;34.80;107;03.42.23.304
12904;170871;34.80;108;03.42.23.304
12900;170870;34.80;109;03.42.23.304
12900;170870;34.80;110;03.42.23.304
12924;170878;34.80;111;03.42.23.304
12872;170873;34.80;112;03.42.23.304
12896;170875;34.80;113;03.42.23.304
12900;170887;34.80;114;03.42.23.304
12888;170877;34.80;115;03.42.23.304
12908;170878;34.80;116;03.42.23.315
12900;170875;34.80;117;03.42.23.315
12900;170883;34.80;118;03.42.23.315
12908;170887;34.80;119;03.42.23.315
12896;170889;34.80;120;03.42.23.315
12884;170885;34.80;121;03.42.23.315
12920;170895;34.80;122;03.42.23.315
12916;170891;34.80;123;03.42.23.315
12944;170892;34.80;124;03.42.23.315
12900;170894;34.80;125;03.42.23.425
12900;170892;34.80;126;03.42.23.425
12912;170899;34.80;127;03.42.23.425
12928;170907;34.80;128;03.42.23.425
12892;170893;34.80;129;03.42.23.425
12924;170906;34.80;130;03.42.23.425
12900;170911;34.80;131;03.42.23.425
12904;170894;34.80;132;03.42.23.425
12860;170906;34.80;133;03.42.23.425
12904;170906;34.80;134;03.42.23.425
12900;170912;34.80;135;03.42.23.425
12916;170918;34.80;136;03.42.23.425
12884;170919;34.80;137;03.42.23.436
12884;170905;34.80;138;03.42.23.436
12912;170915;34.80;139;03.42.23.436
12912;170915;34.80;140;03.42.23.436
12904;170919;34.80;141;03.42.23.436
12908;170921;34.80;142;03.42.23.436
12912;170928;34.80;143;03.42.23.436
12928;170920;34.80;144;03.42.23.436
12896;170921;34.80;145;03.42.23.436
12896;170927;34.80;146;03.42.23.436
12928;170924;34.80;147;03.42.23.436
12880;170924;34.80;148;03.42.23.436
12892;170930;34.80;149;03.42.23.436
12904;170928;34.76;150;03.42.23.557
12912;170927;34.76;151;03.42.23.557
12900;170941;34.76;152;03.42.23.557
12908;170925;34.76;153;03.42.23.557
12892;170938;34.76;154;03.42.23.557
12892;170939;34.76;155;03.42.23.557
12884;170946;34.76;156;03.42.23.557
12884;170934;34.76;157;03.42.23.557
12904;170942;34.76;158;03.42.23.557
12888;170936;34.76;159;03.42.23.567
12904;170946;34.76;160;03.42.23.567
12916;170951;34.76;161;03.42.23.567
12892;170957;34.76;162;03.42.23.567
12928;170953;34.76;163;03.42.23.567
12892;170947;34.76;164;03.42.23.567
12892;170962;34.76;165;03.42.23.567
12928;170962;34.76;166;03.42.23.567
12912;170954;34.76;167;03.42.23.600
12932;170955;34.76;168;03.42.23.600
12912;170956;34.76;169;03.42.23.600
12904;170957;34.76;170;03.42.23.600
12912;170957;34.76;171;03.42.23.600
12892;170960;34.76;172;03.42.23.600
12960;170963;34.76;173;03.42.23.600
12908;170970;34.76;174;03.42.23.600
12912;170964;34.76;175;03.42.23.688
12892;170967;34.76;176;03.42.23.688
12892;170970;34.76;177;03.42.23.688
12912;170975;34.76;178;03.42.23.688
12892;170978;34.76;179;03.42.23.688
12896;170982;34.76;180;03.42.23.699
12896;170983;34.76;181;03.42.23.699
12884;170978;34.76;182;03.42.23.699
12892;170981;34.76;183;03.42.23.699
12908;170984;34.76;184;03.42.23.699
12892;170978;34.76;185;03.42.23.699
12896;170992;34.76;186;03.42.23.699
12892;170989;34.76;187;03.42.23.699
12892;170996;34.76;188;03.42.23.699
12908;170991;34.76;189;03.42.23.699
12892;170987;34.76;190;03.42.23.699
12900;170993;34.76;191;03.42.23.699
12892;170993;34.76;192;03.42.23.699
12860;170987;34.76;193;03.42.23.710
12904;170984;34.76;194;03.42.23.710
12876;170991;34.76;195;03.42.23.710
12924;170986;34.76;196;03.42.23.710
12904;170984;34.76;197;03.42.23.710
12924;170992;34.76;198;03.42.23.710
12928;170975;34.76;199;03.42.23.710
12896;170975;34.84;200;03.42.23.798
12912;170975;34.84;201;03.42.23.809
12880;170960;34.84;202;03.42.23.809
12908;170963;34.84;203;03.42.23.809
12920;170963;34.84;204;03.42.23.809
12912;170952;34.84;205;03.42.23.809
12880;170948;34.84;206;03.42.23.809
12892;170945;34.84;207;03.42.23.809
12916;170946;34.84;208;03.42.23.809
12884;170942;34.84;209;03.42.23.809
12888;170934;34.84;210;03.42.23.809
12896;170933;34.84;211;03.42.23.809
12912;170926;34.84;212;03.42.23.809
12904;170914;34.84;213;03.42.23.820
12896;170924;34.84;214;03.42.23.820
12892;170913;34.84;215;03.42.23.820
12872;170915;34.84;216;03.42.23.820
12928;170910;34.84;217;03.42.23.820
12904;170910;34.84;218;03.42.23.820
12916;170910;34.84;219;03.42.23.831
12896;170906;34.84;220;03.42.23.831
12892;170905;34.84;221;03.42.23.831
12896;170903;34.84;222;03.42.23.831
12896;170899;34.84;223;03.42.23.831
12928;170903;34.84;224;03.42.23.831
12888;170904;34.84;225;03.42.23.940
12860;170899;34.84;226;03.42.23.940
12908;170903;34.84;227;03.42.23.940
12892;170897;34.84;228;03.42.23.940
12908;170904;34.84;229;03.42.23.940
12916;170894;34.84;230;03.42.23.940
12912;170887;34.84;231;03.42.23.940
12896;170902;34.84;232;03.42.23.940
12916;170900;34.84;233;03.42.23.940
12904;170896;34.84;234;03.42.23.951
12912;170894;34.84;235;03.42.23.951
12928;170890;34.84;236;03.42.23.951
12896;170903;34.84;237;03.42.23.951
12876;170894;34.84;238;03.42.23.951
12892;170890;34.84;239;03.42.23.951
12912;170896;34.84;240;03.42.23.951
12904;170897;34.84;241;03.42.23.951
12884;170892;34.84;242;03.42.23.962
12892;170903;34.84;243;03.42.23.962
12916;170899;34.84;244;03.42.23.962
12900;170908;34.84;245;03.42.23.962
12932;170902;34.84;246;03.42.23.962
12888;170904;34.84;247;03.42.23.962
12908;170898;34.84;248;03.42.23.962
12908;170904;34.84;249;03.42.23.962
12888;170905;34.80;250;03.42.24.050
12884;170901;34.80;251;03.42.24.050
12892;170907;34.80;252;03.42.24.050
12908;170903;34.80;253;03.42.24.050
12888;170908;34.80;254;03.42.24.050
12928;170902;34.80;255;03.42.24.050
12920;170907;34.80;256;03.42.24.050
12892;170909;34.80;257;03.42.24.050
12888;170905;34.80;258;03.42.24.061
12928;170900;34.80;259;03.42.24.061
12892;170905;34.80;260;03.42.24.061
12892;170902;34.80;261;03.42.24.061
12912;170900;34.80;262;03.42.24.061
12900;170905;34.80;263;03.42.24.061
12896;170914;34.80;264;03.42.24.061
12916;170912;34.80;265;03.42.24.061
12912;170911;34.80;266;03.42.24.061
12888;170898;34.80;267;03.42.24.072
12904;170907;34.80;268;03.42.24.072
12924;170905;34.80;269;03.42.24.072
12896;170899;34.80;270;03.42.24.072
12904;170907;34.80;271;03.42.24.072
12928;170903;34.80;272;03.42.24.072
12896;170899;34.80;273;03.42.24.072
12920;170902;34.80;274;03.42.24.072
12904;170905;34.80;275;03.42.24.182
12904;170910;34.80;276;03.42.24.182
12884;170913;34.80;277;03.42.24.182
12888;170917;34.80;278;03.42.24.193
12904;170917;34.80;279;03.42.24.193
12928;170917;34.80;280;03.42.24.193
12912;170907;34.80;281;03.42.24.193
12928;170922;34.80;282;03.42.24.193
12904;170916;34.80;283;03.42.24.193
12928;170924;34.80;284;03.42.24.193
12876;170917;34.80;285;03.42.24.193
12860;170919;34.80;286;03.42.24.193
12912;170920;34.80;287;03.42.24.193
12896;170930;34.80;288;03.42.24.193
12928;170935;34.80;289;03.42.24.193
12916;170929;34.80;290;03.42.24.193
12912;170930;34.80;291;03.42.24.204
12892;170931;34.80;292;03.42.24.204
12892;170934;34.80;293;03.42.24.204
12904;170944;34.80;294;03.42.24.204
12912;170935;34.80;295;03.42.24.204
12912;170934;34.80;296;03.42.24.204
12916;170940;34.80;297;03.42.24.204
12912;170939;34.80;298;03.42.24.204
12888;170942;34.80;299;03.42.24.204
12860;170947;34.80;300;03.42.24.303
12892;170949;34.80;301;03.42.24.303
12924;170944;34.80;302;03.42.24.303
12900;170952;34.80;303;03.42.24.303
12900;170942;34.80;304;03.42.24.303
12904;170948;34.80;305;03.42.24.303
12912;170955;34.80;306;03.42.24.303
12884;170949;34.80;307;03.42.24.303
12904;170956;34.80;308;03.42.24.303
12892;170954;34.80;309;03.42.24.303
12892;170953;34.80;310;03.42.24.303
12884;170964;34.80;311;03.42.24.303
12884;170963;34.80;312;03.42.24.303
12896;170967;34.80;313;03.42.24.314
12920;170971;34.80;314;03.42.24.314
12900;170968;34.80;315;03.42.24.314
12900;170972;34.80;316;03.42.24.314
12928;170968;34.80;317;03.42.24.324
12904;170976;34.80;318;03.42.24.324
12888;170961;34.80;319;03.42.24.324
12904;170979;34.80;320;03.42.24.324
12880;170976;34.80;321;03.42.24.324
12896;170980;34.80;322;03.42.24.324
12916;170975;34.80;323;03.42.24.324
12924;170977;34.80;324;03.42.24.324
12868;170973;34.80;325;03.42.24.434
12912;170975;34.80;326;03.42.24.434
12908;170985;34.80;327;03.42.24.434
12912;170979;34.80;328;03.42.24.434
12900;170981;34.80;329;03.42.24.434
12916;170981;34.80;330;03.42.24.434
12904;170981;34.80;331;03.42.24.434
12872;170986;34.80;332;03.42.24.434
12896;170985;34.80;333;03.42.24.456
12884;170990;34.80;334;03.42.24.456
12904;170983;34.80;335;03.42.24.456
12888;170982;34.80;336;03.42.24.456
12928;170998;34.80;337;03.42.24.456
12900;170992;34.80;338;03.42.24.456
12904;171003;34.80;339;03.42.24.456
12880;171005;34.80;340;03.42.24.456
12928;170999;34.80;341;03.42.24.456
12896;170998;34.80;342;03.42.24.467
12892;171006;34.80;343;03.42.24.467
12892;171007;34.80;344;03.42.24.467
12912;171006;34.80;345;03.42.24.467
12888;171000;34.80;346;03.42.24.467
12904;171004;34.80;347;03.42.24.467
12916;171007;34.80;348;03.42.24.467
12920;171007;34.80;349;03.42.24.467
12920;171018;34.76;350;03.42.24.544
12908;171011;34.76;351;03.42.24.544
12892;171012;34.76;352;03.42.24.544
12872;171020;34.76;353;03.42.24.544
12888;171023;34.76;354;03.42.24.544
12900;171030;34.76;355;03.42.24.555
12916;171020;34.76;356;03.42.24.555
12900;171019;34.76;357;03.42.24.555
12904;171026;34.76;358;03.42.24.555
12892;171020;34.76;359;03.42.24.555
12884;171032;34.76;360;03.42.24.555
12896;171029;34.76;361;03.42.24.555
12900;171036;34.76;362;03.42.24.555
12912;171034;34.76;363;03.42.24.555
12904;171034;34.76;364;03.42.24.555
12892;171031;34.76;365;03.42.24.555
12944;171036;34.76;366;03.42.24.555
12904;171043;34.76;367;03.42.24.555
12908;171034;34.76;368;03.42.24.566
12892;171023;34.76;369;03.42.24.566
12928;171043;34.76;370;03.42.24.566
12900;171041;34.76;371;03.42.24.566
12900;171045;34.76;372;03.42.24.566
12916;171036;34.76;373;03.42.24.566
12928;171044;34.76;374;03.42.24.566
12904;171039;34.76;375;03.42.24.675
12904;171034;34.76;376;03.42.24.686
12900;171033;34.76;377;03.42.24.686
12900;171027;34.76;378;03.42.24.686
12884;171025;34.76;379;03.42.24.686
12928;171022;34.76;380;03.42.24.686
12904;171022;34.76;381;03.42.24.686
12904;171012;34.76;382;03.42.24.686
12900;171015;34.76;383;03.42.24.686
12928;171019;34.76;384;03.42.24.686
12932;171004;34.76;385;03.42.24.686
12892;170999;34.76;386;03.42.24.686
12912;170998;34.76;387;03.42.24.686
12920;170993;34.76;388;03.42.24.686
12928;170986;34.76;389;03.42.24.688
12892;170983;34.76;390;03.42.24.688
12892;170983;34.76;391;03.42.24.699
12940;170978;34.76;392;03.42.24.699
12928;170973;34.76;393;03.42.24.699
12920;170973;34.76;394;03.42.24.699
12892;170960;34.76;395;03.42.24.699
12908;170966;34.76;396;03.42.24.699
12884;170957;34.76;397;03.42.24.699
12884;170956;34.76;398;03.42.24.699
12924;170961;34.76;399;03.42.24.699
12896;170959;34.80;400;03.42.24.819
12912;170964;34.80;401;03.42.24.819
12928;170955;34.80;402;03.42.24.819
12892;170947;34.80;403;03.42.24.819
12892;170959;34.80;404;03.42.24.819
12908;170959;34.80;405;03.42.24.819
12900;170954;34.80;406;03.42.24.819
12912;170945;34.80;407;03.42.24.819
12900;170949;34.80;408;03.42.24.819
12884;170946;34.80;409;03.42.24.819
12872;170949;34.80;410;03.42.24.819
12904;170947;34.80;411;03.42.24.819
12900;170952;34.80;412;03.42.24.830
12896;170949;34.80;413;03.42.24.830
12920;170938;34.80;414;03.42.24.830
12900;170947;34.80;415;03.42.24.830
12904;170942;34.80;416;03.42.24.830
12928;170952;34.80;417;03.42.24.830
12888;170939;34.80;418;03.42.24.830
12884;170945;34.80;419;03.42.24.830
12904;170947;34.80;420;03.42.24.830
12928;170950;34.80;421;03.42.24.830
12896;170950;34.80;422;03.42.24.830
12884;170947;34.80;423;03.42.24.830
12920;170948;34.80;424;03.42.24.830
12912;170950;34.80;425;03.42.24.929
12892;170956;34.80;426;03.42.24.929
12896;170956;34.80;427;03.42.24.929
12888;170956;34.80;428;03.42.24.929
12892;170960;34.80;429;03.42.24.929
12892;170953;34.80;430;03.42.24.929
12908;170956;34.80;431;03.42.24.929
12892;170957;34.80;432;03.42.24.929
12900;170959;34.80;433;03.42.24.951
12912;170962;34.80;434;03.42.24.951
12908;170961;34.80;435;03.42.24.951
12896;170969;34.80;436;03.42.24.951
12904;170961;34.80;437;03.42.24.951
12884;170954;34.80;438;03.42.24.951
12892;170953;34.80;439;03.42.24.951
12884;170961;34.80;440;03.42.24.951
12916;170951;34.80;441;03.42.24.951
12916;170957;34.80;442;03.42.24.962
12936;170954;34.80;443;03.42.24.962
12896;170957;34.80;444;03.42.24.962
12912;170957;34.80;445;03.42.24.962
12884;170956;34.80;446;03.42.24.962
12908;170951;34.80;447;03.42.24.962
12892;170951;34.80;448;03.42.24.962
12928;170953;34.80;449;03.42.24.962
12888;170947;34.80;450;03.42.25.062
12900;170953;34.80;451;03.42.25.062
12908;170947;34.80;452;03.42.25.062
12920;170950;34.80;453;03.42.25.062
12896;170951;34.80;454;03.42.25.062
12880;170956;34.80;455;03.42.25.062
12900;170963;34.80;456;03.42.25.073
12896;170965;34.80;457;03.42.25.073
12912;170952;34.80;458;03.42.25.073
12904;170963;34.80;459;03.42.25.073
12900;170965;34.80;460;03.42.25.073
12900;170962;34.80;461;03.42.25.073
12916;170964;34.80;462;03.42.25.073
12928;170958;34.80;463;03.42.25.084
12892;170967;34.80;464;03.42.25.084
12876;170962;34.80;465;03.42.25.084
12928;170971;34.80;466;03.42.25.084
12892;170976;34.80;467;03.42.25.084
12904;170966;34.80;468;03.42.25.084
12884;170973;34.80;469;03.42.25.084
12904;170971;34.80;470;03.42.25.084
12928;170973;34.80;471;03.42.25.084
12884;170969;34.80;472;03.42.25.084
12900;170979;34.80;473;03.42.25.094
12892;170972;34.80;474;03.42.25.094
12904;170972;34.80;475;03.42.25.171
12892;170974;34.80;476;03.42.25.171
12888;170980;34.80;477;03.42.25.171
12888;170980;34.80;478;03.42.25.182
12896;170976;34.80;479;03.42.25.182
12888;170993;34.80;480;03.42.25.182
12892;170985;34.80;481;03.42.25.182
12900;170985;34.80;482;03.42.25.182
12908;170980;34.80;483;03.42.25.182
12888;170980;34.80;484;03.42.25.182
12888;170991;34.80;485;03.42.25.182
12904;170990;34.80;486;03.42.25.182
12920;170978;34.80;487;03.42.25.182
12860;170994;34.80;488;03.42.25.182
12908;170991;34.80;489;03.42.25.182
12896;170998;34.80;490;03.42.25.193
12888;171001;34.80;491;03.42.25.193
12880;171001;34.80;492;03.42.25.193
12912;171007;34.80;493;03.42.25.193
12912;171004;34.80;494;03.42.25.193
12916;171003;34.80;495;03.42.25.193
12892;171003;34.80;496;03.42.25.193
12900;171006;34.80;497;03.42.25.193
12880;171008;34.80;498;03.42.25.193
12908;171009;34.80;499;03.42.25.193
12928;171008;34.76;500;03.42.25.309
12936;171010;34.76;501;03.42.25.309
12892;171007;34.76;502;03.42.25.309
12892;171014;34.76;503;03.42.25.309
12904;171013;34.76;504;03.42.25.309
12928;171017;34.76;505;03.42.25.320
12904;171010;34.76;506;03.42.25.320
12936;171010;34.76;507;03.42.25.320
12896;171021;34.76;508;03.42.25.320
12928;171017;34.76;509;03.42.25.320
12936;171022;34.76;510;03.42.25.320
12896;171024;34.76;511;03.42.25.320
12892;171020;34.76;512;03.42.25.320
12912;171023;34.76;513;03.42.25.320
12904;171026;34.76;514;03.42.25.320
12900;171030;34.76;515;03.42.25.320
12888;171029;34.76;516;03.42.25.320
12904;171035;34.76;517;03.42.25.320
12912;171024;34.76;518;03.42.25.320
12912;171033;34.76;519;03.42.25.331
12928;171032;34.76;520;03.42.25.331
12900;171034;34.76;521;03.42.25.331
12896;171036;34.76;522;03.42.25.331
12892;171035;34.76;523;03.42.25.331
12908;171041;34.76;524;03.42.25.331
12888;171044;34.76;525;03.42.25.418
12904;171042;34.76;526;03.42.25.429
12912;171054;34.76;527;03.42.25.429
12912;171059;34.76;528;03.42.25.429
12900;171059;34.76;529;03.42.25.429
12928;171040;34.76;530;03.42.25.429
12900;171054;34.76;531;03.42.25.429
12860;171056;34.76;532;03.42.25.429
12908;171049;34.76;533;03.42.25.429
12904;171062;34.76;534;03.42.25.440
12912;171066;34.76;535;03.42.25.440
12892;171064;34.76;536;03.42.25.440
12872;171063;34.76;537;03.42.25.440
12884;171062;34.76;538;03.42.25.440
12908;171067;34.76;539;03.42.25.440
12916;171067;34.76;540;03.42.25.440
12920;171068;34.76;541;03.42.25.440
12884;171070;34.76;542;03.42.25.440
12908;171070;34.76;543;03.42.25.451
12880;171075;34.76;544;03.42.25.451
12912;171073;34.76;545;03.42.25.451
12908;171077;34.76;546;03.42.25.451
12892;171075;34.76;547;03.42.25.451
12912;171083;34.76;548;03.42.25.451
12944;171078;34.76;549;03.42.25.451
12896;171069;34.76;550;03.42.25.549
12896;171078;34.76;551;03.42.25.549
12876;171070;34.76;552;03.42.25.549
12900;171071;34.76;553;03.42.25.549
12860;171061;34.76;554;03.42.25.549
12896;171068;34.76;555;03.42.25.549
12860;171047;34.76;556;03.42.25.549
12896;171055;34.76;557;03.42.25.549
12912;171045;34.76;558;03.42.25.549
12900;171041;34.76;559;03.42.25.549
12928;171043;34.76;560;03.42.25.560
12920;171040;34.76;561;03.42.25.560
12888;171034;34.76;562;03.42.25.560
12912;171029;34.76;563;03.42.25.560
12896;171030;34.76;564;03.42.25.560
12920;171030;34.76;565;03.42.25.560
12892;171012;34.76;566;03.42.25.560
12908;171012;34.76;567;03.42.25.560
12904;171014;34.76;568;03.42.25.560
12908;171001;34.76;569;03.42.25.560
12884;171005;34.76;570;03.42.25.560
12912;171003;34.76;571;03.42.25.560
12892;171000;34.76;572;03.42.25.560
12904;171003;34.76;573;03.42.25.560
12900;170998;34.76;574;03.42.25.571
12892;171001;34.76;575;03.42.25.670
12912;171000;34.76;576;03.42.25.670
12916;170999;34.76;577;03.42.25.670
12908;170996;34.76;578;03.42.25.670
12904;170995;34.76;579;03.42.25.670
12916;170996;34.76;580;03.42.25.670
12904;170996;34.76;581;03.42.25.670
12896;170997;34.76;582;03.42.25.681
12916;170996;34.76;583;03.42.25.681
12884;171000;34.76;584;03.42.25.681
12900;170994;34.76;585;03.42.25.681
12904;170989;34.76;586;03.42.25.681
12892;170994;34.76;587;03.42.25.681
12896;170992;34.76;588;03.42.25.681
12916;170996;34.76;589;03.42.25.681
12896;170998;34.76;590;03.42.25.681
12904;170993;34.76;591;03.42.25.681
12884;170997;34.76;592;03.42.25.681
12912;171003;34.76;593;03.42.25.681
12888;170998;34.76;594;03.42.25.681
12928;170995;34.76;595;03.42.25.692
12928;171006;34.76;596;03.42.25.692
12932;170999;34.76;597;03.42.25.692
12876;170999;34.76;598;03.42.25.692
12908;170997;34.76;599;03.42.25.692
12912;171003;34.80;600;03.42.25.802
12904;171008;34.80;601;03.42.25.802
12908;171005;34.80;602;03.42.25.802
12932;170998;34.80;603;03.42.25.813
12920;170998;34.80;604;03.42.25.813
12904;171003;34.80;605;03.42.25.813
12928;171007;34.80;606;03.42.25.813
12908;171009;34.80;607;03.42.25.813
12904;170999;34.80;608;03.42.25.813
12928;170993;34.80;609;03.42.25.813
12928;171005;34.80;610;03.42.25.813
12912;171007;34.80;611;03.42.25.813
12920;171004;34.80;612;03.42.25.824
12912;170997;34.80;613;03.42.25.824
12920;171007;34.80;614;03.42.25.824
12892;171003;34.80;615;03.42.25.824
12904;171001;34.80;616;03.42.25.824
12904;170996;34.80;617;03.42.25.824
12904;170990;34.80;618;03.42.25.824
12896;170999;34.80;619;03.42.25.824
12900;170997;34.80;620;03.42.25.824
12892;171002;34.80;621;03.42.25.824
12892;171002;34.80;622;03.42.25.824
12880;170994;34.80;623;03.42.25.824
12932;170997;34.80;624;03.42.25.824
12916;170997;34.80;625;03.42.25.945
12888;170997;34.80;626;03.42.25.945
12904;170991;34.80;627;03.42.25.945
12912;170990;34.80;628;03.42.25.945
12932;170997;34.80;629;03.42.25.945
12860;171002;34.80;630;03.42.25.945
12920;170996;34.80;631;03.42.25.945
12896;170995;34.80;632;03.42.25.945
12884;170985;34.80;633;03.42.25.956
12908;171001;34.80;634;03.42.25.956
12892;170997;34.80;635;03.42.25.956
12892;170997;34.80;636;03.42.25.956
12920;171001;34.80;637;03.42.25.956
12888;171006;34.80;638;03.42.25.956
12896;170996;34.80;639;03.42.25.956
12872;171013;34.80;640;03.42.25.956
12912;171005;34.80;641;03.42.25.956
12892;171002;34.80;642;03.42.25.956
12904;171011;34.80;643;03.42.25.956
12928;171014;34.80;644;03.42.25.956
12928;171010;34.80;645;03.42.25.956
12904;171013;34.80;646;03.42.25.967
12912;171014;34.80;647;03.42.25.967
12912;171015;34.80;648;03.42.25.967
12932;171016;34.80;649;03.42.25.967
12892;171022;34.80;650;03.42.26.054
12928;171019;34.80;651;03.42.26.054
12900;171012;34.80;652;03.42.26.054
12916;171017;34.80;653;03.42.26.054
12912;171029;34.80;654;03.42.26.054
12892;171028;34.80;655;03.42.26.054
12920;171026;34.80;656;03.42.26.054
12892;171031;34.80;657;03.42.26.054
12904;171028;34.80;658;03.42.26.065
12916;171035;34.80;659;03.42.26.065
12916;171041;34.80;660;03.42.26.065
12916;171044;34.80;661;03.42.26.065
12924;171038;34.80;662;03.42.26.065
12892;171034;34.80;663;03.42.26.065
12908;171043;34.80;664;03.42.26.065
12928;171030;34.80;665;03.42.26.065
12928;171046;34.80;666;03.42.26.076
12900;171036;34.80;667;03.42.26.076
12952;171033;34.80;668;03.42.26.076
12908;171035;34.80;669;03.42.26.076
12944;171038;34.80;670;03.42.26.076
12916;171044;34.80;671;03.42.26.076
12896;171046;34.80;672;03.42.26.076
12912;171049;34.80;673;03.42.26.076
12952;171050;34.80;674;03.42.26.076
12920;171048;34.80;675;03.42.26.175
12908;171053;34.80;676;03.42.26.175
12884;171047;34.80;677;03.42.26.175
12944;171048;34.80;678;03.42.26.175
12936;171051;34.80;679;03.42.26.175
12900;171046;34.80;680;03.42.26.175
12920;171056;34.80;681;03.42.26.175
12908;171051;34.80;682;03.42.26.187
12880;171057;34.80;683;03.42.26.187
12884;171061;34.80;684;03.42.26.187
12916;171060;34.80;685;03.42.26.187
12888;171064;34.80;686;03.42.26.187
12892;171059;34.80;687;03.42.26.187
12908;171073;34.80;688;03.42.26.187
12904;171069;34.80;689;03.42.26.187
12916;171071;34.80;690;03.42.26.187
12896;171064;34.80;691;03.42.26.187
12920;171068;34.80;692;03.42.26.187
12908;171070;34.80;693;03.42.26.187
12920;171064;34.80;694;03.42.26.187
12920;171072;34.80;695;03.42.26.199
12884;171077;34.80;696;03.42.26.199
12908;171067;34.80;697;03.42.26.199
12900;171077;34.80;698;03.42.26.199
12904;171072;34.80;699;03.42.26.199
12904;171078;34.76;700;03.42.26.298
12920;171082;34.76;701;03.42.26.298
12892;171092;34.76;702;03.42.26.298
12920;171087;34.76;703;03.42.26.298
12888;171085;34.76;704;03.42.26.309
12904;171089;34.76;705;03.42.26.309
12912;171089;34.76;706;03.42.26.309
12908;171093;34.76;707;03.42.26.309
12896;171090;34.76;708;03.42.26.309
12900;171084;34.76;709;03.42.26.309
12916;171077;34.76;710;03.42.26.309
12904;171075;34.76;711;03.42.26.309
12928;171080;34.76;712;03.42.26.309
12932;171066;34.76;713;03.42.26.309
12908;171062;34.76;714;03.42.26.309
12896;171065;34.76;715;03.42.26.309
12904;171052;34.76;716;03.42.26.309
12900;171058;34.76;717;03.42.26.320
12892;171046;34.76;718;03.42.26.320
12924;171054;34.76;719;03.42.26.320
12892;171039;34.76;720;03.42.26.320
12904;171041;34.76;721;03.42.26.320
12896;171037;34.76;722;03.42.26.320
12916;171030;34.76;723;03.42.26.320
12920;171032;34.76;724;03.42.26.320
12892;171020;34.76;725;03.42.26.440
12912;171019;34.76;726;03.42.26.440
12916;171020;34.76;727;03.42.26.440
12928;171022;34.76;728;03.42.26.440
12928;171017;34.76;729;03.42.26.440
12912;171016;34.76;730;03.42.26.440
12888;171004;34.76;731;03.42.26.440
12928;171014;34.76;732;03.42.26.440
12892;171008;34.76;733;03.42.26.440
12888;171017;34.76;734;03.42.26.440
12912;171005;34.76;735;03.42.26.440
12892;171009;34.76;736;03.42.26.440
12944;171003;34.76;737;03.42.26.440
12920;171005;34.76;738;03.42.26.451
12928;171008;34.76;739;03.42.26.451
12884;171004;34.76;740;03.42.26.451
12928;171000;34.76;741;03.42.26.451
12912;171002;34.76;742;03.42.26.451
12936;171011;34.76;743;03.42.26.451
12932;171011;34.76;744;03.42.26.451
12896;170998;34.76;745;03.42.26.451
12944;171002;34.76;746;03.42.26.451
12916;171007;34.76;747;03.42.26.451
12884;171007;34.76;748;03.42.26.451
12904;171010;34.76;749;03.42.26.451
12928;171009;34.76;750;03.42.26.550
12916;171003;34.76;751;03.42.26.550
12888;171013;34.76;752;03.42.26.550
12920;171005;34.76;753;03.42.26.550
12912;171008;34.76;754;03.42.26.550
12904;171008;34.76;755;03.42.26.550
12904;171012;34.76;756;03.42.26.550
12916;171010;34.76;757;03.42.26.550
12900;171012;34.76;758;03.42.26.583
12896;171003;34.76;759;03.42.26.583
12928;171008;34.76;760;03.42.26.583
12904;171014;34.76;761;03.42.26.583
12916;171018;34.76;762;03.42.26.583
12892;171020;34.76;763;03.42.26.583
12920;171017;34.76;764;03.42.26.583
12920;171020;34.76;765;03.42.26.583
12924;171010;34.76;766;03.42.26.583
12908;171020;34.76;767;03.42.26.583
12896;171011;34.76;768;03.42.26.594
12904;171011;34.76;769;03.42.26.594
12920;171011;34.76;770;03.42.26.594
12924;171015;34.76;771;03.42.26.594
12888;171013;34.76;772;03.42.26.594
12928;171009;34.76;773;03.42.26.594
12920;171016;34.76;774;03.42.26.594
12928;171005;34.76;775;03.42.26.671
12904;171010;34.76;776;03.42.26.671
12928;171003;34.76;777;03.42.26.671
12904;171009;34.76;778;03.42.26.671
12920;171000;34.76;779;03.42.26.671
12892;171013;34.76;780;03.42.26.671
12920;171006;34.76;781;03.42.26.682
12928;171008;34.76;782;03.42.26.682
12884;171007;34.76;783;03.42.26.682
12912;170997;34.76;784;03.42.26.682
12904;171004;34.76;785;03.42.26.682
12892;171010;34.76;786;03.42.26.682
12904;171003;34.76;787;03.42.26.682
12916;171005;34.76;788;03.42.26.682
12920;171008;34.76;789;03.42.26.682
12912;171004;34.76;790;03.42.26.682
12900;171011;34.76;791;03.42.26.682
12896;171001;34.76;792;03.42.26.682
12916;171007;34.76;793;03.42.26.682
12920;171010;34.76;794;03.42.26.693
12908;171004;34.76;795;03.42.26.693
12928;171013;34.76;796;03.42.26.693
12920;171013;34.76;797;03.42.26.693
12904;171001;34.76;798;03.42.26.693
12928;171015;34.76;799;03.42.26.693
12928;171020;34.80;800;03.42.26.802
12892;171019;34.80;801;03.42.26.802
12928;171019;34.80;802;03.42.26.802
12884;171021;34.80;803;03.42.26.813
12892;171022;34.80;804;03.42.26.813
12916;171026;34.80;805;03.42.26.813
12940;171021;34.80;806;03.42.26.813
12944;171026;34.80;807;03.42.26.813
12916;171028;34.80;808;03.42.26.813
12928;171015;34.80;809;03.42.26.813
12892;171026;34.80;810;03.42.26.813
12884;171039;34.80;811;03.42.26.813
12888;171022;34.80;812;03.42.26.813
12924;171035;34.80;813;03.42.26.813
12920;171038;34.80;814;03.42.26.824
12892;171038;34.80;815;03.42.26.824
12904;171040;34.80;816;03.42.26.824
12904;171042;34.80;817;03.42.26.824
12932;171039;34.80;818;03.42.26.824
12908;171038;34.80;819;03.42.26.824
12892;171039;34.80;820;03.42.26.824
12884;171036;34.80;821;03.42.26.824
12900;171041;34.80;822;03.42.26.824
12892;171032;34.80;823;03.42.26.824
12936;171042;34.80;824;03.42.26.824
12904;171044;34.80;825;03.42.26.945
12924;171045;34.80;826;03.42.26.945
12900;171035;34.80;827;03.42.26.945
12928;171050;34.80;828;03.42.26.945
12912;171048;34.80;829;03.42.26.945
12900;171044;34.80;830;03.42.26.945
12900;171041;34.80;831;03.42.26.945
12896;171043;34.80;832;03.42.26.945
12908;171051;34.80;833;03.42.26.945
12908;171053;34.80;834;03.42.26.945
12900;171055;34.80;835;03.42.26.945
12892;171054;34.80;836;03.42.26.945
12912;171056;34.80;837;03.42.26.956
12892;171059;34.80;838;03.42.26.956
12920;171054;34.80;839;03.42.26.956
12920;171055;34.80;840;03.42.26.956
12912;171052;34.80;841;03.42.26.956
12912;171054;34.80;842;03.42.26.956
12928;171063;34.80;843;03.42.26.956
12884;171065;34.80;844;03.42.26.956
12916;171065;34.80;845;03.42.26.956
12904;171064;34.80;846;03.42.26.956
12936;171066;34.80;847;03.42.26.956
12904;171075;34.80;848;03.42.26.956
12948;171064;34.80;849;03.42.26.967
12928;171070;34.80;850;03.42.27.055
12888;171068;34.80;851;03.42.27.055
12876;171072;34.80;852;03.42.27.055
12888;171069;34.80;853;03.42.27.055
12916;171078;34.80;854;03.42.27.055
12892;171077;34.80;855;03.42.27.055
12916;171075;34.80;856;03.42.27.055
12904;171065;34.80;857;03.42.27.055
12916;171070;34.80;858;03.42.27.077
12892;171069;34.80;859;03.42.27.077
12904;171062;34.80;860;03.42.27.077
12904;171053;34.80;861;03.42.27.077
12860;171054;34.80;862;03.42.27.077
12920;171043;34.80;863;03.42.27.077
12928;171038;34.80;864;03.42.27.077
12944;171031;34.80;865;03.42.27.077
12880;171034;34.80;866;03.42.27.077
12904;171026;34.80;867;03.42.27.088
12920;171025;34.80;868;03.42.27.088
12904;171009;34.80;869;03.42.27.088
12900;171015;34.80;870;03.42.27.088
12892;171007;34.80;871;03.42.27.088
12908;171012;34.80;872;03.42.27.088
12896;171021;34.80;873;03.42.27.088
12932;171003;34.80;874;03.42.27.088
12888;171001;34.80;875;03.42.27.175
12896;170996;34.80;876;03.42.27.175
12900;170991;34.80;877;03.42.27.175
12916;170993;34.80;878;03.42.27.175
12904;170996;34.80;879;03.42.27.175
12912;170986;34.80;880;03.42.27.186
12944;170987;34.80;881;03.42.27.186
12904;170976;34.80;882;03.42.27.186
12928;170979;34.80;883;03.42.27.186
12884;170974;34.80;884;03.42.27.186
12892;170975;34.80;885;03.42.27.186
12896;170978;34.80;886;03.42.27.186
12916;170981;34.80;887;03.42.27.186
12888;170973;34.80;888;03.42.27.186
12888;170969;34.80;889;03.42.27.197
12884;170973;34.80;890;03.42.27.197
12904;170979;34.80;891;03.42.27.197
12932;170980;34.80;892;03.42.27.208
12900;170972;34.80;893;03.42.27.208
12936;170962;34.80;894;03.42.27.208
12936;170963;34.80;895;03.42.27.208
12924;170969;34.80;896;03.42.27.219
12932;170965;34.80;897;03.42.27.219
12908;170969;34.80;898;03.42.27.219
12900;170971;34.80;899;03.42.27.219
12892;170971;34.80;900;03.42.27.296
12888;170976;34.80;901;03.42.27.307
12904;170975;34.80;902;03.42.27.307
12924;170960;34.80;903;03.42.27.307
12920;170968;34.80;904;03.42.27.307
12924;170978;34.80;905;03.42.27.307
12912;170977;34.80;906;03.42.27.307
12892;170977;34.80;907;03.42.27.307
12884;170975;34.80;908;03.42.27.307
12904;170968;34.80;909;03.42.27.307
12880;170980;34.80;910;03.42.27.307
12912;170974;34.80;911;03.42.27.307
12884;170971;34.80;912;03.42.27.307
12908;170972;34.80;913;03.42.27.307
12928;170977;34.80;914;03.42.27.318
12888;170969;34.80;915;03.42.27.318
12908;170967;34.80;916;03.42.27.318
12900;170973;34.80;917;03.42.27.318
12916;170969;34.80;918;03.42.27.318
12928;170967;34.80;919;03.42.27.318
12912;170973;34.80;920;03.42.27.318
12892;170976;34.80;921;03.42.27.318
12900;170968;34.80;922;03.42.27.318
12912;170976;34.80;923;03.42.27.318
12932;170975;34.80;924;03.42.27.318
12880;170975;34.80;925;03.42.27.439
12912;170967;34.80;926;03.42.27.439
12908;170968;34.80;927;03.42.27.439
12928;170972;34.80;928;03.42.27.439
12904;170974;34.80;929;03.42.27.439
12892;170978;34.80;930;03.42.27.439
12908;170967;34.80;931;03.42.27.439
12912;170965;34.80;932;03.42.27.439
12884;170964;34.80;933;03.42.27.439
12884;170966;34.80;934;03.42.27.439
12884;170966;34.80;935;03.42.27.439
12892;170958;34.80;936;03.42.27.451
12912;170966;34.80;937;03.42.27.451
12928;170960;34.80;938;03.42.27.451
12904;170966;34.80;939;03.42.27.451
12904;170958;34.80;940;03.42.27.451
12884;170953;34.80;941;03.42.27.451
12920;170964;34.80;942;03.42.27.451
12888;170969;34.80;943;03.42.27.451
12912;170962;34.80;944;03.42.27.451
12932;170973;34.80;945;03.42.27.451
12900;170966;34.80;946;03.42.27.451
12904;170982;34.80;947;03.42.27.451
12892;170970;34.80;948;03.42.27.451
12928;170972;34.80;949;03.42.27.451
12928;170977;34.80;950;03.42.27.571
12928;170978;34.80;951;03.42.27.571
12904;170978;34.80;952;03.42.27.571
12928;170976;34.80;953;03.42.27.571
12916;170973;34.80;954;03.42.27.571
12916;170983;34.80;955;03.42.27.571
12908;170979;34.80;956;03.42.27.571
12888;170975;34.80;957;03.42.27.571
12916;170975;34.80;958;03.42.27.582
12928;170982;34.80;959;03.42.27.582
12928;170979;34.80;960;03.42.27.582
12908;170976;34.80;961;03.42.27.582
12904;170982;34.80;962;03.42.27.582
12912;170982;34.80;963;03.42.27.582
12912;170983;34.80;964;03.42.27.582
12912;170993;34.80;965;03.42.27.582
12908;170992;34.80;966;03.42.27.582
12904;170991;34.80;967;03.42.27.582
12912;170993;34.80;968;03.42.27.582
12860;170997;34.80;969;03.42.27.582
12920;170994;34.80;970;03.42.27.582
12908;170993;34.80;971;03.42.27.593
12928;170990;34.80;972;03.42.27.593
12900;170992;34.80;973;03.42.27.593
12892;170997;34.80;974;03.42.27.593
12912;170993;34.80;975;03.42.27.670
12876;170995;34.80;976;03.42.27.670
12896;171004;34.80;977;03.42.27.670
12928;171004;34.80;978;03.42.27.681
12900;171005;34.80;979;03.42.27.681
12904;171003;34.80;980;03.42.27.681
12892;171007;34.80;981;03.42.27.681
12916;171010;34.80;982;03.42.27.681
12912;171011;34.80;983;03.42.27.681
12900;171012;34.80;984;03.42.27.681
12928;171007;34.80;985;03.42.27.681
12904;171005;34.80;986;03.42.27.681
12888;171013;34.80;987;03.42.27.692
12900;171010;34.80;988;03.42.27.692
12892;171004;34.80;989;03.42.27.692
12892;171015;34.80;990;03.42.27.692
12924;171014;34.80;991;03.42.27.692
12916;171018;34.80;992;03.42.27.702
12892;171016;34.80;993;03.42.27.702
12904;171015;34.80;994;03.42.27.702
12920;171020;34.80;995;03.42.27.713
12896;171026;34.80;996;03.42.27.713
12892;171033;34.80;997;03.42.27.713
12876;171032;34.80;998;03.42.27.713
12928;171025;34.80;999;03.42.27.713
12912;171018;34.76;000;03.42.27.801
12924;171013;34.76;001;03.42.27.801
12916;171010;34.76;002;03.42.27.801
12892;171010;34.76;003;03.42.27.801
12884;171009;34.76;004;03.42.27.801
12908;171002;34.76;005;03.42.27.801
12932;170997;34.76;006;03.42.27.801
12912;171002;34.76;007;03.42.27.801
12908;170986;34.76;008;03.42.27.801
12912;170983;34.76;009;03.42.27.801
12892;170977;34.76;010;03.42.27.801
12928;170975;34.76;011;03.42.27.801
12904;170967;34.76;012;03.42.27.812
12904;170967;34.76;013;03.42.27.812
12908;170960;34.76;014;03.42.27.812
12908;170954;34.76;015;03.42.27.812
12904;170951;34.76;016;03.42.27.812
12924;170940;34.76;017;03.42.27.812
12892;170930;34.76;018;03.42.27.812
12904;170935;34.76;019;03.42.27.812
12888;170927;34.76;020;03.42.27.812
12920;170923;34.76;021;03.42.27.812
12872;170929;34.76;022;03.42.27.812
12920;170923;34.76;023;03.42.27.812
12904;170923;34.76;024;03.42.27.812
12904;170917;34.76;025;03.42.27.933
12920;170917;34.76;026;03.42.27.933
12908;170914;34.76;027;03.42.27.933
12908;170914;34.76;028;03.42.27.933
12896;170910;34.76;029;03.42.27.933
12936;170913;34.76;030;03.42.27.933
12908;170909;34.76;031;03.42.27.933
12912;170921;34.76;032;03.42.27.933
12900;170915;34.76;033;03.42.27.933
12928;170908;34.76;034;03.42.27.944
12892;170904;34.76;035;03.42.27.944
12928;170904;34.76;036;03.42.27.944
12912;170910;34.76;037;03.42.27.944
12924;170899;34.76;038;03.42.27.944
12944;170902;34.76;039;03.42.27.944
12928;170896;34.76;040;03.42.27.944
12904;170901;34.76;041;03.42.27.944
12908;170899;34.76;042;03.42.27.944
12928;170901;34.76;043;03.42.27.944
12904;170891;34.76;044;03.42.27.944
12916;170898;34.76;045;03.42.27.944
12912;170897;34.76;046;03.42.27.944
12908;170897;34.76;047;03.42.27.955
12908;170899;34.76;048;03.42.27.955
12948;170896;34.76;049;03.42.27.955
12904;170898;34.80;050;03.42.28.065
12892;170903;34.80;051;03.42.28.065
12904;170896;34.80;052;03.42.28.065
12900;170899;34.80;053;03.42.28.065
12900;170896;34.80;054;03.42.28.065
12904;170903;34.80;055;03.42.28.075
12892;170890;34.80;056;03.42.28.075
12928;170900;34.80;057;03.42.28.075
12900;170892;34.80;058;03.42.28.075
12892;170904;34.80;059;03.42.28.075
12916;170896;34.80;060;03.42.28.075
12916;170899;34.80;061;03.42.28.075
12912;170891;34.80;062;03.42.28.075
12904;170900;34.80;063;03.42.28.075
12908;170899;34.80;064;03.42.28.086
12924;170897;34.80;065;03.42.28.086
12896;170898;34.80;066;03.42.28.086
12952;170902;34.80;067;03.42.28.086
12932;170898;34.80;068;03.42.28.086
12896;170901;34.80;069;03.42.28.086
12928;170896;34.80;070;03.42.28.086
12912;170898;34.80;071;03.42.28.086
12916;170894;34.80;072;03.42.28.086
12896;170900;34.80;073;03.42.28.086
12932;170900;34.80;074;03.42.28.086
12912;170896;34.80;075;03.42.28.174
12916;170906;34.80;076;03.42.28.174
12888;170898;34.80;077;03.42.28.185
12888;170893;34.80;078;03.42.28.185
12928;170896;34.80;079;03.42.28.185
12928;170892;34.80;080;03.42.28.185
12892;170903;34.80;081;03.42.28.185
12928;170909;34.80;082;03.42.28.185
12920;170902;34.80;083;03.42.28.185
12920;170890;34.80;084;03.42.28.185
12900;170898;34.80;085;03.42.28.185
12920;170896;34.80;086;03.42.28.196
12892;170898;34.80;087;03.42.28.196
12924;170901;34.80;088;03.42.28.196
12928;170907;34.80;089;03.42.28.196
12892;170905;34.80;090;03.42.28.196
12900;170913;34.80;091;03.42.28.196
12912;170911;34.80;092;03.42.28.196
12888;170907;34.80;093;03.42.28.196
12932;170909;34.80;094;03.42.28.207
12936;170915;34.80;095;03.42.28.207
12880;170915;34.80;096;03.42.28.207
12892;170915;34.80;097;03.42.28.207
12900;170914;34.80;098;03.42.28.207
12928;170908;34.80;099;03.42.28.207
12900;170923;34.76;100;03.42.28.317
12940;170918;34.76;101;03.42.28.317
12900;170921;34.76;102;03.42.28.317
12884;170921;34.76;103;03.42.28.317
12892;170927;34.76;104;03.42.28.317
12944;170930;34.76;105;03.42.28.317
12916;170927;34.76;106;03.42.28.317
12920;170924;34.76;107;03.42.28.317
12920;170928;34.76;108;03.42.28.317
12888;170924;34.76;109;03.42.28.317
12920;170929;34.76;110;03.42.28.317
12928;170931;34.76;111;03.42.28.318
12920;170929;34.76;112;03.42.28.329
12928;170930;34.76;113;03.42.28.329
12888;170922;34.76;114;03.42.28.329
12912;170930;34.76;115;03.42.28.329
12884;170945;34.76;116;03.42.28.329
12908;170941;34.76;117;03.42.28.340
12908;170941;34.76;118;03.42.28.340
12912;170938;34.76;119;03.42.28.340
12884;170943;34.76;120;03.42.28.340
12904;170934;34.76;121;03.42.28.340
12916;170942;34.76;122;03.42.28.340
12928;170945;34.76;123;03.42.28.340
12916;170955;34.76;124;03.42.28.340
12932;170942;34.76;125;03.42.28.428
12912;170950;34.76;126;03.42.28.428
12912;170947;34.76;127;03.42.28.428
12896;170944;34.76;128;03.42.28.428
12900;170949;34.76;129;03.42.28.428
12900;170956;34.76;130;03.42.28.428
12928;170956;34.76;131;03.42.28.428
12916;170954;34.76;132;03.42.28.428
12920;170965;34.76;133;03.42.28.428
12916;170966;34.76;134;03.42.28.439
12888;170955;34.76;135;03.42.28.439
12912;170964;34.76;136;03.42.28.439
12900;170961;34.76;137;03.42.28.439
12928;170963;34.76;138;03.42.28.439
12896;170968;34.76;139;03.42.28.439
12904;170963;34.76;140;03.42.28.439
12892;170963;34.76;141;03.42.28.439
12876;170963;34.76;142;03.42.28.449
12900;170976;34.76;143;03.42.28.449
12916;170964;34.76;144;03.42.28.449
12904;170969;34.76;145;03.42.28.449
12892;170978;34.76;146;03.42.28.449
12896;170977;34.76;147;03.42.28.449
12912;170972;34.76;148;03.42.28.449
12916;170979;34.76;149;03.42.28.449
12892;170978;34.80;150;03.42.28.570
12884;170976;34.80;151;03.42.28.570
12884;170980;34.80;152;03.42.28.570
12896;170981;34.80;153;03.42.28.570
12908;170975;34.80;154;03.42.28.570
12928;170975;34.80;155;03.42.28.581
12892;170964;34.80;156;03.42.28.581
12904;170970;34.80;157;03.42.28.581
12912;170950;34.80;158;03.42.28.581
12904;170947;34.80;159;03.42.28.581
12920;170943;34.80;160;03.42.28.581
12924;170946;34.80;161;03.42.28.581
12928;170949;34.80;162;03.42.28.581
12904;170929;34.80;163;03.42.28.581
12920;170939;34.80;164;03.42.28.581
12928;170927;34.80;165;03.42.28.581
12908;170924;34.80;166;03.42.28.581
12884;170922;34.80;167;03.42.28.592
12908;170912;34.80;168;03.42.28.592
12884;170916;34.80;169;03.42.28.592
12936;170915;34.80;170;03.42.28.592
12892;170906;34.80;171;03.42.28.592
12912;170910;34.80;172;03.42.28.592
12892;170902;34.80;173;03.42.28.592
12932;170899;34.80;174;03.42.28.592
12884;170901;34.80;175;03.42.28.669
12900;170898;34.80;176;03.42.28.680
12916;170888;34.80;177;03.42.28.680
12892;170888;34.80;178;03.42.28.680
12904;170884;34.80;179;03.42.28.680
12892;170883;34.80;180;03.42.28.680
12896;170882;34.80;181;03.42.28.680
12920;170874;34.80;182;03.42.28.680
12896;170884;34.80;183;03.42.28.691
12880;170880;34.80;184;03.42.28.702
12888;170886;34.80;185;03.42.28.702
12912;170880;34.80;186;03.42.28.702
12888;170884;34.80;187;03.42.28.702
12876;170874;34.80;188;03.42.28.702
12912;170880;34.80;189;03.42.28.702
12928;170880;34.80;190;03.42.28.702
12916;170872;34.80;191;03.42.28.702
12884;170866;34.80;192;03.42.28.702
12936;170870;34.80;193;03.42.28.702
12888;170873;34.80;194;03.42.28.702
12928;170868;34.80;195;03.42.28.702
12900;170883;34.80;196;03.42.28.713
12920;170871;34.80;197;03.42.28.713
12892;170879;34.80;198;03.42.28.713
12924;170878;34.80;199;03.42.28.713
12928;170879;34.80;200;03.42.28.801
12916;170872;34.80;201;03.42.28.801
12896;170875;34.80;202;03.42.28.801
12888;170886;34.80;203;03.42.28.801
12904;170875;34.80;204;03.42.28.801
12928;170887;34.80;205;03.42.28.801
12908;170884;34.80;206;03.42.28.801
12904;170891;34.80;207;03.42.28.801
12908;170889;34.80;208;03.42.28.801
12912;170887;34.80;209;03.42.28.801
12928;170886;34.80;210;03.42.28.801
12900;170884;34.80;211;03.42.28.811
12888;170884;34.80;212;03.42.28.811
12884;170883;34.80;213;03.42.28.811
12920;170886;34.80;214;03.42.28.811
12888;170890;34.80;215;03.42.28.811
12884;170889;34.80;216;03.42.28.811
12928;170893;34.80;217;03.42.28.811
12908;170893;34.80;218;03.42.28.811
12932;170889;34.80;219;03.42.28.811
12896;170891;34.80;220;03.42.28.811
12916;170895;34.80;221;03.42.28.811
12928;170891;34.80;222;03.42.28.811
12904;170884;34.80;223;03.42.28.822
12912;170889;34.80;224;03.42.28.822
12892;170886;34.80;225;03.42.28.920
12884;170890;34.80;226;03.42.28.920
12860;170894;34.80;227;03.42.28.920
12884;170892;34.80;228;03.42.28.920
12920;170886;34.80;229;03.42.28.920
12900;170889;34.80;230;03.42.28.920
12920;170887;34.80;231;03.42.28.931
12912;170893;34.80;232;03.42.28.931
12900;170885;34.80;233;03.42.28.931
12928;170888;34.80;234;03.42.28.931
12912;170888;34.80;235;03.42.28.931
12900;170891;34.80;236;03.42.28.931
12908;170893;34.80;237;03.42.28.931
12916;170887;34.80;238;03.42.28.931
12884;170888;34.80;239;03.42.28.931
12904;170890;34.80;240;03.42.28.931
12900;170906;34.80;241;03.42.28.931
12908;170899;34.80;242;03.42.28.931
12892;170901;34.80;243;03.42.28.931
12904;170901;34.80;244;03.42.28.942
12876;170904;34.80;245;03.42.28.942
12904;170898;34.80;246;03.42.28.942
12896;170898;34.80;247;03.42.28.942
12876;170906;34.80;248;03.42.28.942
12892;170902;34.80;249;03.42.28.942
12908;170911;34.80;250;03.42.29.052
12876;170912;34.80;251;03.42.29.052
12884;170923;34.80;252;03.42.29.063
12908;170922;34.80;253;03.42.29.063
12912;170919;34.80;254;03.42.29.063
12896;170925;34.80;255;03.42.29.063
12904;170916;34.80;256;03.42.29.063
12908;170924;34.80;257;03.42.29.063
12896;170919;34.80;258;03.42.29.063
12900;170930;34.80;259;03.42.29.063
12908;170933;34.80;260;03.42.29.063
12892;170924;34.80;261;03.42.29.063
12884;170931;34.80;262;03.42.29.063
12880;170930;34.80;263;03.42.29.063
12888;170932;34.80;264;03.42.29.063
12904;170935;34.80;265;03.42.29.073
12908;170929;34.80;266;03.42.29.073
12864;170931;34.80;267;03.42.29.073
12892;170930;34.80;268;03.42.29.073
12892;170938;34.80;269;03.42.29.073
12892;170945;34.80;270;03.42.29.073
12888;170944;34.80;271;03.42.29.073
12900;170948;34.80;272;03.42.29.073
12896;170934;34.80;273;03.42.29.073
12896;170948;34.80;274;03.42.29.073
12904;170948;34.80;275;03.42.29.194
12908;170947;34.80;276;03.42.29.194
12900;170949;34.80;277;03.42.29.194
12904;170955;34.80;278;03.42.29.194
12884;170955;34.80;279;03.42.29.194
12908;170964;34.80;280;03.42.29.194
12908;170957;34.80;281;03.42.29.194
12928;170963;34.80;282;03.42.29.194
12904;170959;34.80;283;03.42.29.194
12904;170963;34.80;284;03.42.29.194
12892;170967;34.80;285;03.42.29.205
12896;170966;34.80;286;03.42.29.205
12884;170967;34.80;287;03.42.29.205
12912;170966;34.80;288;03.42.29.205
12928;170977;34.80;289;03.42.29.205
12904;170979;34.80;290;03.42.29.205
12916;170978;34.80;291;03.42.29.205
12896;170977;34.80;292;03.42.29.205
12920;170973;34.80;293;03.42.29.205
12892;170982;34.80;294;03.42.29.205
12892;170977;34.80;295;03.42.29.205
12908;170986;34.80;296;03.42.29.205
12960;170978;34.80;297;03.42.29.216
12904;170975;34.80;298;03.42.29.216
12908;170985;34.80;299;03.42.29.216
12884;170986;34.80;300;03.42.29.304
12928;170989;34.80;301;03.42.29.304
12916;170992;34.80;302;03.42.29.304
12904;170988;34.80;303;03.42.29.304
12908;170989;34.80;304;03.42.29.304
12896;170992;34.80;305;03.42.29.304
12872;170989;34.80;306;03.42.29.304
12892;170993;34.80;307;03.42.29.315
12904;171000;34.80;308;03.42.29.315
12912;171006;34.80;309;03.42.29.315
12924;171000;34.80;310;03.42.29.315
12892;171003;34.80;311;03.42.29.315
12912;170997;34.80;312;03.42.29.315
12928;171006;34.80;313;03.42.29.315
12932;171003;34.80;314;03.42.29.315
12892;171007;34.80;315;03.42.29.315
12908;171006;34.80;316;03.42.29.315
12900;171004;34.80;317;03.42.29.336
12904;171000;34.80;318;03.42.29.336
12928;171007;34.80;319;03.42.29.336
12896;170998;34.80;320;03.42.29.336
12900;170994;34.80;321;03.42.29.336
12932;170989;34.80;322;03.42.29.336
12888;170994;34.80;323;03.42.29.336
12912;170986;34.80;324;03.42.29.347
12916;170985;34.80;325;03.42.29.424
12916;170978;34.80;326;03.42.29.424
12916;170980;34.80;327;03.42.29.424
12924;170974;34.80;328;03.42.29.435
12924;170970;34.80;329;03.42.29.435
12904;170962;34.80;330;03.42.29.435
12896;170958;34.80;331;03.42.29.435
12928;170946;34.80;332;03.42.29.435
12912;170942;34.80;333;03.42.29.435
12900;170944;34.80;334;03.42.29.435
12912;170939;34.80;335;03.42.29.435
12912;170930;34.80;336;03.42.29.435
12900;170935;34.80;337;03.42.29.435
12904;170927;34.80;338;03.42.29.435
12892;170932;34.80;339;03.42.29.435
12884;170929;34.80;340;03.42.29.435
12928;170924;34.80;341;03.42.29.446
12908;170925;34.80;342;03.42.29.446
12920;170920;34.80;343;03.42.29.446
12920;170916;34.80;344;03.42.29.446
12892;170920;34.80;345;03.42.29.446
12892;170917;34.80;346;03.42.29.446
12928;170919;34.80;347;03.42.29.446
12916;170918;34.80;348;03.42.29.446
12892;170911;34.80;349;03.42.29.446
12928;170918;34.76;350;03.42.29.556
12884;170909;34.76;351;03.42.29.556
12936;170920;34.76;352;03.42.29.556
12916;170917;34.76;353;03.42.29.556
12892;170911;34.76;354;03.42.29.556
12904;170910;34.76;355;03.42.29.556
12908;170905;34.76;356;03.42.29.556
12868;170911;34.76;357;03.42.29.556
12924;170909;34.76;358;03.42.29.556
12892;170910;34.76;359;03.42.29.556
12924;170902;34.76;360;03.42.29.556
12896;170916;34.76;361;03.42.29.556
12892;170905;34.76;362;03.42.29.567
12900;170905;34.76;363;03.42.29.567
12876;170909;34.76;364;03.42.29.567
12912;170908;34.76;365;03.42.29.567
12916;170907;34.76;366;03.42.29.567
12884;170908;34.76;367;03.42.29.567
12908;170906;34.76;368;03.42.29.567
12912;170908;34.76;369;03.42.29.567
12896;170903;34.76;370;03.42.29.567
12920;170909;34.76;371;03.42.29.567
12928;170918;34.76;372;03.42.29.567
12904;170911;34.76;373;03.42.29.567
12908;170904;34.76;374;03.42.29.567
12932;170906;34.76;375;03.42.29.688
12916;170917;34.76;376;03.42.29.688
12888;170911;34.76;377;03.42.29.688
12928;170904;34.76;378;03.42.29.688
12876;170909;34.76;379;03.42.29.688
12912;170913;34.76;380;03.42.29.688
12892;170912;34.76;381;03.42.29.688
12904;170911;34.76;382;03.42.29.688
12908;170911;34.76;383;03.42.29.688
12904;170912;34.76;384;03.42.29.699
12892;170915;34.76;385;03.42.29.699
12916;170920;34.76;386;03.42.29.699
12884;170920;34.76;387;03.42.29.699
12900;170905;34.76;388;03.42.29.699
12888;170914;34.76;389;03.42.29.699
12888;170915;34.76;390;03.42.29.699
12896;170909;34.76;391;03.42.29.699
12908;170916;34.76;392;03.42.29.699
12888;170914;34.76;393;03.42.29.699
12916;170908;34.76;394;03.42.29.699
12916;170911;34.76;395;03.42.29.699
12892;170916;34.76;396;03.42.29.699
12920;170912;34.76;397;03.42.29.710
12920;170919;34.76;398;03.42.29.710
12892;170909;34.76;399;03.42.29.710
12916;170908;34.80;400;03.42.29.798
12932;170913;34.80;401;03.42.29.798
12928;170913;34.80;402;03.42.29.798
12904;170911;34.80;403;03.42.29.798
12896;170917;34.80;404;03.42.29.798
12920;170916;34.80;405;03.42.29.798
12904;170916;34.80;406;03.42.29.809
12892;170918;34.80;407;03.42.29.809
12904;170919;34.80;408;03.42.29.831
12892;170920;34.80;409;03.42.29.831
12904;170928;34.80;410;03.42.29.831
12904;170923;34.80;411;03.42.29.831
12916;170922;34.80;412;03.42.29.831
12904;170928;34.80;413;03.42.29.831
12928;170921;34.80;414;03.42.29.842
12920;170927;34.80;415;03.42.29.842
12900;170929;34.80;416;03.42.29.842
12928;170930;34.80;417;03.42.29.842
12928;170938;34.80;418;03.42.29.842
12928;170930;34.80;419;03.42.29.842
12876;170940;34.80;420;03.42.29.842
12924;170931;34.80;421;03.42.29.842
12936;170937;34.80;422;03.42.29.842
12892;170938;34.80;423;03.42.29.853
12904;170942;34.80;424;03.42.29.853
12904;170942;34.80;425;03.42.29.919
12920;170945;34.80;426;03.42.29.919
12896;170943;34.80;427;03.42.29.919
12904;170947;34.80;428;03.42.29.930
12960;170958;34.80;429;03.42.29.930
12908;170952;34.80;430;03.42.29.930
12908;170954;34.80;431;03.42.29.930
12892;170955;34.80;432;03.42.29.930
12896;170955;34.80;433;03.42.29.930
12880;170954;34.80;434;03.42.29.930
12928;170950;34.80;435;03.42.29.930
12912;170953;34.80;436;03.42.29.941
12884;170949;34.80;437;03.42.29.941
12888;170957;34.80;438;03.42.29.941
12916;170956;34.80;439;03.42.29.941
12928;170962;34.80;440;03.42.29.941
12908;170957;34.80;441;03.42.29.941
12920;170951;34.80;442;03.42.29.941
12912;170959;34.80;443;03.42.29.941
12904;170963;34.80;444;03.42.29.941
12888;170968;34.80;445;03.42.29.941
12896;170964;34.80;446;03.42.29.952
12896;170964;34.80;447;03.42.29.952
12896;170971;34.80;448;03.42.29.952
12912;170976;34.80;449;03.42.29.952
12920;170973;34.80;450;03.42.30.073
12928;170980;34.80;451;03.42.30.073
12896;170973;34.80;452;03.42.30.073
12900;170984;34.80;453;03.42.30.073
12876;170974;34.80;454;03.42.30.073
12908;170980;34.80;455;03.42.30.073
12928;170980;34.80;456;03.42.30.073
12892;170977;34.80;457;03.42.30.073
12900;170973;34.80;458;03.42.30.073
12924;170976;34.80;459;03.42.30.073
12892;170988;34.80;460;03.42.30.073
12928;170977;34.80;461;03.42.30.073
12904;170985;34.80;462;03.42.30.083
12892;170982;34.80;463;03.42.30.083
12884;170988;34.80;464;03.42.30.083
12892;170991;34.80;465;03.42.30.083
12876;170994;34.80;466;03.42.30.083
12908;170991;34.80;467;03.42.30.094
12880;170985;34.80;468;03.42.30.094
12908;170998;34.80;469;03.42.30.094
12916;170996;34.80;470;03.42.30.094
12920;171000;34.80;471;03.42.30.094
12904;170999;34.80;472;03.42.30.094
12928;171005;34.80;473;03.42.30.094
12900;171001;34.80;474;03.42.30.094
12924;171013;34.80;475;03.42.30.193
12896;171009;34.80;476;03.42.30.193
12892;171000;34.80;477;03.42.30.193
12904;171004;34.80;478;03.42.30.193
12916;171011;34.80;479;03.42.30.193
12908;171017;34.80;480;03.42.30.193
12872;171012;34.80;481;03.42.30.193
12892;171016;34.80;482;03.42.30.204
12912;171024;34.80;483;03.42.30.204
12908;171018;34.80;484;03.42.30.204
12912;171015;34.80;485;03.42.30.204
12916;171012;34.80;486;03.42.30.204
12904;171012;34.80;487;03.42.30.204
12928;171008;34.80;488;03.42.30.204
12908;171006;34.80;489;03.42.30.204
12916;170993;34.80;490;03.42.30.204
12892;170997;34.80;491;03.42.30.204
12892;170994;34.80;492;03.42.30.204
12920;170994;34.80;493;03.42.30.204
12892;170987;34.80;494;03.42.30.204
12920;170989;34.80;495;03.42.30.204
12928;170980;34.80;496;03.42.30.206
12900;170967;34.80;497;03.42.30.206
12928;170979;34.80;498;03.42.30.217
12900;170969;34.80;499;03.42.30.217
12888;170964;34.76;500;03.42.30.304
12884;170964;34.76;501;03.42.30.304
12880;170960;34.76;502;03.42.30.304
12912;170950;34.76;503;03.42.30.304
12904;170949;34.76;504;03.42.30.304
12912;170947;34.76;505;03.42.30.304
12876;170944;34.76;506;03.42.30.304
12916;170943;34.76;507;03.42.30.315
12896;170939;34.76;508;03.42.30.326
12900;170935;34.76;509;03.42.30.326
12892;170931;34.76;510;03.42.30.326
12900;170926;34.76;511;03.42.30.326
12892;170937;34.76;512;03.42.30.326
12920;170937;34.76;513;03.42.30.326
12904;170928;34.76;514;03.42.30.337
12904;170928;34.76;515;03.42.30.337
12928;170926;34.76;516;03.42.30.337
12904;170933;34.76;517;03.42.30.337
12892;170932;34.76;518;03.42.30.337
12888;170931;34.76;519;03.42.30.337
12872;170927;34.76;520;03.42.30.337
12860;170929;34.76;521;03.42.30.337
12900;170926;34.76;522;03.42.30.337
12880;170926;34.76;523;03.42.30.337
12924;170931;34.76;524;03.42.30.337
12876;170920;34.76;525;03.42.30.425
12896;170920;34.76;526;03.42.30.425
12904;170933;34.76;527;03.42.30.436
12904;170922;34.76;528;03.42.30.436
12876;170923;34.76;529;03.42.30.436
12872;170932;34.76;530;03.42.30.436
12876;170932;34.76;531;03.42.30.436
12888;170930;34.76;532;03.42.30.436
12900;170931;34.76;533;03.42.30.436
12932;170927;34.76;534;03.42.30.436
12904;170932;34.76;535;03.42.30.436
12900;170924;34.76;536;03.42.30.436
12908;170940;34.76;537;03.42.30.436
12908;170932;34.76;538;03.42.30.436
12904;170939;34.76;539;03.42.30.436
12916;170937;34.76;540;03.42.30.436
12928;170936;34.76;541;03.42.30.447
12900;170929;34.76;542;03.42.30.447
12892;170931;34.76;543;03.42.30.447
12908;170938;34.76;544;03.42.30.447
12900;170938;34.76;545;03.42.30.447
12908;170934;34.76;546;03.42.30.447
12892;170942;34.76;547;03.42.30.447
12896;170943;34.76;548;03.42.30.447
12916;170942;34.76;549;03.42.30.447
12912;170932;34.80;550;03.42.30.556
12928;170934;34.80;551;03.42.30.556
12928;170939;34.80;552;03.42.30.556
12932;170941;34.80;553;03.42.30.556
12884;170938;34.80;554;03.42.30.556
12884;170928;34.80;555;03.42.30.556
12892;170938;34.80;556;03.42.30.556
12912;170929;34.80;557;03.42.30.556
12900;170932;34.80;558;03.42.30.556
12908;170934;34.80;559;03.42.30.556
12900;170933;34.80;560;03.42.30.556
12896;170936;34.80;561;03.42.30.567
12912;170938;34.80;562;03.42.30.567
12896;170934;34.80;563;03.42.30.567
12904;170937;34.80;564;03.42.30.567
12928;170934;34.80;565;03.42.30.567
12904;170920;34.80;566;03.42.30.567
12920;170933;34.80;567;03.42.30.567
12928;170932;34.80;568;03.42.30.567
12928;170934;34.80;569;03.42.30.567
12896;170937;34.80;570;03.42.30.567
12912;170944;34.80;571;03.42.30.567
12884;170943;34.80;572;03.42.30.567
12880;170938;34.80;573;03.42.30.567
12936;170938;34.80;574;03.42.30.578
12900;170943;34.80;575;03.42.30.688
12888;170934;34.80;576;03.42.30.688
12896;170949;34.80;577;03.42.30.688
12928;170938;34.80;578;03.42.30.688
12908;170947;34.80;579;03.42.30.688
12896;170951;34.80;580;03.42.30.688
12888;170955;34.80;581;03.42.30.688
12896;170952;34.80;582;03.42.30.688
12860;170950;34.80;583;03.42.30.699
12900;170959;34.80;584;03.42.30.699
12904;170954;34.80;585;03.42.30.699
12900;170956;34.80;586;03.42.30.699
12888;170961;34.80;587;03.42.30.699
12928;170961;34.80;588;03.42.30.699
12908;170960;34.80;589;03.42.30.699
12908;170967;34.80;590;03.42.30.699
12892;170969;34.80;591;03.42.30.699
12912;170962;34.80;592;03.42.30.699
12884;170970;34.80;593;03.42.30.699
12892;170962;34.80;594;03.42.30.699
12888;170967;34.80;595;03.42.30.710
12872;170968;34.80;596;03.42.30.710
12892;170973;34.80;597;03.42.30.710
12908;170974;34.80;598;03.42.30.710
12908;170982;34.80;599;03.42.30.710
12880;170975;34.76;600;03.42.30.820
12880;170979;34.76;601;03.42.30.820
12928;170973;34.76;602;03.42.30.820
12900;170979;34.76;603;03.42.30.820
12916;170972;34.76;604;03.42.30.830
12888;170982;34.76;605;03.42.30.830
12892;170981;34.76;606;03.42.30.830
12904;170985;34.76;607;03.42.30.830
12908;170978;34.76;608;03.42.30.830
12904;170987;34.76;609;03.42.30.830
12896;170997;34.76;610;03.42.30.830
12912;170990;34.76;611;03.42.30.830
12900;170999;34.76;612;03.42.30.830
12904;170985;34.76;613;03.42.30.830
12888;170998;34.76;614;03.42.30.830
12904;170996;34.76;615;03.42.30.841
12928;170997;34.76;616;03.42.30.841
12928;170997;34.76;617;03.42.30.841
12896;170997;34.76;618;03.42.30.841
12920;171004;34.76;619;03.42.30.841
12916;171007;34.76;620;03.42.30.841
12900;171007;34.76;621;03.42.30.841
12900;171011;34.76;622;03.42.30.841
12908;171006;34.76;623;03.42.30.841
12912;171017;34.76;624;03.42.30.841
12876;171003;34.76;625;03.42.30.929
12896;171000;34.76;626;03.42.30.929
12900;171009;34.76;627;03.42.30.929
12872;171013;34.76;628;03.42.30.929
12892;171018;34.76;629;03.42.30.929
12912;171011;34.76;630;03.42.30.929
12900;171014;34.76;631;03.42.30.929
12916;171022;34.76;632;03.42.30.929
12896;171023;34.76;633;03.42.30.929
12884;171022;34.76;634;03.42.30.929
12908;171022;34.76;635;03.42.30.929
12888;171020;34.76;636;03.42.30.929
12928;171022;34.76;637;03.42.30.929
12908;171032;34.76;638;03.42.30.940
12896;171028;34.76;639;03.42.30.940
12920;171033;34.76;640;03.42.30.940
12908;171030;34.76;641;03.42.30.940
12924;171033;34.76;642;03.42.30.940
12936;171026;34.76;643;03.42.30.940
12904;171035;34.76;644;03.42.30.940
12876;171034;34.76;645;03.42.30.940
12928;171029;34.76;646;03.42.30.940
12900;171036;34.76;647;03.42.30.940
12928;171033;34.76;648;03.42.30.940
12916;171037;34.76;649;03.42.30.940
12892;171031;34.80;650;03.42.31.049
12884;171030;34.80;651;03.42.31.049
12912;171025;34.80;652;03.42.31.049
12896;171026;34.80;653;03.42.31.049
12916;171010;34.80;654;03.42.31.049
12900;171013;34.80;655;03.42.31.049
12928;171004;34.80;656;03.42.31.049
12900;170996;34.80;657;03.42.31.049
12904;170998;34.80;658;03.42.31.060
12884;170994;34.80;659;03.42.31.060
12912;170987;34.80;660;03.42.31.060
12892;170984;34.80;661;03.42.31.060
12900;170987;34.80;662;03.42.31.060
12892;170980;34.80;663;03.42.31.060
12888;170972;34.80;664;03.42.31.060
12928;170967;34.80;665;03.42.31.060
12900;170966;34.80;666;03.42.31.060
12904;170977;34.80;667;03.42.31.060
12896;170969;34.80;668;03.42.31.071
12896;170963;34.80;669;03.42.31.071
12912;170957;34.80;670;03.42.31.071
12900;170961;34.80;671;03.42.31.071
12900;170954;34.80;672;03.42.31.071
12868;170957;34.80;673;03.42.31.071
12916;170946;34.80;674;03.42.31.071
12920;170950;34.80;675;03.42.31.181
12908;170942;34.80;676;03.42.31.181
12896;170950;34.80;677;03.42.31.181
12892;170955;34.80;678;03.42.31.181
12936;170958;34.80;679;03.42.31.181
12896;170951;34.80;680;03.42.31.192
12880;170959;34.80;681;03.42.31.192
12920;170954;34.80;682;03.42.31.192
12932;170952;34.80;683;03.42.31.192
12900;170951;34.80;684;03.42.31.192
12900;170952;34.80;685;03.42.31.192
12884;170950;34.80;686;03.42.31.192
12908;170949;34.80;687;03.42.31.192
12896;170957;34.80;688;03.42.31.192
12892;170961;34.80;689;03.42.31.192
12924;170952;34.80;690;03.42.31.192
12912;170956;34.80;691;03.42.31.192
12892;170948;34.80;692;03.42.31.192
12904;170959;34.80;693;03.42.31.203
12900;170949;34.80;694;03.42.31.203
12920;170955;34.80;695;03.42.31.203
12912;170958;34.80;696;03.42.31.203
12904;170961;34.80;697;03.42.31.203
12908;170959;34.80;698;03.42.31.203
12892;170963;34.80;699;03.42.31.203
12880;170965;34.80;700;03.42.31.313
12936;170963;34.80;701;03.42.31.324
12908;170957;34.80;702;03.42.31.324
12896;170962;34.80;703;03.42.31.324
12904;170955;34.80;704;03.42.31.324
12916;170965;34.80;705;03.42.31.324
12892;170966;34.80;706;03.42.31.324
12892;170967;34.80;707;03.42.31.324
12892;170962;34.80;708;03.42.31.324
12920;170959;34.80;709;03.42.31.324
12892;170963;34.80;710;03.42.31.324
12904;170968;34.80;711;03.42.31.324
12892;170968;34.80;712;03.42.31.324
12904;170969;34.80;713;03.42.31.324
12928;170959;34.80;714;03.42.31.324
12936;170969;34.80;715;03.42.31.335
12892;170966;34.80;716;03.42.31.335
12916;170965;34.80;717;03.42.31.335
12960;170963;34.80;718;03.42.31.335
12896;170956;34.80;719;03.42.31.335
12884;170965;34.80;720;03.42.31.335
12912;170965;34.80;721;03.42.31.335
12892;170958;34.80;722;03.42.31.335
12904;170958;34.80;723;03.42.31.335
12940;170964;34.80;724;03.42.31.335
12892;170950;34.80;725;03.42.31.433
12904;170964;34.80;726;03.42.31.433
12892;170961;34.80;727;03.42.31.433
12912;170962;34.80;728;03.42.31.433
12916;170950;34.80;729;03.42.31.433
12912;170961;34.80;730;03.42.31.433
12904;170963;34.80;731;03.42.31.433
12908;170965;34.80;732;03.42.31.433
12892;170964;34.80;733;03.42.31.455
12892;170969;34.80;734;03.42.31.455
12920;170968;34.80;735;03.42.31.455
12896;170971;34.80;736;03.42.31.455
12900;170976;34.80;737;03.42.31.455
12896;170974;34.80;738;03.42.31.455
12888;170972;34.80;739;03.42.31.455
12920;170971;34.80;740;03.42.31.455
12912;170974;34.80;741;03.42.31.455
12928;170974;34.80;742;03.42.31.455
12880;170977;34.80;743;03.42.31.455
12892;170980;34.80;744;03.42.31.466
12924;170984;34.80;745;03.42.31.466
12916;170978;34.80;746;03.42.31.466
12888;170982;34.80;747;03.42.31.466
12900;170982;34.80;748;03.42.31.466
12916;170981;34.80;749;03.42.31.466
12900;170984;34.76;750;03.42.31.554
12900;170976;34.76;751;03.42.31.554
12896;170981;34.76;752;03.42.31.554
12896;170994;34.76;753;03.42.31.554
12904;170992;34.76;754;03.42.31.554
12924;171000;34.76;755;03.42.31.554
12908;170984;34.76;756;03.42.31.554
12900;170995;34.76;757;03.42.31.565
12920;170998;34.76;758;03.42.31.565
12884;170990;34.76;759;03.42.31.565
12892;170990;34.76;760;03.42.31.565
12876;170998;34.76;761;03.42.31.565
12892;170996;34.76;762;03.42.31.565
12908;171003;34.76;763;03.42.31.565
12892;171001;34.76;764;03.42.31.565
12908;171002;34.76;765;03.42.31.565
12900;171003;34.76;766;03.42.31.565
12880;171005;34.76;767;03.42.31.565
12892;171003;34.76;768;03.42.31.565
12908;171002;34.76;769;03.42.31.565
12928;171010;34.76;770;03.42.31.576
12900;171011;34.76;771;03.42.31.576
12892;171011;34.76;772;03.42.31.576
12896;171017;34.76;773;03.42.31.576
12928;171021;34.76;774;03.42.31.576
12888;171010;34.76;775;03.42.31.675
12912;171017;34.76;776;03.42.31.675
12860;171014;34.76;777;03.42.31.675
12916;171020;34.76;778;03.42.31.675
12928;171013;34.76;779;03.42.31.686
12936;171019;34.76;780;03.42.31.686
12900;171022;34.76;781;03.42.31.686
12912;171024;34.76;782;03.42.31.686
12904;171025;34.76;783;03.42.31.686
12912;171030;34.76;784;03.42.31.686
12884;171025;34.76;785;03.42.31.686
12892;171033;34.76;786;03.42.31.686
12928;171031;34.76;787;03.42.31.686
12916;171032;34.76;788;03.42.31.686
12912;171034;34.76;789;03.42.31.686
12900;171039;34.76;790;03.42.31.686
12912;171041;34.76;791;03.42.31.686
12904;171036;34.76;792;03.42.31.697
12912;171034;34.76;793;03.42.31.697
12908;171037;34.76;794;03.42.31.697
12884;171038;34.76;795;03.42.31.697
12924;171034;34.76;796;03.42.31.697
12912;171043;34.76;797;03.42.31.697
12904;171036;34.76;798;03.42.31.697
12940;171038;34.76;799;03.42.31.697
12892;171046;34.80;800;03.42.31.817
12916;171042;34.80;801;03.42.31.817
12912;171035;34.80;802;03.42.31.817
12904;171042;34.80;803;03.42.31.817
12892;171053;34.80;804;03.42.31.817
12912;171040;34.80;805;03.42.31.817
12884;171034;34.80;806;03.42.31.817
12900;171030;34.80;807;03.42.31.817
12896;171026;34.80;808;03.42.31.817
12884;171022;34.80;809;03.42.31.817
12900;171029;34.80;810;03.42.31.817
12868;171021;34.80;811;03.42.31.817
12892;171015;34.80;812;03.42.31.828
12908;171000;34.80;813;03.42.31.828
12928;170997;34.80;814;03.42.31.828
12900;170994;34.80;815;03.42.31.828
12908;170999;34.80;816;03.42.31.828
12888;170995;34.80;817;03.42.31.839
12912;170989;34.80;818;03.42.31.839
12884;170980;34.80;819;03.42.31.839
12896;170976;34.80;820;03.42.31.839
12916;170990;34.80;821;03.42.31.839
12920;170978;34.80;822;03.42.31.839
12928;170977;34.80;823;03.42.31.839
12928;170969;34.80;824;03.42.31.839
12892;170970;34.80;825;03.42.31.927
12892;170965;34.80;826;03.42.31.927
12896;170961;34.80;827;03.42.31.927
12920;170957;34.80;828;03.42.31.927
12880;170963;34.80;829;03.42.31.927
12904;170963;34.80;830;03.42.31.927
12892;170959;34.80;831;03.42.31.927
12908;170969;34.80;832;03.42.31.927
12900;170961;34.80;833;03.42.31.949
12912;170958;34.80;834;03.42.31.949
12900;170957;34.80;835;03.42.31.949
12924;170958;34.80;836;03.42.31.949
12908;170951;34.80;837;03.42.31.949
12892;170956;34.80;838;03.42.31.949
12908;170959;34.80;839;03.42.31.949
12880;170964;34.80;840;03.42.31.949
12908;170957;34.80;841;03.42.31.949
12896;170959;34.80;842;03.42.31.960
12928;170956;34.80;843;03.42.31.960
12908;170962;34.80;844;03.42.31.960
12900;170959;34.80;845;03.42.31.960
12884;170961;34.80;846;03.42.31.960
12892;170960;34.80;847;03.42.31.960
12888;170958;34.80;848;03.42.31.960
12916;170962;34.80;849;03.42.31.960
12892;170960;34.80;850;03.42.32.048
12908;170958;34.80;851;03.42.32.048
12908;170962;34.80;852;03.42.32.048
12912;170963;34.80;853;03.42.32.048
12928;170968;34.80;854;03.42.32.048
12872;170963;34.80;855;03.42.32.048
12904;170968;34.80;856;03.42.32.059
12916;170961;34.80;857;03.42.32.059
12916;170965;34.80;858;03.42.32.059
12912;170973;34.80;859;03.42.32.059
12884;170969;34.80;860;03.42.32.059
12892;170968;34.80;861;03.42.32.059
12916;170963;34.80;862;03.42.32.059
12860;170971;34.80;863;03.42.32.059
12920;170962;34.80;864;03.42.32.059
12908;170964;34.80;865;03.42.32.059
12912;170969;34.80;866;03.42.32.059
12904;170970;34.80;867;03.42.32.059
12884;170965;34.80;868;03.42.32.059
12900;170958;34.80;869;03.42.32.070
12876;170958;34.80;870;03.42.32.070
12928;170958;34.80;871;03.42.32.070
12928;170958;34.80;872;03.42.32.070
12904;170961;34.80;873;03.42.32.070
12920;170961;34.80;874;03.42.32.070
12916;170962;34.80;875;03.42.32.169
12876;170956;34.80;876;03.42.32.169
12900;170954;34.80;877;03.42.32.180
12912;170956;34.80;878;03.42.32.180
12896;170957;34.80;879;03.42.32.180
12904;170957;34.80;880;03.42.32.180
12920;170959;34.80;881;03.42.32.180
12908;170956;34.80;882;03.42.32.180
12920;170962;34.80;883;03.42.32.180
12896;170957;34.80;884;03.42.32.180
12916;170957;34.80;885;03.42.32.180
12928;170962;34.80;886;03.42.32.180
12928;170954;34.80;887;03.42.32.180
12916;170956;34.80;888;03.42.32.180
12896;170972;34.80;889;03.42.32.180
12892;170962;34.80;890;03.42.32.191
12892;170967;34.80;891;03.42.32.191
12872;170965;34.80;892;03.42.32.191
12904;170980;34.80;893;03.42.32.191
12884;170966;34.80;894;03.42.32.191
12912;170967;34.80;895;03.42.32.191
12920;170974;34.80;896;03.42.32.191
12892;170966;34.80;897;03.42.32.191
12908;170973;34.80;898;03.42.32.191
12916;170979;34.80;899;03.42.32.191
12928;170975;34.80;900;03.42.32.311
12916;170978;34.80;901;03.42.32.311
12900;170980;34.80;902;03.42.32.311
12896;170978;34.80;903;03.42.32.311
12892;170979;34.80;904;03.42.32.311
12912;170977;34.80;905;03.42.32.311
12908;170983;34.80;906;03.42.32.311
12912;170979;34.80;907;03.42.32.311
12928;170978;34.80;908;03.42.32.322
12892;170982;34.80;909;03.42.32.322
12900;170982;34.80;910;03.42.32.322
12912;170979;34.80;911;03.42.32.322
12892;170986;34.80;912;03.42.32.322
12876;170993;34.80;913;03.42.32.322
12936;170992;34.80;914;03.42.32.322
12920;170981;34.80;915;03.42.32.322
12932;170996;34.80;916;03.42.32.322
12916;170994;34.80;917;03.42.32.322
12916;170993;34.80;918;03.42.32.322
12916;170993;34.80;919;03.42.32.333
12912;170991;34.80;920;03.42.32.333
12936;171000;34.80;921;03.42.32.333
12892;170994;34.80;922;03.42.32.333
12916;170999;34.80;923;03.42.32.333
12908;170996;34.80;924;03.42.32.333
12876;170993;34.80;925;03.42.32.443
12896;170998;34.80;926;03.42.32.443
12900;170998;34.80;927;03.42.32.443
12944;171005;34.80;928;03.42.32.443
12920;171014;34.80;929;03.42.32.443
12916;171008;34.80;930;03.42.32.443
12900;171003;34.80;931;03.42.32.443
12928;171006;34.80;932;03.42.32.454
12888;171009;34.80;933;03.42.32.454
12932;171009;34.80;934;03.42.32.454
12900;171004;34.80;935;03.42.32.454
12908;171011;34.80;936;03.42.32.454
12944;171006;34.80;937;03.42.32.454
12916;171014;34.80;938;03.42.32.454
12912;171014;34.80;939;03.42.32.454
12944;171014;34.80;940;03.42.32.454
12912;171016;34.80;941;03.42.32.454
12928;171014;34.80;942;03.42.32.454
12944;171019;34.80;943;03.42.32.454
12888;171017;34.80;944;03.42.32.454
12904;171025;34.80;945;03.42.32.465
12896;171022;34.80;946;03.42.32.465
12892;171024;34.80;947;03.42.32.465
12904;171023;34.80;948;03.42.32.465
12944;171021;34.80;949;03.42.32.465
12892;171022;34.80;950;03.42.32.574
12892;171024;34.80;951;03.42.32.574
12908;171021;34.80;952;03.42.32.574
12884;171018;34.80;953;03.42.32.585
12892;171016;34.80;954;03.42.32.585
12888;171014;34.80;955;03.42.32.585
12928;171007;34.80;956;03.42.32.585
12904;171003;34.80;957;03.42.32.585
12924;170998;34.80;958;03.42.32.585
12936;170998;34.80;959;03.42.32.585
12876;170997;34.80;960;03.42.32.585
12908;170996;34.80;961;03.42.32.585
12920;170986;34.80;962;03.42.32.585
12916;170981;34.80;963;03.42.32.585
12892;170970;34.80;964;03.42.32.585
12928;170982;34.80;965;03.42.32.585
12920;170973;34.80;966;03.42.32.596
12916;170970;34.80;967;03.42.32.596
12884;170959;34.80;968;03.42.32.596
12924;170967;34.80;969;03.42.32.596
12908;170959;34.80;970;03.42.32.607
12904;170952;34.80;971;03.42.32.607
12900;170955;34.80;972;03.42.32.607
12892;170938;34.80;973;03.42.32.607
12928;170945;34.80;974;03.42.32.607
12900;170942;34.80;975;03.42.32.684
12904;170941;34.80;976;03.42.32.684
12916;170940;34.80;977;03.42.32.684
12912;170933;34.80;978;03.42.32.684
12888;170930;34.80;979;03.42.32.684
12928;170927;34.80;980;03.42.32.684
12932;170932;34.80;981;03.42.32.684
12892;170928;34.80;982;03.42.32.684
12928;170932;34.80;983;03.42.32.684
12892;170932;34.80;984;03.42.32.684
12896;170942;34.80;985;03.42.32.684
12916;170935;34.80;986;03.42.32.684
12892;170938;34.80;987;03.42.32.695
12920;170946;34.80;988;03.42.32.695
12924;170927;34.80;989;03.42.32.695
12896;170940;34.80;990;03.42.32.695
12928;170932;34.80;991;03.42.32.695
12900;170934;34.80;992;03.42.32.695
12920;170933;34.80;993;03.42.32.695
12912;170931;34.80;994;03.42.32.695
12892;170935;34.80;995;03.42.32.695
12920;170935;34.80;996;03.42.32.695
12912;170929;34.80;997;03.42.32.695
12936;170934;34.80;998;03.42.32.695
12928;170932;34.80;999;03.42.32.695
12908;170937;34.76;000;03.42.32.806
12900;170942;34.76;001;03.42.32.806
12928;170934;34.76;002;03.42.32.806
12892;170939;34.76;003;03.42.32.806
12936;170938;34.76;004;03.42.32.806
12936;170939;34.76;005;03.42.32.806
12896;170939;34.76;006;03.42.32.806
12892;170935;34.76;007;03.42.32.806
12904;170941;34.76;008;03.42.32.806
12904;170934;34.76;009;03.42.32.806
12900;170933;34.76;010;03.42.32.817
12876;170931;34.76;011;03.42.32.817
12900;170933;34.76;012;03.42.32.817
12908;170933;34.76;013;03.42.32.817
12932;170928;34.76;014;03.42.32.817
12904;170930;34.76;015;03.42.32.817
12916;170934;34.76;016;03.42.32.817
12920;170932;34.76;017;03.42.32.828
12892;170932;34.76;018;03.42.32.828
12908;170939;34.76;019;03.42.32.828
12912;170934;34.76;020;03.42.32.828
12892;170926;34.76;021;03.42.32.828
12892;170931;34.76;022;03.42.32.828
12908;170922;34.76;023;03.42.32.828
12936;170928;34.76;024;03.42.32.828
12932;170940;34.76;025;03.42.32.948
12896;170922;34.76;026;03.42.32.948
12904;170936;34.76;027;03.42.32.948
12900;170924;34.76;028;03.42.32.948
12912;170925;34.76;029;03.42.32.948
12916;170926;34.76;030;03.42.32.948
12896;170932;34.76;031;03.42.32.948
12888;170925;34.76;032;03.42.32.959
12896;170936;34.76;033;03.42.32.959
12924;170929;34.76;034;03.42.32.959
12916;170937;34.76;035;03.42.32.959
12900;170930;34.76;036;03.42.32.959
12932;170932;34.76;037;03.42.32.959
12892;170934;34.76;038;03.42.32.959
12896;170929;34.76;039;03.42.32.959
12880;170925;34.76;040;03.42.32.959
12896;170937;34.76;041;03.42.32.959
12896;170942;34.76;042;03.42.32.959
12912;170938;34.76;043;03.42.32.959
12892;170936;34.76;044;03.42.32.970
12908;170934;34.76;045;03.42.32.970
12912;170948;34.76;046;03.42.32.970
12892;170936;34.76;047;03.42.32.970
12908;170945;34.76;048;03.42.32.970
12928;170940;34.76;049;03.42.32.970
12908;170946;34.80;050;03.42.33.047
12912;170948;34.80;051;03.42.33.047
12880;170946;34.80;052;03.42.33.047
12904;170949;34.80;053;03.42.33.047
12908;170949;34.80;054;03.42.33.058
12904;170956;34.80;055;03.42.33.058
12928;170948;34.80;056;03.42.33.058
12892;170944;34.80;057;03.42.33.058
12912;170948;34.80;058;03.42.33.080
12892;170949;34.80;059;03.42.33.080
12884;170950;34.80;060;03.42.33.080
12904;170949;34.80;061;03.42.33.091
12916;170952;34.80;062;03.42.33.091
12892;170956;34.80;063;03.42.33.091
12928;170962;34.80;064;03.42.33.091
12900;170954;34.80;065;03.42.33.091
12900;170958;34.80;066;03.42.33.091
12916;170954;34.80;067;03.42.33.091
12888;170959;34.80;068;03.42.33.091
12896;170961;34.80;069;03.42.33.091
12872;170955;34.80;070;03.42.33.091
12892;170966;34.80;071;03.42.33.091
12916;170966;34.80;072;03.42.33.091
12928;170970;34.80;073;03.42.33.091
12940;170970;34.80;074;03.42.33.091
12900;170966;34.80;075;03.42.33.169
12872;170974;34.80;076;03.42.33.180
12892;170974;34.80;077;03.42.33.180
12928;170980;34.80;078;03.42.33.180
12916;170982;34.80;079;03.42.33.180
12920;170973;34.80;080;03.42.33.180
12912;170984;34.80;081;03.42.33.180
12892;170973;34.80;082;03.42.33.180
12904;170974;34.80;083;03.42.33.180
12904;170978;34.80;084;03.42.33.180
12892;170989;34.80;085;03.42.33.180
12876;170983;34.80;086;03.42.33.180
12900;170990;34.80;087;03.42.33.180
12864;170983;34.80;088;03.42.33.180
12908;170979;34.80;089;03.42.33.191
12884;170988;34.80;090;03.42.33.191
12952;170986;34.80;091;03.42.33.191
12900;170988;34.80;092;03.42.33.191
12884;170993;34.80;093;03.42.33.191
12876;170992;34.80;094;03.42.33.191
12860;170997;34.80;095;03.42.33.191
12908;170995;34.80;096;03.42.33.191
12916;170989;34.80;097;03.42.33.191
12916;171000;34.80;098;03.42.33.191
12928;170992;34.80;099;03.42.33.191
12892;170983;34.76;100;03.42.33.311
12880;170998;34.76;101;03.42.33.311
12900;170983;34.76;102;03.42.33.311
12904;170970;34.76;103;03.42.33.311
12928;170972;34.76;104;03.42.33.311
12908;170971;34.76;105;03.42.33.311
12892;170959;34.76;106;03.42.33.311
12904;170971;34.76;107;03.42.33.311
12928;170959;34.76;108;03.42.33.322
12924;170954;34.76;109;03.42.33.322
12904;170947;34.76;110;03.42.33.322
12908;170952;34.76;111;03.42.33.322
12928;170940;34.76;112;03.42.33.322
12900;170939;34.76;113;03.42.33.322
12944;170930;34.76;114;03.42.33.322
12916;170933;34.76;115;03.42.33.322
12900;170926;34.76;116;03.42.33.322
12896;170930;34.76;117;03.42.33.322
12896;170924;34.76;118;03.42.33.322
12908;170922;34.76;119;03.42.33.333
12928;170916;34.76;120;03.42.33.333
12936;170912;34.76;121;03.42.33.333
12904;170909;34.76;122;03.42.33.333
12860;170917;34.76;123;03.42.33.333
12888;170914;34.76;124;03.42.33.333
12892;170911;34.76;125;03.42.33.441
12904;170912;34.76;126;03.42.33.441
12908;170896;34.76;127;03.42.33.441
12892;170895;34.76;128;03.42.33.441
12888;170906;34.76;129;03.42.33.441
12904;170902;34.76;130;03.42.33.453
12916;170904;34.76;131;03.42.33.453
12892;170906;34.76;132;03.42.33.453
12892;170908;34.76;133;03.42.33.464
12884;170904;34.76;134;03.42.33.464
12908;170900;34.76;135;03.42.33.464
12908;170902;34.76;136;03.42.33.464
12936;170896;34.76;137;03.42.33.464
12928;170896;34.76;138;03.42.33.464
12904;170895;34.76;139;03.42.33.475
12904;170888;34.76;140;03.42.33.475
12888;170893;34.76;141;03.42.33.475
12892;170901;34.76;142;03.42.33.486
12892;170903;34.76;143;03.42.33.486
12924;170898;34.76;144;03.42.33.486
12936;170890;34.76;145;03.42.33.486
12908;170895;34.76;146;03.42.33.486
12884;170896;34.76;147;03.42.33.497
12892;170901;34.76;148;03.42.33.497
12928;170900;34.76;149;03.42.33.497
12896;170895;34.76;150;03.42.33.574
12924;170895;34.76;151;03.42.33.574
12912;170904;34.76;152;03.42.33.574
12920;170904;34.76;153;03.42.33.585
12900;170898;34.76;154;03.42.33.585
12928;170904;34.76;155;03.42.33.585
12908;170895;34.76;156;03.42.33.585
12900;170899;34.76;157;03.42.33.585
12892;170897;34.76;158;03.42.33.585
12892;170893;34.76;159;03.42.33.596
12876;170903;34.76;160;03.42.33.596
12920;170901;34.76;161;03.42.33.596
12892;170890;34.76;162;03.42.33.596
12904;170890;34.76;163;03.42.33.596
12904;170890;34.76;164;03.42.33.596
12920;170890;34.76;165;03.42.33.596
12892;170893;34.76;166;03.42.33.596
12892;170897;34.76;167;03.42.33.596
12876;170877;34.76;168;03.42.33.596
12896;170891;34.76;169;03.42.33.596
12888;170885;34.76;170;03.42.33.596
12916;170892;34.76;171;03.42.33.596
12924;170890;34.76;172;03.42.33.596
12896;170893;34.76;173;03.42.33.607
12900;170885;34.76;174;03.42.33.607
12896;170883;34.76;175;03.42.33.694
12928;170889;34.76;176;03.42.33.694
12904;170890;34.76;177;03.42.33.694
12892;170896;34.76;178;03.42.33.694
12928;170893;34.76;179;03.42.33.694
12888;170898;34.76;180;03.42.33.694
12928;170896;34.76;181;03.42.33.694
12896;170900;34.76;182;03.42.33.694
12888;170905;34.76;183;03.42.33.727
12928;170896;34.76;184;03.42.33.727
12876;170902;34.76;185;03.42.33.727
12908;170898;34.76;186;03.42.33.727
12912;170900;34.76;187;03.42.33.727
12908;170896;34.76;188;03.42.33.727
12900;170905;34.76;189;03.42.33.727
12928;170894;34.76;190;03.42.33.727
12904;170903;34.76;191;03.42.33.727
12896;170904;34.76;192;03.42.33.727
12908;170909;34.76;193;03.42.33.727
12924;170910;34.76;194;03.42.33.738
12896;170907;34.76;195;03.42.33.738
12900;170903;34.76;196;03.42.33.738
12908;170906;34.76;197;03.42.33.738
12904;170917;34.76;198;03.42.33.738
12916;170906;34.76;199;03.42.33.738
12912;170913;34.76;200;03.42.33.804
12904;170913;34.76;201;03.42.33.804
12884;170919;34.76;202;03.42.33.804
12916;170911;34.76;203;03.42.33.804
12888;170912;34.76;204;03.42.33.804
12904;170910;34.76;205;03.42.33.804
12884;170912;34.76;206;03.42.33.804
12916;170918;34.76;207;03.42.33.804
12892;170917;34.76;208;03.42.33.806
12916;170926;34.76;209;03.42.33.806
12912;170919;34.76;210;03.42.33.807
12892;170930;34.76;211;03.42.33.818
12872;170929;34.76;212;03.42.33.818
12912;170932;34.76;213;03.42.33.818
12876;170927;34.76;214;03.42.33.818
12912;170938;34.76;215;03.42.33.818
12892;170940;34.76;216;03.42.33.818
12928;170940;34.76;217;03.42.33.818
12876;170938;34.76;218;03.42.33.818
12892;170938;34.76;219;03.42.33.818
12892;170939;34.76;220;03.42.33.818
12928;170948;34.76;221;03.42.33.818
12916;170938;34.76;222;03.42.33.818
12896;170947;34.76;223;03.42.33.829
12928;170946;34.76;224;03.42.33.829
12896;170943;34.76;225;03.42.33.938
12896;170943;34.76;226;03.42.33.938
12892;170942;34.76;227;03.42.33.938
12908;170943;34.76;228;03.42.33.938
12928;170950;34.76;229;03.42.33.938
12876;170952;34.76;230;03.42.33.938
12900;170950;34.76;231;03.42.33.938
