gsr; bvp; skt; skt2; Cont; time
12892;001226;34.80;275;03.38.12.270
12892;057533;34.80;276;03.38.12.281
12916;073950;34.80;277;03.38.12.281
12896;090311;34.80;278;03.38.12.281
12904;106717;34.80;279;03.38.12.281
12904;123107;34.80;280;03.38.12.281
12928;139518;34.80;281;03.38.12.281
12912;155852;34.80;282;03.38.12.281
12908;171456;34.80;283;03.38.12.281
12912;171187;34.80;284;03.38.12.292
12900;171173;34.80;285;03.38.12.292
12884;171169;34.80;286;03.38.12.292
12900;171158;34.80;287;03.38.12.292
12896;171158;34.80;288;03.38.12.292
12908;171149;34.80;289;03.38.12.292
12928;171142;34.80;290;03.38.12.292
12900;171134;34.80;291;03.38.12.292
12892;171134;34.80;292;03.38.12.292
12916;171135;34.80;293;03.38.12.292
12892;171121;34.80;294;03.38.12.292
12916;171116;34.80;295;03.38.12.292
12888;171118;34.80;296;03.38.12.292
12888;171111;34.80;297;03.38.12.303
12920;171115;34.80;298;03.38.12.303
12928;171102;34.80;299;03.38.12.303
12916;171100;34.80;300;03.38.12.413
12892;171095;34.80;301;03.38.12.413
12900;171091;34.80;302;03.38.12.413
12892;171093;34.80;303;03.38.12.413
12932;171094;34.80;304;03.38.12.413
12908;171082;34.80;305;03.38.12.413
12904;171083;34.80;306;03.38.12.413
12904;171084;34.80;307;03.38.12.413
12908;171081;34.80;308;03.38.12.435
12892;171077;34.80;309;03.38.12.435
12928;171076;34.80;310;03.38.12.435
12900;171080;34.80;311;03.38.12.435
12908;171081;34.80;312;03.38.12.435
12904;171074;34.80;313;03.38.12.435
12916;171067;34.80;314;03.38.12.435
12888;171071;34.80;315;03.38.12.435
12888;171069;34.80;316;03.38.12.435
12892;171066;34.80;317;03.38.12.435
12900;171065;34.80;318;03.38.12.435
12932;171065;34.80;319;03.38.12.435
12892;171061;34.80;320;03.38.12.446
12904;171065;34.80;321;03.38.12.446
12900;171059;34.80;322;03.38.12.446
12904;171053;34.80;323;03.38.12.446
12928;171064;34.80;324;03.38.12.446
12908;171060;34.80;325;03.38.12.523
12896;171058;34.80;326;03.38.12.523
12904;171056;34.80;327;03.38.12.523
12928;171055;34.80;328;03.38.12.523
12892;171050;34.80;329;03.38.12.523
12912;171051;34.80;330;03.38.12.523
12892;171042;34.80;331;03.38.12.523
12928;171046;34.80;332;03.38.12.523
12900;171047;34.80;333;03.38.12.534
12896;171046;34.80;334;03.38.12.534
12912;171048;34.80;335;03.38.12.534
12920;171052;34.80;336;03.38.12.534
12888;171047;34.80;337;03.38.12.534
12928;171048;34.80;338;03.38.12.534
12892;171047;34.80;339;03.38.12.534
12904;171041;34.80;340;03.38.12.534
12888;171041;34.80;341;03.38.12.534
12896;171049;34.80;342;03.38.12.534
12912;171054;34.80;343;03.38.12.534
12884;171045;34.80;344;03.38.12.534
12928;171041;34.80;345;03.38.12.534
12896;171045;34.80;346;03.38.12.545
12912;171053;34.80;347;03.38.12.545
12908;171041;34.80;348;03.38.12.545
12900;171048;34.80;349;03.38.12.545
12900;171040;34.80;350;03.38.12.653
12920;171049;34.80;351;03.38.12.653
12908;171039;34.80;352;03.38.12.664
12916;171044;34.80;353;03.38.12.664
12924;171048;34.80;354;03.38.12.664
12928;171048;34.80;355;03.38.12.664
12912;171051;34.80;356;03.38.12.664
12912;171046;34.80;357;03.38.12.664
12880;171043;34.80;358;03.38.12.664
12912;171039;34.80;359;03.38.12.664
12904;171045;34.80;360;03.38.12.664
12904;171043;34.80;361;03.38.12.664
12892;171056;34.80;362;03.38.12.664
12900;171046;34.80;363;03.38.12.664
12876;171043;34.80;364;03.38.12.664
12892;171037;34.80;365;03.38.12.664
12908;171037;34.80;366;03.38.12.675
12928;171048;34.80;367;03.38.12.675
12908;171040;34.80;368;03.38.12.675
12904;171051;34.80;369;03.38.12.675
12884;171049;34.80;370;03.38.12.675
12908;171040;34.80;371;03.38.12.675
12892;171046;34.80;372;03.38.12.675
12908;171044;34.80;373;03.38.12.675
12916;171050;34.80;374;03.38.12.675
12860;171048;34.80;375;03.38.12.773
12900;171038;34.80;376;03.38.12.773
12912;171041;34.80;377;03.38.12.773
12896;171047;34.80;378;03.38.12.773
12932;171047;34.80;379;03.38.12.773
12884;171054;34.80;380;03.38.12.773
12928;171054;34.80;381;03.38.12.773
12908;171051;34.80;382;03.38.12.773
12912;171049;34.80;383;03.38.12.784
12884;171044;34.80;384;03.38.12.784
12892;171048;34.80;385;03.38.12.784
12884;171052;34.80;386;03.38.12.784
12908;171032;34.80;387;03.38.12.784
12900;171038;34.80;388;03.38.12.784
12876;171038;34.80;389;03.38.12.784
12900;171032;34.80;390;03.38.12.784
12904;171028;34.80;391;03.38.12.784
12912;171021;34.80;392;03.38.12.784
12912;171019;34.80;393;03.38.12.784
12896;171015;34.80;394;03.38.12.796
12916;171008;34.80;395;03.38.12.796
12892;171011;34.80;396;03.38.12.796
12892;171002;34.80;397;03.38.12.796
12888;171003;34.80;398;03.38.12.796
12908;170989;34.80;399;03.38.12.796
12892;170988;34.80;400;03.38.12.894
12908;170984;34.80;401;03.38.12.894
12908;170985;34.80;402;03.38.12.894
12936;170978;34.80;403;03.38.12.894
12872;170985;34.80;404;03.38.12.894
12912;170978;34.80;405;03.38.12.894
12876;170969;34.80;406;03.38.12.905
12888;170964;34.80;407;03.38.12.905
12888;170961;34.80;408;03.38.12.905
12928;170960;34.80;409;03.38.12.905
12904;170968;34.80;410;03.38.12.905
12876;170968;34.80;411;03.38.12.905
12860;170965;34.80;412;03.38.12.905
12912;170957;34.80;413;03.38.12.905
12924;170955;34.80;414;03.38.12.905
12888;170945;34.80;415;03.38.12.905
12888;170952;34.80;416;03.38.12.905
12896;170946;34.80;417;03.38.12.905
12912;170952;34.80;418;03.38.12.905
12892;170949;34.80;419;03.38.12.905
12896;170956;34.80;420;03.38.12.905
12932;170953;34.80;421;03.38.12.906
12884;170949;34.80;422;03.38.12.917
12880;170956;34.80;423;03.38.12.917
12928;170943;34.80;424;03.38.12.917
12892;170948;34.84;425;03.38.13.016
12904;170951;34.84;426;03.38.13.016
12888;170954;34.84;427;03.38.13.016
12892;170954;34.84;428;03.38.13.016
12892;170953;34.84;429;03.38.13.016
12888;170952;34.84;430;03.38.13.016
12892;170948;34.84;431;03.38.13.027
12904;170955;34.84;432;03.38.13.027
12876;170953;34.84;433;03.38.13.027
12936;170954;34.84;434;03.38.13.027
12904;170951;34.84;435;03.38.13.027
12904;170952;34.84;436;03.38.13.027
12912;170960;34.84;437;03.38.13.027
12912;170951;34.84;438;03.38.13.027
12912;170956;34.84;439;03.38.13.027
12896;170958;34.84;440;03.38.13.027
12916;170958;34.84;441;03.38.13.027
12868;170961;34.84;442;03.38.13.027
12900;170963;34.84;443;03.38.13.027
12888;170956;34.84;444;03.38.13.038
12932;170955;34.84;445;03.38.13.038
12908;170956;34.84;446;03.38.13.038
12912;170957;34.84;447;03.38.13.038
12892;170955;34.84;448;03.38.13.038
12904;170956;34.84;449;03.38.13.038
12916;170959;34.84;450;03.38.13.148
12876;170961;34.84;451;03.38.13.148
12924;170952;34.84;452;03.38.13.159
12928;170961;34.84;453;03.38.13.159
12888;170952;34.84;454;03.38.13.159
12932;170968;34.84;455;03.38.13.159
12912;170956;34.84;456;03.38.13.159
12888;170961;34.84;457;03.38.13.159
12904;170962;34.84;458;03.38.13.159
12920;170963;34.84;459;03.38.13.159
12920;170963;34.84;460;03.38.13.159
12904;170965;34.84;461;03.38.13.159
12912;170964;34.84;462;03.38.13.159
12924;170969;34.84;463;03.38.13.159
12900;170976;34.84;464;03.38.13.159
12896;170976;34.84;465;03.38.13.170
12924;170969;34.84;466;03.38.13.170
12872;170976;34.84;467;03.38.13.170
12888;170969;34.84;468;03.38.13.180
12892;170982;34.84;469;03.38.13.180
12904;170980;34.84;470;03.38.13.180
12928;170971;34.84;471;03.38.13.180
12904;170987;34.84;472;03.38.13.180
12900;170982;34.84;473;03.38.13.180
12928;170991;34.84;474;03.38.13.180
12892;170985;34.84;475;03.38.13.279
12912;170983;34.84;476;03.38.13.279
12928;170987;34.84;477;03.38.13.279
12900;170981;34.84;478;03.38.13.279
12904;170986;34.84;479;03.38.13.279
12884;170987;34.84;480;03.38.13.279
12896;170992;34.84;481;03.38.13.279
12924;170997;34.84;482;03.38.13.279
12892;170989;34.84;483;03.38.13.290
12904;170998;34.84;484;03.38.13.290
12960;171000;34.84;485;03.38.13.290
12900;170991;34.84;486;03.38.13.290
12912;170992;34.84;487;03.38.13.290
12912;171000;34.84;488;03.38.13.290
12884;171003;34.84;489;03.38.13.290
12912;171006;34.84;490;03.38.13.290
12900;171003;34.84;491;03.38.13.290
12880;171006;34.84;492;03.38.13.290
12928;171008;34.84;493;03.38.13.290
12912;171007;34.84;494;03.38.13.290
12932;171014;34.84;495;03.38.13.290
12908;171013;34.84;496;03.38.13.301
12916;171021;34.84;497;03.38.13.301
12912;171012;34.84;498;03.38.13.301
12928;171013;34.84;499;03.38.13.301
12904;171022;34.84;500;03.38.13.400
12888;171014;34.84;501;03.38.13.400
12900;171013;34.84;502;03.38.13.400
12924;171022;34.84;503;03.38.13.400
12904;171024;34.84;504;03.38.13.400
12920;171026;34.84;505;03.38.13.400
12904;171022;34.84;506;03.38.13.400
12904;171031;34.84;507;03.38.13.400
12900;171031;34.84;508;03.38.13.422
12912;171030;34.84;509;03.38.13.422
12928;171034;34.84;510;03.38.13.422
12904;171032;34.84;511;03.38.13.422
12876;171032;34.84;512;03.38.13.422
12912;171027;34.84;513;03.38.13.422
12920;171024;34.84;514;03.38.13.422
12888;171028;34.84;515;03.38.13.433
12908;171024;34.84;516;03.38.13.433
12912;171023;34.84;517;03.38.13.433
12904;171023;34.84;518;03.38.13.433
12884;171019;34.84;519;03.38.13.433
12920;171016;34.84;520;03.38.13.433
12896;171005;34.84;521;03.38.13.433
12904;171006;34.84;522;03.38.13.433
12888;170996;34.84;523;03.38.13.433
12928;171010;34.84;524;03.38.13.444
12904;171002;34.84;525;03.38.13.521
12896;170993;34.84;526;03.38.13.521
12896;170989;34.84;527;03.38.13.521
12928;170997;34.84;528;03.38.13.521
12888;170986;34.84;529;03.38.13.532
12912;170988;34.84;530;03.38.13.532
12912;170977;34.84;531;03.38.13.532
12876;170977;34.84;532;03.38.13.532
12892;170978;34.84;533;03.38.13.532
12904;170977;34.84;534;03.38.13.532
12900;170971;34.84;535;03.38.13.532
12920;170963;34.84;536;03.38.13.532
12900;170962;34.84;537;03.38.13.532
12912;170965;34.84;538;03.38.13.532
12904;170963;34.84;539;03.38.13.532
12884;170955;34.84;540;03.38.13.532
12900;170959;34.84;541;03.38.13.543
12884;170954;34.84;542;03.38.13.543
12888;170958;34.84;543;03.38.13.543
12916;170952;34.84;544;03.38.13.543
12936;170953;34.84;545;03.38.13.543
12912;170954;34.84;546;03.38.13.543
12908;170951;34.84;547;03.38.13.543
12896;170954;34.84;548;03.38.13.543
12928;170952;34.84;549;03.38.13.543
12896;170951;34.84;550;03.38.13.663
12860;170953;34.84;551;03.38.13.663
12892;170960;34.84;552;03.38.13.663
12916;170954;34.84;553;03.38.13.663
12892;170953;34.84;554;03.38.13.663
12928;170954;34.84;555;03.38.13.663
12928;170949;34.84;556;03.38.13.663
12904;170957;34.84;557;03.38.13.663
12900;170956;34.84;558;03.38.13.663
12900;170960;34.84;559;03.38.13.663
12916;170966;34.84;560;03.38.13.663
12928;170962;34.84;561;03.38.13.663
12888;170962;34.84;562;03.38.13.674
12892;170965;34.84;563;03.38.13.674
12928;170974;34.84;564;03.38.13.674
12912;170971;34.84;565;03.38.13.674
12900;170974;34.84;566;03.38.13.674
12924;170971;34.84;567;03.38.13.674
12884;170970;34.84;568;03.38.13.674
12908;170974;34.84;569;03.38.13.674
12896;170975;34.84;570;03.38.13.674
12932;170974;34.84;571;03.38.13.674
12924;170979;34.84;572;03.38.13.674
12892;170981;34.84;573;03.38.13.674
12928;170979;34.84;574;03.38.13.674
12912;170983;34.80;575;03.38.13.795
12888;170977;34.80;576;03.38.13.795
12912;170980;34.80;577;03.38.13.795
12888;170983;34.80;578;03.38.13.795
12916;170989;34.80;579;03.38.13.795
12916;170992;34.80;580;03.38.13.795
12892;170994;34.80;581;03.38.13.795
12912;170983;34.80;582;03.38.13.795
12928;170981;34.80;583;03.38.13.806
12920;170983;34.80;584;03.38.13.806
12908;170989;34.80;585;03.38.13.806
12928;170984;34.80;586;03.38.13.806
12904;170989;34.80;587;03.38.13.806
12916;170986;34.80;588;03.38.13.806
12908;170991;34.80;589;03.38.13.806
12932;170985;34.80;590;03.38.13.806
12928;170983;34.80;591;03.38.13.817
12904;170992;34.80;592;03.38.13.817
12912;170989;34.80;593;03.38.13.817
12908;170985;34.80;594;03.38.13.817
12924;170987;34.80;595;03.38.13.817
12920;170994;34.80;596;03.38.13.817
12908;170990;34.80;597;03.38.13.817
12892;170980;34.80;598;03.38.13.817
12904;170994;34.80;599;03.38.13.817
12908;170989;34.80;600;03.38.13.893
12928;170998;34.80;601;03.38.13.893
12912;170998;34.80;602;03.38.13.893
12900;170996;34.80;603;03.38.13.893
12912;170998;34.80;604;03.38.13.893
12900;170996;34.80;605;03.38.13.893
12912;170992;34.80;606;03.38.13.905
12904;170994;34.80;607;03.38.13.905
12908;171000;34.80;608;03.38.13.905
12908;171001;34.80;609;03.38.13.905
12892;171003;34.80;610;03.38.13.905
12916;171010;34.80;611;03.38.13.905
12884;171012;34.80;612;03.38.13.905
12896;171007;34.80;613;03.38.13.905
12932;171011;34.80;614;03.38.13.905
12900;171013;34.80;615;03.38.13.905
12876;171017;34.80;616;03.38.13.916
12908;171023;34.80;617;03.38.13.916
12888;171016;34.80;618;03.38.13.916
12892;171019;34.80;619;03.38.13.916
12924;171017;34.80;620;03.38.13.916
12920;171025;34.80;621;03.38.13.916
12860;171019;34.80;622;03.38.13.916
12892;171032;34.80;623;03.38.13.916
12908;171037;34.80;624;03.38.13.927
12916;171032;34.84;625;03.38.14.015
12916;171037;34.84;626;03.38.14.015
12908;171034;34.84;627;03.38.14.015
12932;171036;34.84;628;03.38.14.026
12912;171038;34.84;629;03.38.14.026
12916;171047;34.84;630;03.38.14.026
12892;171046;34.84;631;03.38.14.026
12880;171054;34.84;632;03.38.14.026
12920;171053;34.84;633;03.38.14.026
12912;171057;34.84;634;03.38.14.026
12912;171057;34.84;635;03.38.14.026
12880;171062;34.84;636;03.38.14.026
12916;171059;34.84;637;03.38.14.026
12928;171066;34.84;638;03.38.14.026
12908;171076;34.84;639;03.38.14.026
12892;171074;34.84;640;03.38.14.026
12920;171076;34.84;641;03.38.14.037
12904;171073;34.84;642;03.38.14.037
12896;171081;34.84;643;03.38.14.037
12916;171081;34.84;644;03.38.14.037
12912;171082;34.84;645;03.38.14.037
12928;171085;34.84;646;03.38.14.037
12896;171081;34.84;647;03.38.14.037
12904;171091;34.84;648;03.38.14.037
12920;171099;34.84;649;03.38.14.037
12900;171091;34.84;650;03.38.14.157
12908;171095;34.84;651;03.38.14.157
12884;171094;34.84;652;03.38.14.157
12900;171105;34.84;653;03.38.14.157
12904;171102;34.84;654;03.38.14.157
12876;171108;34.84;655;03.38.14.157
12904;171103;34.84;656;03.38.14.157
12900;171117;34.84;657;03.38.14.157
12896;171113;34.84;658;03.38.14.157
12912;171113;34.84;659;03.38.14.157
12896;171118;34.84;660;03.38.14.157
12916;171113;34.84;661;03.38.14.168
12892;171121;34.84;662;03.38.14.168
12904;171122;34.84;663;03.38.14.168
12888;171124;34.84;664;03.38.14.168
12908;171124;34.84;665;03.38.14.168
12904;171126;34.84;666;03.38.14.168
12908;171123;34.84;667;03.38.14.168
12908;171121;34.84;668;03.38.14.168
12944;171123;34.84;669;03.38.14.168
12896;171114;34.84;670;03.38.14.168
12904;171125;34.84;671;03.38.14.168
12904;171113;34.84;672;03.38.14.168
12900;171109;34.84;673;03.38.14.168
12912;171107;34.84;674;03.38.14.179
12896;171104;34.80;675;03.38.14.289
12904;171096;34.80;676;03.38.14.289
12896;171092;34.80;677;03.38.14.289
12884;171085;34.80;678;03.38.14.289
12904;171085;34.80;679;03.38.14.289
12924;171068;34.80;680;03.38.14.289
12920;171076;34.80;681;03.38.14.289
12904;171075;34.80;682;03.38.14.289
12912;171063;34.80;683;03.38.14.300
12916;171065;34.80;684;03.38.14.300
12896;171054;34.80;685;03.38.14.300
12908;171047;34.80;686;03.38.14.300
12932;171053;34.80;687;03.38.14.300
12936;171047;34.80;688;03.38.14.300
12932;171049;34.80;689;03.38.14.300
12888;171043;34.80;690;03.38.14.300
12912;171043;34.80;691;03.38.14.300
12904;171043;34.80;692;03.38.14.300
12896;171038;34.80;693;03.38.14.300
12924;171041;34.80;694;03.38.14.300
12900;171037;34.80;695;03.38.14.300
12892;171039;34.80;696;03.38.14.311
12932;171039;34.80;697;03.38.14.311
12860;171038;34.80;698;03.38.14.311
12900;171039;34.80;699;03.38.14.311
12868;171039;34.80;700;03.38.14.421
12900;171037;34.80;701;03.38.14.421
12928;171039;34.80;702;03.38.14.421
12908;171042;34.80;703;03.38.14.421
12896;171036;34.80;704;03.38.14.421
12904;171040;34.80;705;03.38.14.432
12896;171031;34.80;706;03.38.14.432
12908;171038;34.80;707;03.38.14.432
12900;171040;34.80;708;03.38.14.432
12924;171043;34.80;709;03.38.14.432
12908;171038;34.80;710;03.38.14.432
12892;171048;34.80;711;03.38.14.432
12928;171044;34.80;712;03.38.14.432
12928;171052;34.80;713;03.38.14.432
12896;171049;34.80;714;03.38.14.432
12900;171051;34.80;715;03.38.14.432
12876;171050;34.80;716;03.38.14.432
12892;171055;34.80;717;03.38.14.432
12896;171051;34.80;718;03.38.14.443
12884;171048;34.80;719;03.38.14.443
12904;171053;34.80;720;03.38.14.443
12900;171050;34.80;721;03.38.14.443
12904;171055;34.80;722;03.38.14.443
12884;171055;34.80;723;03.38.14.443
12928;171055;34.80;724;03.38.14.443
12884;171059;34.80;725;03.38.14.520
12904;171061;34.80;726;03.38.14.520
12888;171066;34.80;727;03.38.14.531
12924;171057;34.80;728;03.38.14.531
12920;171061;34.80;729;03.38.14.531
12916;171064;34.80;730;03.38.14.531
12924;171061;34.80;731;03.38.14.531
12900;171075;34.80;732;03.38.14.531
12916;171071;34.80;733;03.38.14.531
12912;171068;34.80;734;03.38.14.531
12892;171063;34.80;735;03.38.14.531
12912;171065;34.80;736;03.38.14.542
12892;171067;34.80;737;03.38.14.542
12876;171057;34.80;738;03.38.14.542
12896;171067;34.80;739;03.38.14.542
12892;171068;34.80;740;03.38.14.542
12904;171067;34.80;741;03.38.14.542
12880;171067;34.80;742;03.38.14.553
12920;171066;34.80;743;03.38.14.553
12892;171070;34.80;744;03.38.14.564
12908;171075;34.80;745;03.38.14.564
12916;171066;34.80;746;03.38.14.564
12912;171058;34.80;747;03.38.14.564
12932;171068;34.80;748;03.38.14.564
12936;171070;34.80;749;03.38.14.564
12908;171067;34.80;750;03.38.14.652
12904;171071;34.80;751;03.38.14.652
12884;171078;34.80;752;03.38.14.652
12884;171077;34.80;753;03.38.14.652
12892;171078;34.80;754;03.38.14.652
12900;171076;34.80;755;03.38.14.652
12916;171081;34.80;756;03.38.14.652
12904;171081;34.80;757;03.38.14.652
12896;171077;34.80;758;03.38.14.663
12928;171081;34.80;759;03.38.14.663
12904;171080;34.80;760;03.38.14.663
12928;171084;34.80;761;03.38.14.663
12920;171088;34.80;762;03.38.14.663
12896;171092;34.80;763;03.38.14.663
12892;171088;34.80;764;03.38.14.663
12924;171088;34.80;765;03.38.14.663
12904;171099;34.80;766;03.38.14.663
12896;171095;34.80;767;03.38.14.674
12916;171092;34.80;768;03.38.14.674
12904;171095;34.80;769;03.38.14.674
12912;171091;34.80;770;03.38.14.674
12896;171099;34.80;771;03.38.14.674
12888;171106;34.80;772;03.38.14.674
12892;171097;34.80;773;03.38.14.674
12916;171102;34.80;774;03.38.14.674
12916;171104;34.84;775;03.38.14.784
12888;171099;34.84;776;03.38.14.784
12900;171104;34.84;777;03.38.14.784
12948;171099;34.84;778;03.38.14.784
12916;171111;34.84;779;03.38.14.784
12904;171118;34.84;780;03.38.14.784
12912;171116;34.84;781;03.38.14.784
12908;171102;34.84;782;03.38.14.784
12888;171111;34.84;783;03.38.14.795
12912;171114;34.84;784;03.38.14.795
12900;171110;34.84;785;03.38.14.795
12908;171118;34.84;786;03.38.14.795
12892;171116;34.84;787;03.38.14.795
12928;171114;34.84;788;03.38.14.795
12904;171115;34.84;789;03.38.14.795
12912;171115;34.84;790;03.38.14.795
12920;171126;34.84;791;03.38.14.805
12904;171124;34.84;792;03.38.14.805
12920;171120;34.84;793;03.38.14.805
12944;171122;34.84;794;03.38.14.805
12912;171132;34.84;795;03.38.14.805
12912;171130;34.84;796;03.38.14.805
12900;171127;34.84;797;03.38.14.805
12912;171124;34.84;798;03.38.14.805
12940;171136;34.84;799;03.38.14.805
12924;171122;34.84;800;03.38.14.894
12884;171127;34.84;801;03.38.14.894
12896;171129;34.84;802;03.38.14.894
12908;171123;34.84;803;03.38.14.894
12904;171130;34.84;804;03.38.14.894
12932;171132;34.84;805;03.38.14.905
12904;171137;34.84;806;03.38.14.905
12912;171136;34.84;807;03.38.14.905
12908;171141;34.84;808;03.38.14.916
12892;171145;34.84;809;03.38.14.916
12912;171152;34.84;810;03.38.14.916
12920;171141;34.84;811;03.38.14.916
12916;171144;34.84;812;03.38.14.916
12892;171135;34.84;813;03.38.14.927
12912;171150;34.84;814;03.38.14.927
12900;171145;34.84;815;03.38.14.927
12900;171152;34.84;816;03.38.14.927
12884;171149;34.84;817;03.38.14.927
12876;171142;34.84;818;03.38.14.927
12928;171148;34.84;819;03.38.14.927
12904;171148;34.84;820;03.38.14.927
12892;171143;34.84;821;03.38.14.927
12908;171139;34.84;822;03.38.14.927
12944;171142;34.84;823;03.38.14.927
12892;171129;34.84;824;03.38.14.927
12876;171123;34.84;825;03.38.15.015
12912;171124;34.84;826;03.38.15.026
12900;171116;34.84;827;03.38.15.026
12892;171117;34.84;828;03.38.15.026
12904;171117;34.84;829;03.38.15.026
12916;171111;34.84;830;03.38.15.026
12908;171104;34.84;831;03.38.15.026
12916;171097;34.84;832;03.38.15.026
12912;171092;34.84;833;03.38.15.026
12920;171094;34.84;834;03.38.15.026
12928;171091;34.84;835;03.38.15.026
12896;171092;34.84;836;03.38.15.026
12920;171079;34.84;837;03.38.15.026
12928;171093;34.84;838;03.38.15.026
12920;171087;34.84;839;03.38.15.026
12904;171076;34.84;840;03.38.15.037
12908;171073;34.84;841;03.38.15.037
12916;171069;34.84;842;03.38.15.037
12888;171075;34.84;843;03.38.15.037
12892;171074;34.84;844;03.38.15.037
12892;171064;34.84;845;03.38.15.037
12892;171061;34.84;846;03.38.15.037
12936;171066;34.84;847;03.38.15.037
12908;171068;34.84;848;03.38.15.037
12924;171047;34.84;849;03.38.15.037
12900;171061;34.84;850;03.38.15.158
12908;171043;34.84;851;03.38.15.158
12900;171057;34.84;852;03.38.15.158
12916;171049;34.84;853;03.38.15.158
12892;171051;34.84;854;03.38.15.158
12900;171056;34.84;855;03.38.15.158
12920;171050;34.84;856;03.38.15.158
12904;171048;34.84;857;03.38.15.158
12916;171051;34.84;858;03.38.15.158
12932;171048;34.84;859;03.38.15.158
12928;171048;34.84;860;03.38.15.158
12904;171045;34.84;861;03.38.15.169
12920;171050;34.84;862;03.38.15.169
12904;171057;34.84;863;03.38.15.169
12932;171061;34.84;864;03.38.15.169
12912;171055;34.84;865;03.38.15.169
12928;171053;34.84;866;03.38.15.169
12912;171051;34.84;867;03.38.15.190
12928;171055;34.84;868;03.38.15.190
12888;171052;34.84;869;03.38.15.190
12928;171054;34.84;870;03.38.15.190
12904;171051;34.84;871;03.38.15.190
12928;171062;34.84;872;03.38.15.190
12916;171062;34.84;873;03.38.15.190
12916;171046;34.84;874;03.38.15.190
12884;171060;34.80;875;03.38.15.278
12900;171057;34.80;876;03.38.15.278
12896;171053;34.80;877;03.38.15.278
12900;171059;34.80;878;03.38.15.278
12896;171057;34.80;879;03.38.15.278
12924;171049;34.80;880;03.38.15.278
12888;171050;34.80;881;03.38.15.278
12908;171059;34.80;882;03.38.15.289
12896;171061;34.80;883;03.38.15.289
12912;171066;34.80;884;03.38.15.289
12900;171063;34.80;885;03.38.15.289
12872;171062;34.80;886;03.38.15.289
12908;171052;34.80;887;03.38.15.289
12916;171053;34.80;888;03.38.15.289
12892;171060;34.80;889;03.38.15.289
12920;171052;34.80;890;03.38.15.289
12916;171057;34.80;891;03.38.15.289
12900;171056;34.80;892;03.38.15.289
12892;171054;34.80;893;03.38.15.289
12920;171055;34.80;894;03.38.15.289
12900;171050;34.80;895;03.38.15.300
12900;171056;34.80;896;03.38.15.300
12884;171057;34.80;897;03.38.15.300
12896;171059;34.80;898;03.38.15.300
12908;171058;34.80;899;03.38.15.300
12904;171065;34.80;900;03.38.15.410
12924;171062;34.80;901;03.38.15.410
12892;171060;34.80;902;03.38.15.421
12928;171062;34.80;903;03.38.15.421
12912;171069;34.80;904;03.38.15.421
12876;171065;34.80;905;03.38.15.421
12912;171077;34.80;906;03.38.15.421
12916;171077;34.80;907;03.38.15.421
12904;171076;34.80;908;03.38.15.421
12900;171081;34.80;909;03.38.15.421
12916;171061;34.80;910;03.38.15.421
12904;171071;34.80;911;03.38.15.421
12920;171077;34.80;912;03.38.15.421
12892;171078;34.80;913;03.38.15.421
12896;171087;34.80;914;03.38.15.421
12908;171088;34.80;915;03.38.15.421
12912;171092;34.80;916;03.38.15.432
12924;171088;34.80;917;03.38.15.432
12904;171094;34.80;918;03.38.15.432
12904;171100;34.80;919;03.38.15.432
12928;171093;34.80;920;03.38.15.432
12912;171092;34.80;921;03.38.15.432
12908;171100;34.80;922;03.38.15.432
12904;171102;34.80;923;03.38.15.432
12912;171100;34.80;924;03.38.15.432
12916;171098;34.80;925;03.38.15.530
12900;171101;34.80;926;03.38.15.530
12908;171098;34.80;927;03.38.15.530
12920;171101;34.80;928;03.38.15.530
12892;171096;34.80;929;03.38.15.530
12916;171094;34.80;930;03.38.15.530
12940;171106;34.80;931;03.38.15.530
12884;171118;34.80;932;03.38.15.530
12920;171111;34.80;933;03.38.15.552
12920;171115;34.80;934;03.38.15.552
12916;171116;34.80;935;03.38.15.552
12892;171114;34.80;936;03.38.15.552
12908;171115;34.80;937;03.38.15.552
12920;171116;34.80;938;03.38.15.552
12928;171125;34.80;939;03.38.15.552
12880;171127;34.80;940;03.38.15.552
12916;171123;34.80;941;03.38.15.552
12928;171118;34.80;942;03.38.15.552
12904;171122;34.80;943;03.38.15.552
12904;171126;34.80;944;03.38.15.552
12936;171128;34.80;945;03.38.15.563
12892;171122;34.80;946;03.38.15.563
12916;171132;34.80;947;03.38.15.563
12912;171134;34.80;948;03.38.15.563
12948;171138;34.80;949;03.38.15.563
12888;171123;34.80;950;03.38.15.651
12920;171140;34.80;951;03.38.15.651
12904;171128;34.80;952;03.38.15.651
12912;171130;34.80;953;03.38.15.651
12928;171137;34.80;954;03.38.15.651
12932;171133;34.80;955;03.38.15.651
12928;171143;34.80;956;03.38.15.651
12936;171141;34.80;957;03.38.15.651
12904;171142;34.80;958;03.38.15.651
12944;171148;34.80;959;03.38.15.662
12928;171144;34.80;960;03.38.15.662
12916;171142;34.80;961;03.38.15.662
12928;171152;34.80;962;03.38.15.662
12892;171142;34.80;963;03.38.15.662
12912;171148;34.80;964;03.38.15.662
12932;171157;34.80;965;03.38.15.662
12888;171147;34.80;966;03.38.15.662
12884;171161;34.80;967;03.38.15.662
12920;171158;34.80;968;03.38.15.662
12928;171156;34.80;969;03.38.15.662
12916;171157;34.80;970;03.38.15.662
12928;171166;34.80;971;03.38.15.662
12912;171156;34.80;972;03.38.15.673
12908;171157;34.80;973;03.38.15.673
12928;171168;34.80;974;03.38.15.673
12912;171161;34.84;975;03.38.15.772
12908;171165;34.84;976;03.38.15.772
12912;171172;34.84;977;03.38.15.772
12884;171156;34.84;978;03.38.15.772
12904;171160;34.84;979;03.38.15.772
12920;171157;34.84;980;03.38.15.783
12888;171146;34.84;981;03.38.15.783
12924;171152;34.84;982;03.38.15.783
12916;171147;34.84;983;03.38.15.783
12916;171144;34.84;984;03.38.15.783
12916;171137;34.84;985;03.38.15.783
12876;171140;34.84;986;03.38.15.783
12928;171141;34.84;987;03.38.15.783
12936;171124;34.84;988;03.38.15.783
12916;171131;34.84;989;03.38.15.794
12928;171121;34.84;990;03.38.15.794
12904;171113;34.84;991;03.38.15.794
12912;171114;34.84;992;03.38.15.794
12916;171095;34.84;993;03.38.15.794
12920;171106;34.84;994;03.38.15.794
12920;171103;34.84;995;03.38.15.794
12888;171094;34.84;996;03.38.15.794
12892;171089;34.84;997;03.38.15.794
12908;171096;34.84;998;03.38.15.794
12904;171083;34.84;999;03.38.15.794
12904;171085;34.84;000;03.38.15.903
12916;171080;34.84;001;03.38.15.903
12908;171081;34.84;002;03.38.15.914
12908;171074;34.84;003;03.38.15.914
12916;171072;34.84;004;03.38.15.914
12936;171077;34.84;005;03.38.15.914
12892;171077;34.84;006;03.38.15.914
12932;171070;34.84;007;03.38.15.914
12900;171083;34.84;008;03.38.15.914
12932;171075;34.84;009;03.38.15.925
12904;171073;34.84;010;03.38.15.925
12892;171067;34.84;011;03.38.15.925
12892;171069;34.84;012;03.38.15.925
12900;171076;34.84;013;03.38.15.925
12920;171067;34.84;014;03.38.15.925
12900;171069;34.84;015;03.38.15.925
12916;171063;34.84;016;03.38.15.925
12912;171064;34.84;017;03.38.15.925
12904;171065;34.84;018;03.38.15.925
12896;171064;34.84;019;03.38.15.925
12924;171065;34.84;020;03.38.15.925
12896;171069;34.84;021;03.38.15.925
12892;171059;34.84;022;03.38.15.925
12892;171069;34.84;023;03.38.15.936
12892;171071;34.84;024;03.38.15.936
12904;171067;34.84;025;03.38.16.048
12900;171051;34.84;026;03.38.16.048
12888;171068;34.84;027;03.38.16.048
12928;171077;34.84;028;03.38.16.048
12892;171077;34.84;029;03.38.16.048
12908;171075;34.84;030;03.38.16.048
12928;171074;34.84;031;03.38.16.048
12916;171076;34.84;032;03.38.16.048
12876;171076;34.84;033;03.38.16.048
12884;171078;34.84;034;03.38.16.048
12912;171078;34.84;035;03.38.16.048
12928;171079;34.84;036;03.38.16.048
12908;171071;34.84;037;03.38.16.048
12924;171075;34.84;038;03.38.16.059
12900;171071;34.84;039;03.38.16.059
12892;171071;34.84;040;03.38.16.059
12888;171075;34.84;041;03.38.16.059
12928;171071;34.84;042;03.38.16.059
12888;171078;34.84;043;03.38.16.059
12932;171076;34.84;044;03.38.16.059
12928;171073;34.84;045;03.38.16.059
12928;171075;34.84;046;03.38.16.059
12860;171074;34.84;047;03.38.16.059
12892;171061;34.84;048;03.38.16.059
12916;171068;34.84;049;03.38.16.059
12880;171069;34.84;050;03.38.16.147
12904;171072;34.84;051;03.38.16.147
12876;171064;34.84;052;03.38.16.147
12904;171067;34.84;053;03.38.16.147
12892;171068;34.84;054;03.38.16.147
12904;171066;34.84;055;03.38.16.147
12888;171065;34.84;056;03.38.16.147
12924;171067;34.84;057;03.38.16.147
12896;171072;34.84;058;03.38.16.147
12928;171079;34.84;059;03.38.16.147
12876;171081;34.84;060;03.38.16.158
12896;171077;34.84;061;03.38.16.158
12944;171082;34.84;062;03.38.16.158
12888;171070;34.84;063;03.38.16.158
12900;171075;34.84;064;03.38.16.158
12880;171076;34.84;065;03.38.16.158
12928;171080;34.84;066;03.38.16.158
12892;171074;34.84;067;03.38.16.158
12928;171072;34.84;068;03.38.16.158
12932;171078;34.84;069;03.38.16.158
12904;171076;34.84;070;03.38.16.158
12896;171077;34.84;071;03.38.16.158
12892;171082;34.84;072;03.38.16.158
12944;171084;34.84;073;03.38.16.169
12920;171086;34.84;074;03.38.16.169
12896;171087;34.80;075;03.38.16.267
12900;171096;34.80;076;03.38.16.267
12924;171100;34.80;077;03.38.16.267
12912;171092;34.80;078;03.38.16.267
12908;171100;34.80;079;03.38.16.267
12928;171102;34.80;080;03.38.16.267
12908;171100;34.80;081;03.38.16.278
12896;171105;34.80;082;03.38.16.278
12920;171108;34.80;083;03.38.16.278
12892;171107;34.80;084;03.38.16.278
12924;171111;34.80;085;03.38.16.278
12896;171116;34.80;086;03.38.16.278
12900;171111;34.80;087;03.38.16.278
12904;171110;34.80;088;03.38.16.278
12904;171117;34.80;089;03.38.16.289
12928;171111;34.80;090;03.38.16.289
12896;171123;34.80;091;03.38.16.289
12904;171116;34.80;092;03.38.16.289
12896;171122;34.80;093;03.38.16.289
12928;171118;34.80;094;03.38.16.289
12892;171128;34.80;095;03.38.16.289
12936;171129;34.80;096;03.38.16.289
12896;171133;34.80;097;03.38.16.289
12900;171135;34.80;098;03.38.16.289
12908;171130;34.80;099;03.38.16.300
12916;171129;34.80;100;03.38.16.399
12920;171123;34.80;101;03.38.16.399
12912;171125;34.80;102;03.38.16.410
12888;171131;34.80;103;03.38.16.410
12908;171134;34.80;104;03.38.16.410
12904;171138;34.80;105;03.38.16.410
12888;171137;34.80;106;03.38.16.410
12904;171141;34.80;107;03.38.16.410
12912;171140;34.80;108;03.38.16.410
12936;171137;34.80;109;03.38.16.410
12900;171144;34.80;110;03.38.16.410
12904;171147;34.80;111;03.38.16.410
12900;171138;34.80;112;03.38.16.410
12908;171143;34.80;113;03.38.16.410
12916;171151;34.80;114;03.38.16.410
12884;171146;34.80;115;03.38.16.410
12912;171145;34.80;116;03.38.16.421
12904;171157;34.80;117;03.38.16.421
12912;171149;34.80;118;03.38.16.421
12892;171147;34.80;119;03.38.16.421
12888;171151;34.80;120;03.38.16.421
12916;171151;34.80;121;03.38.16.421
12900;171163;34.80;122;03.38.16.421
12912;171165;34.80;123;03.38.16.421
12888;171156;34.80;124;03.38.16.421
12908;171167;34.84;125;03.38.16.530
12900;171162;34.84;126;03.38.16.530
12908;171161;34.84;127;03.38.16.530
12916;171159;34.84;128;03.38.16.530
12904;171173;34.84;129;03.38.16.530
12916;171171;34.84;130;03.38.16.530
12892;171164;34.84;131;03.38.16.530
12904;171166;34.84;132;03.38.16.530
12888;171176;34.84;133;03.38.16.541
12892;171165;34.84;134;03.38.16.541
12904;171169;34.84;135;03.38.16.541
12928;171177;34.84;136;03.38.16.541
12960;171171;34.84;137;03.38.16.541
12892;171179;34.84;138;03.38.16.541
12900;171185;34.84;139;03.38.16.541
12908;171185;34.84;140;03.38.16.541
12900;171180;34.84;141;03.38.16.541
12884;171183;34.84;142;03.38.16.552
12916;171180;34.84;143;03.38.16.552
12872;171179;34.84;144;03.38.16.552
12908;171189;34.84;145;03.38.16.552
12912;171179;34.84;146;03.38.16.552
12932;171172;34.84;147;03.38.16.552
12928;171168;34.84;148;03.38.16.552
12928;171167;34.84;149;03.38.16.552
12908;171158;34.84;150;03.38.16.651
12884;171158;34.84;151;03.38.16.651
12908;171150;34.84;152;03.38.16.651
12912;171142;34.84;153;03.38.16.651
12904;171140;34.84;154;03.38.16.651
12908;171138;34.84;155;03.38.16.651
12920;171138;34.84;156;03.38.16.651
12928;171141;34.84;157;03.38.16.651
12928;171128;34.84;158;03.38.16.673
12916;171121;34.84;159;03.38.16.673
12928;171120;34.84;160;03.38.16.673
12908;171109;34.84;161;03.38.16.673
12908;171102;34.84;162;03.38.16.673
12916;171109;34.84;163;03.38.16.673
12904;171105;34.84;164;03.38.16.673
12924;171103;34.84;165;03.38.16.673
12888;171097;34.84;166;03.38.16.684
12888;171099;34.84;167;03.38.16.684
12904;171096;34.84;168;03.38.16.684
12928;171092;34.84;169;03.38.16.684
12900;171090;34.84;170;03.38.16.684
12888;171098;34.84;171;03.38.16.684
12920;171085;34.84;172;03.38.16.684
12924;171091;34.84;173;03.38.16.684
12924;171083;34.84;174;03.38.16.684
12892;171088;34.80;175;03.38.16.771
12928;171075;34.80;176;03.38.16.771
12900;171081;34.80;177;03.38.16.782
12872;171085;34.80;178;03.38.16.782
12900;171083;34.80;179;03.38.16.782
12884;171079;34.80;180;03.38.16.782
12928;171085;34.80;181;03.38.16.782
12916;171086;34.80;182;03.38.16.782
12892;171080;34.80;183;03.38.16.782
12920;171086;34.80;184;03.38.16.782
12892;171080;34.80;185;03.38.16.782
12892;171078;34.80;186;03.38.16.782
12892;171079;34.80;187;03.38.16.782
12892;171081;34.80;188;03.38.16.782
12888;171080;34.80;189;03.38.16.782
12880;171081;34.80;190;03.38.16.793
12892;171073;34.80;191;03.38.16.793
12904;171074;34.80;192;03.38.16.793
12936;171083;34.80;193;03.38.16.793
12924;171078;34.80;194;03.38.16.793
12896;171080;34.80;195;03.38.16.793
12892;171081;34.80;196;03.38.16.793
12904;171088;34.80;197;03.38.16.793
12928;171076;34.80;198;03.38.16.793
12928;171086;34.80;199;03.38.16.793
12892;171091;34.80;200;03.38.16.913
12904;171089;34.80;201;03.38.16.913
12928;171084;34.80;202;03.38.16.913
12904;171088;34.80;203;03.38.16.913
12908;171092;34.80;204;03.38.16.913
12912;171089;34.80;205;03.38.16.913
12892;171090;34.80;206;03.38.16.913
12900;171090;34.80;207;03.38.16.913
12872;171082;34.80;208;03.38.16.913
12904;171090;34.80;209;03.38.16.913
12924;171085;34.80;210;03.38.16.913
12896;171094;34.80;211;03.38.16.924
12944;171090;34.80;212;03.38.16.924
12896;171096;34.80;213;03.38.16.924
12892;171093;34.80;214;03.38.16.924
12896;171095;34.80;215;03.38.16.924
12880;171088;34.80;216;03.38.16.924
12916;171092;34.80;217;03.38.16.924
12884;171096;34.80;218;03.38.16.924
12888;171106;34.80;219;03.38.16.924
12916;171093;34.80;220;03.38.16.924
12912;171094;34.80;221;03.38.16.924
12920;171092;34.80;222;03.38.16.924
12892;171104;34.80;223;03.38.16.924
12936;171102;34.80;224;03.38.16.935
12860;171097;34.84;225;03.38.17.044
12916;171104;34.84;226;03.38.17.044
12892;171110;34.84;227;03.38.17.044
12908;171110;34.84;228;03.38.17.044
12908;171114;34.84;229;03.38.17.044
12892;171110;34.84;230;03.38.17.044
12912;171108;34.84;231;03.38.17.044
12888;171117;34.84;232;03.38.17.055
12892;171118;34.84;233;03.38.17.055
12888;171113;34.84;234;03.38.17.055
12920;171113;34.84;235;03.38.17.055
12924;171117;34.84;236;03.38.17.055
12916;171111;34.84;237;03.38.17.055
12896;171110;34.84;238;03.38.17.055
12936;171123;34.84;239;03.38.17.055
12920;171121;34.84;240;03.38.17.055
12884;171116;34.84;241;03.38.17.055
12928;171124;34.84;242;03.38.17.055
12908;171128;34.84;243;03.38.17.055
12884;171133;34.84;244;03.38.17.055
12904;171128;34.84;245;03.38.17.066
12892;171128;34.84;246;03.38.17.066
12908;171132;34.84;247;03.38.17.066
12920;171131;34.84;248;03.38.17.066
12912;171138;34.84;249;03.38.17.066
12888;171132;34.84;250;03.38.17.143
12908;171142;34.84;251;03.38.17.143
12892;171139;34.84;252;03.38.17.143
12912;171142;34.84;253;03.38.17.143
12900;171147;34.84;254;03.38.17.154
12904;171152;34.84;255;03.38.17.154
12928;171149;34.84;256;03.38.17.154
12896;171154;34.84;257;03.38.17.154
12928;171153;34.84;258;03.38.17.154
12924;171159;34.84;259;03.38.17.154
12904;171157;34.84;260;03.38.17.154
12908;171153;34.84;261;03.38.17.154
12896;171153;34.84;262;03.38.17.154
12900;171167;34.84;263;03.38.17.154
12920;171161;34.84;264;03.38.17.154
12892;171171;34.84;265;03.38.17.154
12904;171162;34.84;266;03.38.17.154
12928;171167;34.84;267;03.38.17.176
12908;171177;34.84;268;03.38.17.176
12928;171168;34.84;269;03.38.17.176
12892;171168;34.84;270;03.38.17.176
12892;171173;34.84;271;03.38.17.187
12904;171173;34.84;272;03.38.17.187
12908;171172;34.84;273;03.38.17.187
12932;171176;34.84;274;03.38.17.187
12900;171176;34.80;275;03.38.17.274
12904;171177;34.80;276;03.38.17.274
12924;171179;34.80;277;03.38.17.274
12928;171176;34.80;278;03.38.17.274
12916;171180;34.80;279;03.38.17.274
12908;171180;34.80;280;03.38.17.274
12904;171186;34.80;281;03.38.17.274
12904;171195;34.80;282;03.38.17.274
12908;171192;34.80;283;03.38.17.274
12896;171194;34.80;284;03.38.17.285
12928;171187;34.80;285;03.38.17.285
12920;171195;34.80;286;03.38.17.285
12920;171202;34.80;287;03.38.17.285
12892;171189;34.80;288;03.38.17.285
12900;171188;34.80;289;03.38.17.285
12904;171212;34.80;290;03.38.17.285
12892;171207;34.80;291;03.38.17.285
12908;171205;34.80;292;03.38.17.285
12904;171212;34.80;293;03.38.17.285
12908;171205;34.80;294;03.38.17.285
12912;171211;34.80;295;03.38.17.285
12936;171214;34.80;296;03.38.17.285
12916;171217;34.80;297;03.38.17.296
12908;171222;34.80;298;03.38.17.296
12916;171218;34.80;299;03.38.17.296
12916;171216;34.80;300;03.38.17.405
12900;171226;34.80;301;03.38.17.405
12924;171224;34.80;302;03.38.17.405
12912;171231;34.80;303;03.38.17.405
12932;171237;34.80;304;03.38.17.405
12928;171234;34.80;305;03.38.17.405
12940;171235;34.80;306;03.38.17.405
12920;171241;34.80;307;03.38.17.416
12900;171232;34.80;308;03.38.17.416
12916;171232;34.80;309;03.38.17.416
12884;171240;34.80;310;03.38.17.416
12892;171237;34.80;311;03.38.17.416
12884;171249;34.80;312;03.38.17.416
12920;171247;34.80;313;03.38.17.416
12928;171245;34.80;314;03.38.17.416
12892;171257;34.80;315;03.38.17.416
12920;171251;34.80;316;03.38.17.416
12928;171256;34.80;317;03.38.17.416
12908;171253;34.80;318;03.38.17.416
12884;171253;34.80;319;03.38.17.416
12912;171264;34.80;320;03.38.17.427
12912;171263;34.80;321;03.38.17.427
12884;171262;34.80;322;03.38.17.427
12892;171264;34.80;323;03.38.17.427
12892;171263;34.80;324;03.38.17.427
12912;171262;34.84;325;03.38.17.536
12892;171259;34.84;326;03.38.17.536
12920;171263;34.84;327;03.38.17.536
12924;171258;34.84;328;03.38.17.547
12904;171258;34.84;329;03.38.17.547
12928;171250;34.84;330;03.38.17.547
12916;171241;34.84;331;03.38.17.547
12924;171238;34.84;332;03.38.17.547
12904;171240;34.84;333;03.38.17.547
12900;171233;34.84;334;03.38.17.547
12936;171223;34.84;335;03.38.17.547
12892;171221;34.84;336;03.38.17.547
12928;171220;34.84;337;03.38.17.547
12928;171215;34.84;338;03.38.17.547
12904;171219;34.84;339;03.38.17.547
12928;171207;34.84;340;03.38.17.547
12892;171206;34.84;341;03.38.17.547
12904;171212;34.84;342;03.38.17.558
12908;171206;34.84;343;03.38.17.558
12936;171201;34.84;344;03.38.17.558
12904;171202;34.84;345;03.38.17.558
12912;171196;34.84;346;03.38.17.558
12928;171196;34.84;347;03.38.17.558
12892;171200;34.84;348;03.38.17.558
12908;171199;34.84;349;03.38.17.558
12892;171197;34.84;350;03.38.17.679
12904;171194;34.84;351;03.38.17.679
12908;171192;34.84;352;03.38.17.679
12924;171193;34.84;353;03.38.17.679
12924;171190;34.84;354;03.38.17.679
12880;171193;34.84;355;03.38.17.679
12892;171190;34.84;356;03.38.17.679
12912;171191;34.84;357;03.38.17.679
12928;171195;34.84;358;03.38.17.679
12896;171198;34.84;359;03.38.17.679
12896;171198;34.84;360;03.38.17.679
12904;171195;34.84;361;03.38.17.679
12888;171199;34.84;362;03.38.17.679
12936;171195;34.84;363;03.38.17.679
12892;171198;34.84;364;03.38.17.690
12908;171195;34.84;365;03.38.17.690
12876;171188;34.84;366;03.38.17.690
12904;171194;34.84;367;03.38.17.701
12900;171198;34.84;368;03.38.17.701
12900;171197;34.84;369;03.38.17.701
12916;171193;34.84;370;03.38.17.701
12896;171197;34.84;371;03.38.17.701
12884;171188;34.84;372;03.38.17.701
12892;171197;34.84;373;03.38.17.701
12940;171199;34.84;374;03.38.17.701
12912;171201;34.84;375;03.38.17.778
12912;171206;34.84;376;03.38.17.778
12900;171210;34.84;377;03.38.17.778
12908;171210;34.84;378;03.38.17.778
12896;171201;34.84;379;03.38.17.778
12908;171208;34.84;380;03.38.17.778
12916;171204;34.84;381;03.38.17.778
12920;171204;34.84;382;03.38.17.778
12912;171204;34.84;383;03.38.17.811
12912;171211;34.84;384;03.38.17.811
12912;171211;34.84;385;03.38.17.811
12908;171214;34.84;386;03.38.17.811
12908;171203;34.84;387;03.38.17.811
12892;171206;34.84;388;03.38.17.811
12920;171203;34.84;389;03.38.17.811
12892;171200;34.84;390;03.38.17.811
12936;171208;34.84;391;03.38.17.811
12888;171217;34.84;392;03.38.17.822
12884;171208;34.84;393;03.38.17.822
12916;171212;34.84;394;03.38.17.822
12928;171202;34.84;395;03.38.17.822
12908;171217;34.84;396;03.38.17.822
12884;171213;34.84;397;03.38.17.822
12908;171207;34.84;398;03.38.17.822
12916;171207;34.84;399;03.38.17.822
12880;171210;34.84;400;03.38.17.898
12908;171210;34.84;401;03.38.17.898
12928;171209;34.84;402;03.38.17.898
12908;171221;34.84;403;03.38.17.898
12892;171214;34.84;404;03.38.17.898
12912;171214;34.84;405;03.38.17.898
12928;171221;34.84;406;03.38.17.909
12884;171219;34.84;407;03.38.17.909
12884;171213;34.84;408;03.38.17.909
12908;171214;34.84;409;03.38.17.909
12884;171218;34.84;410;03.38.17.909
12896;171222;34.84;411;03.38.17.909
12908;171220;34.84;412;03.38.17.909
12904;171217;34.84;413;03.38.17.909
12900;171222;34.84;414;03.38.17.909
12904;171232;34.84;415;03.38.17.909
12936;171224;34.84;416;03.38.17.909
12904;171225;34.84;417;03.38.17.942
12920;171229;34.84;418;03.38.17.942
12884;171239;34.84;419;03.38.17.942
12916;171232;34.84;420;03.38.17.942
12880;171236;34.84;421;03.38.17.942
12904;171227;34.84;422;03.38.17.953
12908;171226;34.84;423;03.38.17.953
12960;171238;34.84;424;03.38.17.953
12908;171245;34.84;425;03.38.18.041
12920;171242;34.84;426;03.38.18.052
12912;171239;34.84;427;03.38.18.052
12920;171245;34.84;428;03.38.18.052
12912;171247;34.84;429;03.38.18.052
12944;171245;34.84;430;03.38.18.052
12912;171240;34.84;431;03.38.18.052
12916;171243;34.84;432;03.38.18.052
12904;171248;34.84;433;03.38.18.052
12928;171254;34.84;434;03.38.18.052
12916;171246;34.84;435;03.38.18.052
12896;171255;34.84;436;03.38.18.052
12920;171253;34.84;437;03.38.18.052
12912;171254;34.84;438;03.38.18.052
12908;171257;34.84;439;03.38.18.053
12892;171268;34.84;440;03.38.18.053
12912;171260;34.84;441;03.38.18.054
12892;171267;34.84;442;03.38.18.065
12916;171265;34.84;443;03.38.18.065
12904;171267;34.84;444;03.38.18.065
12908;171267;34.84;445;03.38.18.065
12932;171271;34.84;446;03.38.18.065
12928;171268;34.84;447;03.38.18.065
12880;171277;34.84;448;03.38.18.065
12892;171280;34.84;449;03.38.18.065
12904;171270;34.84;450;03.38.18.153
12908;171272;34.84;451;03.38.18.153
12928;171273;34.84;452;03.38.18.153
12892;171277;34.84;453;03.38.18.153
12912;171285;34.84;454;03.38.18.153
12908;171279;34.84;455;03.38.18.153
12888;171278;34.84;456;03.38.18.153
12932;171286;34.84;457;03.38.18.153
12892;171281;34.84;458;03.38.18.164
12928;171289;34.84;459;03.38.18.164
12904;171287;34.84;460;03.38.18.164
12900;171284;34.84;461;03.38.18.164
12908;171287;34.84;462;03.38.18.164
12892;171293;34.84;463;03.38.18.164
12928;171292;34.84;464;03.38.18.164
12928;171302;34.84;465;03.38.18.164
12888;171293;34.84;466;03.38.18.164
12908;171284;34.84;467;03.38.18.164
12908;171290;34.84;468;03.38.18.164
12912;171293;34.84;469;03.38.18.175
12932;171298;34.84;470;03.38.18.175
12908;171297;34.84;471;03.38.18.175
12928;171300;34.84;472;03.38.18.175
12924;171293;34.84;473;03.38.18.175
12920;171305;34.84;474;03.38.18.175
12904;171313;34.84;475;03.38.18.273
12912;171307;34.84;476;03.38.18.273
12896;171300;34.84;477;03.38.18.273
12920;171308;34.84;478;03.38.18.273
12936;171312;34.84;479;03.38.18.273
12904;171313;34.84;480;03.38.18.273
12916;171320;34.84;481;03.38.18.273
12908;171320;34.84;482;03.38.18.273
12904;171320;34.84;483;03.38.18.273
12896;171322;34.84;484;03.38.18.273
12944;171316;34.84;485;03.38.18.273
12932;171331;34.84;486;03.38.18.284
12896;171331;34.84;487;03.38.18.284
12916;171331;34.84;488;03.38.18.284
12908;171329;34.84;489;03.38.18.284
12920;171335;34.84;490;03.38.18.284
12912;171336;34.84;491;03.38.18.284
12916;171324;34.84;492;03.38.18.284
12892;171338;34.84;493;03.38.18.284
12888;171333;34.84;494;03.38.18.284
12944;171329;34.84;495;03.38.18.284
12908;171328;34.84;496;03.38.18.284
12900;171320;34.84;497;03.38.18.284
12904;171319;34.84;498;03.38.18.295
12904;171317;34.84;499;03.38.18.295
12892;171319;34.84;500;03.38.18.394
12920;171306;34.84;501;03.38.18.394
12892;171301;34.84;502;03.38.18.394
12876;171296;34.84;503;03.38.18.394
12908;171297;34.84;504;03.38.18.394
12932;171291;34.84;505;03.38.18.394
12928;171291;34.84;506;03.38.18.405
12928;171286;34.84;507;03.38.18.405
12912;171286;34.84;508;03.38.18.405
12900;171280;34.84;509;03.38.18.405
12900;171277;34.84;510;03.38.18.405
12928;171260;34.84;511;03.38.18.405
12892;171263;34.84;512;03.38.18.405
12928;171265;34.84;513;03.38.18.405
12932;171270;34.84;514;03.38.18.405
12904;171266;34.84;515;03.38.18.405
12928;171260;34.84;516;03.38.18.405
12912;171272;34.84;517;03.38.18.405
12908;171257;34.84;518;03.38.18.405
12912;171263;34.84;519;03.38.18.415
12896;171258;34.84;520;03.38.18.415
12916;171257;34.84;521;03.38.18.415
12884;171255;34.84;522;03.38.18.415
12896;171259;34.84;523;03.38.18.415
12908;171255;34.84;524;03.38.18.415
12916;171256;34.80;525;03.38.18.524
12904;171253;34.80;526;03.38.18.535
12924;171254;34.80;527;03.38.18.535
12892;171250;34.80;528;03.38.18.535
12960;171257;34.80;529;03.38.18.535
12896;171255;34.80;530;03.38.18.535
12896;171250;34.80;531;03.38.18.535
12904;171249;34.80;532;03.38.18.535
12908;171257;34.80;533;03.38.18.535
12892;171255;34.80;534;03.38.18.535
12904;171257;34.80;535;03.38.18.535
12908;171255;34.80;536;03.38.18.535
12920;171258;34.80;537;03.38.18.535
12892;171262;34.80;538;03.38.18.535
12912;171265;34.80;539;03.38.18.546
12880;171263;34.80;540;03.38.18.546
12880;171261;34.80;541;03.38.18.546
12904;171266;34.80;542;03.38.18.546
12912;171260;34.80;543;03.38.18.546
12936;171270;34.80;544;03.38.18.546
12916;171269;34.80;545;03.38.18.546
12916;171266;34.80;546;03.38.18.546
12928;171272;34.80;547;03.38.18.546
12924;171273;34.80;548;03.38.18.546
12892;171275;34.80;549;03.38.18.546
12904;171274;34.80;550;03.38.18.689
12936;171274;34.80;551;03.38.18.689
12900;171276;34.80;552;03.38.18.689
12908;171271;34.80;553;03.38.18.689
12904;171272;34.80;554;03.38.18.689
12900;171274;34.80;555;03.38.18.689
12928;171273;34.80;556;03.38.18.689
12876;171269;34.80;557;03.38.18.689
12884;171272;34.80;558;03.38.18.700
12908;171272;34.80;559;03.38.18.700
12904;171273;34.80;560;03.38.18.700
12868;171274;34.80;561;03.38.18.700
12888;171272;34.80;562;03.38.18.700
12892;171276;34.80;563;03.38.18.700
12908;171267;34.80;564;03.38.18.700
12908;171273;34.80;565;03.38.18.700
12892;171271;34.80;566;03.38.18.710
12920;171271;34.80;567;03.38.18.710
12892;171269;34.80;568;03.38.18.710
12888;171276;34.80;569;03.38.18.710
12920;171271;34.80;570;03.38.18.710
12916;171266;34.80;571;03.38.18.710
12920;171267;34.80;572;03.38.18.710
12908;171263;34.80;573;03.38.18.710
12932;171264;34.80;574;03.38.18.710
12884;171266;34.80;575;03.38.18.798
12916;171277;34.80;576;03.38.18.798
12920;171264;34.80;577;03.38.18.798
12896;171272;34.80;578;03.38.18.798
12896;171268;34.80;579;03.38.18.798
12916;171270;34.80;580;03.38.18.798
12888;171273;34.80;581;03.38.18.809
12900;171274;34.80;582;03.38.18.809
12912;171281;34.80;583;03.38.18.809
12912;171277;34.80;584;03.38.18.809
12888;171278;34.80;585;03.38.18.809
12916;171282;34.80;586;03.38.18.809
12912;171277;34.80;587;03.38.18.809
12888;171281;34.80;588;03.38.18.809
12916;171278;34.80;589;03.38.18.809
12884;171280;34.80;590;03.38.18.809
12904;171274;34.80;591;03.38.18.809
12928;171272;34.80;592;03.38.18.809
12920;171273;34.80;593;03.38.18.820
12928;171283;34.80;594;03.38.18.820
12928;171276;34.80;595;03.38.18.820
12920;171275;34.80;596;03.38.18.820
12852;171277;34.80;597;03.38.18.820
12908;171288;34.80;598;03.38.18.820
12904;171287;34.80;599;03.38.18.820
12916;171284;34.80;600;03.38.18.908
12916;171286;34.80;601;03.38.18.908
12880;171282;34.80;602;03.38.18.908
12896;171284;34.80;603;03.38.18.908
12936;171284;34.80;604;03.38.18.908
12904;171289;34.80;605;03.38.18.908
12916;171292;34.80;606;03.38.18.908
12916;171289;34.80;607;03.38.18.908
12912;171282;34.80;608;03.38.18.908
12892;171282;34.80;609;03.38.18.908
12892;171289;34.80;610;03.38.18.908
12928;171288;34.80;611;03.38.18.919
12908;171291;34.80;612;03.38.18.919
12900;171292;34.80;613;03.38.18.919
12892;171293;34.80;614;03.38.18.919
12928;171290;34.80;615;03.38.18.919
12920;171293;34.80;616;03.38.18.919
12892;171288;34.80;617;03.38.18.930
12928;171302;34.80;618;03.38.18.930
12896;171290;34.80;619;03.38.18.941
12908;171289;34.80;620;03.38.18.941
12916;171285;34.80;621;03.38.18.941
12908;171300;34.80;622;03.38.18.941
12916;171301;34.80;623;03.38.18.941
12892;171299;34.80;624;03.38.18.941
12892;171301;34.80;625;03.38.19.050
12920;171306;34.80;626;03.38.19.050
12928;171304;34.80;627;03.38.19.050
12892;171304;34.80;628;03.38.19.050
12892;171311;34.80;629;03.38.19.050
12904;171312;34.80;630;03.38.19.050
12900;171314;34.80;631;03.38.19.050
12900;171303;34.80;632;03.38.19.050
12912;171311;34.80;633;03.38.19.061
12900;171310;34.80;634;03.38.19.061
12912;171301;34.80;635;03.38.19.061
12916;171306;34.80;636;03.38.19.061
12920;171308;34.80;637;03.38.19.061
12896;171309;34.80;638;03.38.19.061
12908;171309;34.80;639;03.38.19.061
12908;171315;34.80;640;03.38.19.061
12932;171308;34.80;641;03.38.19.061
12904;171313;34.80;642;03.38.19.072
12904;171317;34.80;643;03.38.19.072
12904;171316;34.80;644;03.38.19.072
12916;171317;34.80;645;03.38.19.072
12860;171313;34.80;646;03.38.19.072
12920;171313;34.80;647;03.38.19.072
12916;171314;34.80;648;03.38.19.072
12920;171308;34.80;649;03.38.19.072
12912;171296;34.80;650;03.38.19.160
12912;171298;34.80;651;03.38.19.160
12900;171295;34.80;652;03.38.19.160
12904;171293;34.80;653;03.38.19.160
12892;171296;34.80;654;03.38.19.160
12904;171291;34.80;655;03.38.19.160
12916;171281;34.80;656;03.38.19.160
12912;171286;34.80;657;03.38.19.160
12888;171279;34.80;658;03.38.19.171
12884;171276;34.80;659;03.38.19.171
12912;171274;34.80;660;03.38.19.171
12892;171268;34.80;661;03.38.19.171
12928;171260;34.80;662;03.38.19.171
12884;171262;34.80;663;03.38.19.171
12916;171254;34.80;664;03.38.19.171
12908;171255;34.80;665;03.38.19.171
12904;171248;34.80;666;03.38.19.182
12916;171246;34.80;667;03.38.19.182
12892;171241;34.80;668;03.38.19.182
12928;171238;34.80;669;03.38.19.182
12928;171238;34.80;670;03.38.19.182
12916;171233;34.80;671;03.38.19.182
12892;171238;34.80;672;03.38.19.182
12920;171234;34.80;673;03.38.19.182
12952;171229;34.80;674;03.38.19.182
12908;171237;34.80;675;03.38.19.270
12944;171226;34.80;676;03.38.19.270
12892;171230;34.80;677;03.38.19.270
12924;171232;34.80;678;03.38.19.270
12892;171227;34.80;679;03.38.19.270
12916;171221;34.80;680;03.38.19.281
12916;171221;34.80;681;03.38.19.281
12900;171227;34.80;682;03.38.19.281
12876;171219;34.80;683;03.38.19.292
12912;171216;34.80;684;03.38.19.292
12908;171225;34.80;685;03.38.19.292
12928;171217;34.80;686;03.38.19.292
12904;171218;34.80;687;03.38.19.303
12912;171222;34.80;688;03.38.19.303
12908;171230;34.80;689;03.38.19.303
12884;171230;34.80;690;03.38.19.303
12920;171217;34.80;691;03.38.19.303
12896;171232;34.80;692;03.38.19.303
12900;171229;34.80;693;03.38.19.303
12928;171222;34.80;694;03.38.19.303
12904;171224;34.80;695;03.38.19.303
12896;171223;34.80;696;03.38.19.303
12928;171217;34.80;697;03.38.19.303
12928;171220;34.80;698;03.38.19.303
12916;171220;34.80;699;03.38.19.303
12932;171216;34.80;700;03.38.19.391
12900;171218;34.80;701;03.38.19.402
12888;171218;34.80;702;03.38.19.402
12892;171227;34.80;703;03.38.19.402
12916;171224;34.80;704;03.38.19.402
12908;171222;34.80;705;03.38.19.402
12920;171226;34.80;706;03.38.19.402
12872;171222;34.80;707;03.38.19.402
12900;171217;34.80;708;03.38.19.402
12928;171224;34.80;709;03.38.19.402
12908;171226;34.80;710;03.38.19.402
12896;171219;34.80;711;03.38.19.402
12888;171224;34.80;712;03.38.19.402
12920;171222;34.80;713;03.38.19.402
12920;171215;34.80;714;03.38.19.412
12900;171212;34.80;715;03.38.19.412
12924;171220;34.80;716;03.38.19.412
12920;171218;34.80;717;03.38.19.412
12928;171211;34.80;718;03.38.19.412
12928;171212;34.80;719;03.38.19.412
12928;171213;34.80;720;03.38.19.412
12908;171211;34.80;721;03.38.19.412
12920;171211;34.80;722;03.38.19.412
12892;171198;34.80;723;03.38.19.412
12924;171208;34.80;724;03.38.19.412
12916;171214;34.84;725;03.38.19.522
12896;171215;34.84;726;03.38.19.522
12924;171214;34.84;727;03.38.19.522
12936;171212;34.84;728;03.38.19.522
12900;171218;34.84;729;03.38.19.522
12920;171208;34.84;730;03.38.19.522
12892;171216;34.84;731;03.38.19.522
12892;171207;34.84;732;03.38.19.522
12904;171211;34.84;733;03.38.19.533
12908;171213;34.84;734;03.38.19.533
12888;171226;34.84;735;03.38.19.533
12928;171217;34.84;736;03.38.19.533
12892;171219;34.84;737;03.38.19.533
12884;171215;34.84;738;03.38.19.533
12892;171214;34.84;739;03.38.19.533
12928;171215;34.84;740;03.38.19.533
12896;171216;34.84;741;03.38.19.533
12908;171218;34.84;742;03.38.19.533
12924;171219;34.84;743;03.38.19.544
12920;171216;34.84;744;03.38.19.544
12920;171225;34.84;745;03.38.19.544
12924;171220;34.84;746;03.38.19.544
12896;171220;34.84;747;03.38.19.544
12876;171228;34.84;748;03.38.19.544
12892;171222;34.84;749;03.38.19.544
12896;171227;34.84;750;03.38.19.652
12884;171224;34.84;751;03.38.19.652
12928;171229;34.84;752;03.38.19.652
12928;171230;34.84;753;03.38.19.652
12912;171232;34.84;754;03.38.19.663
12908;171233;34.84;755;03.38.19.663
12860;171234;34.84;756;03.38.19.663
12916;171226;34.84;757;03.38.19.663
12912;171227;34.84;758;03.38.19.663
12928;171232;34.84;759;03.38.19.663
12892;171237;34.84;760;03.38.19.663
12876;171231;34.84;761;03.38.19.663
12888;171241;34.84;762;03.38.19.663
12912;171235;34.84;763;03.38.19.663
12928;171240;34.84;764;03.38.19.663
12892;171247;34.84;765;03.38.19.663
12892;171242;34.84;766;03.38.19.663
12884;171244;34.84;767;03.38.19.674
12892;171241;34.84;768;03.38.19.674
12936;171252;34.84;769;03.38.19.674
12940;171244;34.84;770;03.38.19.674
12888;171252;34.84;771;03.38.19.674
12940;171251;34.84;772;03.38.19.674
12896;171257;34.84;773;03.38.19.674
12928;171257;34.84;774;03.38.19.674
12916;171258;34.84;775;03.38.19.784
12936;171262;34.84;776;03.38.19.784
12912;171262;34.84;777;03.38.19.796
12916;171262;34.84;778;03.38.19.796
12896;171266;34.84;779;03.38.19.796
12920;171257;34.84;780;03.38.19.796
12936;171261;34.84;781;03.38.19.796
12904;171257;34.84;782;03.38.19.796
12892;171263;34.84;783;03.38.19.796
12936;171259;34.84;784;03.38.19.796
12904;171265;34.84;785;03.38.19.796
12892;171258;34.84;786;03.38.19.796
12928;171271;34.84;787;03.38.19.796
12908;171270;34.84;788;03.38.19.796
12908;171266;34.84;789;03.38.19.796
12904;171272;34.84;790;03.38.19.796
12876;171273;34.84;791;03.38.19.807
12892;171275;34.84;792;03.38.19.807
12904;171273;34.84;793;03.38.19.807
12908;171277;34.84;794;03.38.19.807
12936;171269;34.84;795;03.38.19.807
12928;171275;34.84;796;03.38.19.807
12920;171284;34.84;797;03.38.19.807
12876;171269;34.84;798;03.38.19.807
12928;171277;34.84;799;03.38.19.807
12904;171266;34.84;800;03.38.19.906
12936;171263;34.84;801;03.38.19.906
12896;171264;34.84;802;03.38.19.906
12904;171254;34.84;803;03.38.19.906
12944;171252;34.84;804;03.38.19.906
12912;171240;34.84;805;03.38.19.906
12928;171242;34.84;806;03.38.19.906
12928;171231;34.84;807;03.38.19.906
12888;171236;34.84;808;03.38.19.938
12908;171221;34.84;809;03.38.19.938
12920;171225;34.84;810;03.38.19.938
12912;171219;34.84;811;03.38.19.938
12900;171213;34.84;812;03.38.19.938
12924;171219;34.84;813;03.38.19.938
12896;171216;34.84;814;03.38.19.938
12908;171198;34.84;815;03.38.19.938
12896;171197;34.84;816;03.38.19.938
12932;171199;34.84;817;03.38.19.938
12892;171193;34.84;818;03.38.19.938
12908;171194;34.84;819;03.38.19.949
12904;171182;34.84;820;03.38.19.949
12908;171184;34.84;821;03.38.19.949
12892;171188;34.84;822;03.38.19.949
12916;171178;34.84;823;03.38.19.949
12936;171178;34.84;824;03.38.19.949
12916;171179;34.84;825;03.38.20.026
12928;171183;34.84;826;03.38.20.026
12928;171180;34.84;827;03.38.20.026
12912;171175;34.84;828;03.38.20.026
12920;171180;34.84;829;03.38.20.026
12904;171173;34.84;830;03.38.20.026
12928;171168;34.84;831;03.38.20.026
12888;171174;34.84;832;03.38.20.026
12904;171176;34.84;833;03.38.20.037
12928;171168;34.84;834;03.38.20.037
12884;171166;34.84;835;03.38.20.037
12916;171166;34.84;836;03.38.20.037
12896;171160;34.84;837;03.38.20.037
12900;171166;34.84;838;03.38.20.037
12912;171169;34.84;839;03.38.20.037
12920;171173;34.84;840;03.38.20.037
12892;171171;34.84;841;03.38.20.037
12904;171165;34.84;842;03.38.20.037
12916;171169;34.84;843;03.38.20.037
12904;171167;34.84;844;03.38.20.037
12900;171169;34.84;845;03.38.20.048
12928;171157;34.84;846;03.38.20.048
12932;171167;34.84;847;03.38.20.048
12884;171169;34.84;848;03.38.20.048
12908;171163;34.84;849;03.38.20.048
12908;171168;34.84;850;03.38.20.156
12872;171163;34.84;851;03.38.20.156
12860;171169;34.84;852;03.38.20.167
12892;171176;34.84;853;03.38.20.167
12912;171169;34.84;854;03.38.20.167
12884;171164;34.84;855;03.38.20.167
12920;171173;34.84;856;03.38.20.167
12892;171171;34.84;857;03.38.20.167
12908;171156;34.84;858;03.38.20.167
12900;171164;34.84;859;03.38.20.167
12920;171158;34.84;860;03.38.20.167
12900;171164;34.84;861;03.38.20.167
12900;171162;34.84;862;03.38.20.167
12908;171172;34.84;863;03.38.20.167
12892;171165;34.84;864;03.38.20.167
12932;171162;34.84;865;03.38.20.178
12884;171156;34.84;866;03.38.20.178
12908;171163;34.84;867;03.38.20.178
12892;171161;34.84;868;03.38.20.178
12892;171159;34.84;869;03.38.20.178
12904;171158;34.84;870;03.38.20.178
12912;171161;34.84;871;03.38.20.178
12920;171162;34.84;872;03.38.20.178
12912;171172;34.84;873;03.38.20.178
12924;171172;34.84;874;03.38.20.178
12912;171170;34.84;875;03.38.20.276
12912;171164;34.84;876;03.38.20.276
12892;171159;34.84;877;03.38.20.276
12892;171163;34.84;878;03.38.20.276
12924;171162;34.84;879;03.38.20.276
12916;171169;34.84;880;03.38.20.276
12904;171164;34.84;881;03.38.20.276
12892;171167;34.84;882;03.38.20.276
12936;171172;34.84;883;03.38.20.297
12916;171168;34.84;884;03.38.20.297
12960;171177;34.84;885;03.38.20.297
12916;171170;34.84;886;03.38.20.297
12908;171166;34.84;887;03.38.20.297
12888;171174;34.84;888;03.38.20.297
12900;171171;34.84;889;03.38.20.297
12928;171166;34.84;890;03.38.20.297
12900;171173;34.84;891;03.38.20.308
12916;171176;34.84;892;03.38.20.308
12892;171170;34.84;893;03.38.20.308
12944;171169;34.84;894;03.38.20.308
12892;171182;34.84;895;03.38.20.308
12920;171180;34.84;896;03.38.20.308
12908;171179;34.84;897;03.38.20.308
12880;171176;34.84;898;03.38.20.308
12904;171173;34.84;899;03.38.20.308
12900;171174;34.84;900;03.38.20.395
12892;171183;34.84;901;03.38.20.395
12916;171181;34.84;902;03.38.20.395
12904;171183;34.84;903;03.38.20.395
12932;171180;34.84;904;03.38.20.406
12916;171186;34.84;905;03.38.20.406
12932;171178;34.84;906;03.38.20.406
12916;171178;34.84;907;03.38.20.406
12944;171175;34.84;908;03.38.20.406
12884;171175;34.84;909;03.38.20.406
12908;171176;34.84;910;03.38.20.406
12916;171177;34.84;911;03.38.20.417
12892;171188;34.84;912;03.38.20.417
12892;171178;34.84;913;03.38.20.417
12928;171186;34.84;914;03.38.20.417
12908;171186;34.84;915;03.38.20.417
12928;171182;34.84;916;03.38.20.417
12904;171188;34.84;917;03.38.20.417
12920;171181;34.84;918;03.38.20.417
12928;171188;34.84;919;03.38.20.417
12892;171191;34.84;920;03.38.20.417
12892;171199;34.84;921;03.38.20.417
12904;171191;34.84;922;03.38.20.417
12920;171193;34.84;923;03.38.20.417
12920;171185;34.84;924;03.38.20.428
12900;171196;34.80;925;03.38.20.515
12884;171190;34.80;926;03.38.20.526
12904;171195;34.80;927;03.38.20.526
12912;171198;34.80;928;03.38.20.526
12928;171195;34.80;929;03.38.20.526
12920;171208;34.80;930;03.38.20.526
12912;171201;34.80;931;03.38.20.526
12936;171200;34.80;932;03.38.20.526
12920;171203;34.80;933;03.38.20.526
12908;171206;34.80;934;03.38.20.526
12904;171209;34.80;935;03.38.20.526
12900;171211;34.80;936;03.38.20.526
12888;171211;34.80;937;03.38.20.526
12916;171215;34.80;938;03.38.20.526
12884;171211;34.80;939;03.38.20.537
12904;171213;34.80;940;03.38.20.537
12928;171214;34.80;941;03.38.20.537
12892;171211;34.80;942;03.38.20.537
12928;171225;34.80;943;03.38.20.537
12912;171225;34.80;944;03.38.20.537
12912;171216;34.80;945;03.38.20.537
12924;171219;34.80;946;03.38.20.537
12908;171217;34.80;947;03.38.20.537
12916;171211;34.80;948;03.38.20.537
12936;171205;34.80;949;03.38.20.537
12900;171213;34.80;950;03.38.20.658
12920;171200;34.80;951;03.38.20.658
12916;171197;34.80;952;03.38.20.658
12900;171193;34.80;953;03.38.20.658
12924;171187;34.80;954;03.38.20.658
12908;171186;34.80;955;03.38.20.658
12932;171183;34.80;956;03.38.20.658
12928;171180;34.80;957;03.38.20.658
12896;171174;34.80;958;03.38.20.658
12936;171170;34.80;959;03.38.20.669
12928;171156;34.80;960;03.38.20.669
12928;171157;34.80;961;03.38.20.669
12892;171151;34.80;962;03.38.20.669
12944;171152;34.80;963;03.38.20.669
12932;171147;34.80;964;03.38.20.669
12892;171146;34.80;965;03.38.20.669
12876;171143;34.80;966;03.38.20.669
12908;171135;34.80;967;03.38.20.669
12900;171143;34.80;968;03.38.20.669
12928;171135;34.80;969;03.38.20.669
12892;171134;34.80;970;03.38.20.669
12904;171125;34.80;971;03.38.20.669
12908;171123;34.80;972;03.38.20.680
12908;171123;34.80;973;03.38.20.680
12884;171124;34.80;974;03.38.20.680
12884;171121;34.80;975;03.38.20.789
12928;171121;34.80;976;03.38.20.789
12912;171128;34.80;977;03.38.20.789
12896;171120;34.80;978;03.38.20.789
12900;171122;34.80;979;03.38.20.800
12884;171125;34.80;980;03.38.20.800
12928;171119;34.80;981;03.38.20.800
12928;171119;34.80;982;03.38.20.800
12904;171120;34.80;983;03.38.20.800
12928;171117;34.80;984;03.38.20.800
12892;171116;34.80;985;03.38.20.800
12900;171118;34.80;986;03.38.20.800
12928;171108;34.80;987;03.38.20.800
12928;171108;34.80;988;03.38.20.800
12904;171120;34.80;989;03.38.20.800
12896;171112;34.80;990;03.38.20.800
12900;171109;34.80;991;03.38.20.800
12928;171114;34.80;992;03.38.20.811
12892;171117;34.80;993;03.38.20.811
12908;171117;34.80;994;03.38.20.811
12900;171122;34.80;995;03.38.20.811
12916;171126;34.80;996;03.38.20.811
12920;171121;34.80;997;03.38.20.811
12900;171122;34.80;998;03.38.20.811
12908;171122;34.80;999;03.38.20.811
12896;171125;34.80;000;03.38.20.930
12904;171119;34.80;001;03.38.20.930
12912;171121;34.80;002;03.38.20.930
12932;171128;34.80;003;03.38.20.930
12920;171118;34.80;004;03.38.20.930
12908;171130;34.80;005;03.38.20.930
12928;171127;34.80;006;03.38.20.930
12920;171118;34.80;007;03.38.20.930
12896;171116;34.80;008;03.38.20.930
12892;171116;34.80;009;03.38.20.930
12904;171122;34.80;010;03.38.20.930
12912;171124;34.80;011;03.38.20.930
12920;171117;34.80;012;03.38.20.930
12904;171121;34.80;013;03.38.20.941
12916;171122;34.80;014;03.38.20.941
12912;171117;34.80;015;03.38.20.941
12884;171118;34.80;016;03.38.20.941
12912;171122;34.80;017;03.38.20.952
12904;171116;34.80;018;03.38.20.952
12920;171122;34.80;019;03.38.20.952
12920;171115;34.80;020;03.38.20.952
12936;171120;34.80;021;03.38.20.952
12892;171116;34.80;022;03.38.20.952
12884;171113;34.80;023;03.38.20.952
12928;171112;34.80;024;03.38.20.952
12892;171118;34.80;025;03.38.21.028
12896;171122;34.80;026;03.38.21.028
12892;171120;34.80;027;03.38.21.028
12932;171123;34.80;028;03.38.21.028
12928;171118;34.80;029;03.38.21.028
12904;171117;34.80;030;03.38.21.028
12928;171116;34.80;031;03.38.21.028
12904;171114;34.80;032;03.38.21.028
12904;171113;34.80;033;03.38.21.039
12896;171119;34.80;034;03.38.21.039
12920;171116;34.80;035;03.38.21.039
12900;171128;34.80;036;03.38.21.039
12912;171121;34.80;037;03.38.21.039
12880;171121;34.80;038;03.38.21.039
12892;171123;34.80;039;03.38.21.039
12916;171124;34.80;040;03.38.21.039
12888;171128;34.80;041;03.38.21.039
12904;171127;34.80;042;03.38.21.061
12960;171132;34.80;043;03.38.21.061
12928;171125;34.80;044;03.38.21.061
12892;171131;34.80;045;03.38.21.061
12888;171132;34.80;046;03.38.21.061
12916;171127;34.80;047;03.38.21.061
12908;171136;34.80;048;03.38.21.061
12928;171133;34.80;049;03.38.21.072
12892;171134;34.80;050;03.38.21.149
12904;171141;34.80;051;03.38.21.149
12936;171143;34.80;052;03.38.21.149
12896;171134;34.80;053;03.38.21.149
12924;171145;34.80;054;03.38.21.160
12912;171146;34.80;055;03.38.21.160
12912;171145;34.80;056;03.38.21.160
12928;171147;34.80;057;03.38.21.160
12912;171153;34.80;058;03.38.21.160
12900;171152;34.80;059;03.38.21.160
12892;171156;34.80;060;03.38.21.160
12892;171152;34.80;061;03.38.21.160
12908;171155;34.80;062;03.38.21.160
12928;171155;34.80;063;03.38.21.160
12924;171165;34.80;064;03.38.21.160
12916;171167;34.80;065;03.38.21.160
12924;171159;34.80;066;03.38.21.160
12916;171163;34.80;067;03.38.21.171
12900;171161;34.80;068;03.38.21.171
12904;171149;34.80;069;03.38.21.171
12920;171160;34.80;070;03.38.21.171
12896;171169;34.80;071;03.38.21.171
12928;171166;34.80;072;03.38.21.171
12932;171171;34.80;073;03.38.21.171
12928;171162;34.80;074;03.38.21.171
12904;171167;34.80;075;03.38.21.291
12908;171166;34.80;076;03.38.21.291
12924;171173;34.80;077;03.38.21.291
12904;171171;34.80;078;03.38.21.291
12916;171172;34.80;079;03.38.21.291
12900;171178;34.80;080;03.38.21.291
12932;171173;34.80;081;03.38.21.291
12876;171177;34.80;082;03.38.21.291
12908;171174;34.80;083;03.38.21.291
12900;171184;34.80;084;03.38.21.291
12920;171182;34.80;085;03.38.21.291
12932;171176;34.80;086;03.38.21.291
12928;171184;34.80;087;03.38.21.291
12912;171175;34.80;088;03.38.21.302
12904;171182;34.80;089;03.38.21.302
12960;171188;34.80;090;03.38.21.302
12920;171181;34.80;091;03.38.21.302
12904;171189;34.80;092;03.38.21.302
12920;171189;34.80;093;03.38.21.302
12896;171180;34.80;094;03.38.21.302
12892;171185;34.80;095;03.38.21.302
12904;171192;34.80;096;03.38.21.302
12912;171185;34.80;097;03.38.21.302
12908;171181;34.80;098;03.38.21.302
12908;171182;34.80;099;03.38.21.302
12928;171186;34.80;100;03.38.21.401
12900;171174;34.80;101;03.38.21.401
12892;171174;34.80;102;03.38.21.401
12912;171172;34.80;103;03.38.21.401
12892;171165;34.80;104;03.38.21.401
12904;171169;34.80;105;03.38.21.401
12904;171160;34.80;106;03.38.21.401
12928;171150;34.80;107;03.38.21.401
12900;171142;34.80;108;03.38.21.412
12892;171146;34.80;109;03.38.21.412
12904;171144;34.80;110;03.38.21.412
12860;171142;34.80;111;03.38.21.412
12900;171133;34.80;112;03.38.21.412
12920;171129;34.80;113;03.38.21.412
12896;171125;34.80;114;03.38.21.412
12904;171116;34.80;115;03.38.21.412
12928;171116;34.80;116;03.38.21.412
12928;171106;34.80;117;03.38.21.412
12928;171113;34.80;118;03.38.21.423
12932;171105;34.80;119;03.38.21.423
12900;171104;34.80;120;03.38.21.423
12936;171103;34.80;121;03.38.21.423
12908;171100;34.80;122;03.38.21.423
12920;171102;34.80;123;03.38.21.423
12936;171103;34.80;124;03.38.21.423
12896;171090;34.84;125;03.38.21.521
12912;171101;34.84;126;03.38.21.521
12904;171095;34.84;127;03.38.21.521
12916;171098;34.84;128;03.38.21.521
12920;171091;34.84;129;03.38.21.521
12920;171094;34.84;130;03.38.21.521
12892;171091;34.84;131;03.38.21.532
12888;171091;34.84;132;03.38.21.532
12896;171090;34.84;133;03.38.21.532
12892;171083;34.84;134;03.38.21.532
12900;171089;34.84;135;03.38.21.532
12904;171087;34.84;136;03.38.21.532
12928;171097;34.84;137;03.38.21.532
12892;171091;34.84;138;03.38.21.532
12880;171085;34.84;139;03.38.21.532
12884;171093;34.84;140;03.38.21.532
12904;171079;34.84;141;03.38.21.532
12916;171083;34.84;142;03.38.21.532
12900;171092;34.84;143;03.38.21.532
12904;171088;34.84;144;03.38.21.543
12928;171093;34.84;145;03.38.21.543
12892;171088;34.84;146;03.38.21.543
12908;171094;34.84;147;03.38.21.543
12912;171084;34.84;148;03.38.21.543
12912;171093;34.84;149;03.38.21.543
12912;171088;34.84;150;03.38.21.642
12912;171092;34.84;151;03.38.21.642
12916;171089;34.84;152;03.38.21.653
12924;171097;34.84;153;03.38.21.653
12884;171094;34.84;154;03.38.21.653
12916;171093;34.84;155;03.38.21.653
12904;171096;34.84;156;03.38.21.653
12888;171100;34.84;157;03.38.21.653
12920;171096;34.84;158;03.38.21.653
12920;171105;34.84;159;03.38.21.653
12912;171106;34.84;160;03.38.21.653
12912;171102;34.84;161;03.38.21.653
12932;171100;34.84;162;03.38.21.653
12936;171106;34.84;163;03.38.21.653
12924;171103;34.84;164;03.38.21.653
12892;171107;34.84;165;03.38.21.664
12896;171109;34.84;166;03.38.21.664
12912;171111;34.84;167;03.38.21.664
12900;171100;34.84;168;03.38.21.664
12892;171104;34.84;169;03.38.21.664
12892;171103;34.84;170;03.38.21.664
12928;171111;34.84;171;03.38.21.664
12904;171093;34.84;172;03.38.21.664
12892;171106;34.84;173;03.38.21.664
12920;171105;34.84;174;03.38.21.664
12936;171108;34.84;175;03.38.21.784
12896;171100;34.84;176;03.38.21.784
12892;171105;34.84;177;03.38.21.784
12880;171105;34.84;178;03.38.21.784
12896;171107;34.84;179;03.38.21.784
12912;171102;34.84;180;03.38.21.784
12912;171106;34.84;181;03.38.21.784
12928;171112;34.84;182;03.38.21.784
12900;171105;34.84;183;03.38.21.784
12928;171112;34.84;184;03.38.21.784
12888;171111;34.84;185;03.38.21.784
12928;171109;34.84;186;03.38.21.795
12912;171115;34.84;187;03.38.21.795
12936;171106;34.84;188;03.38.21.795
12908;171123;34.84;189;03.38.21.795
12892;171119;34.84;190;03.38.21.795
12908;171124;34.84;191;03.38.21.795
12892;171121;34.84;192;03.38.21.795
12928;171120;34.84;193;03.38.21.795
12916;171122;34.84;194;03.38.21.795
12888;171130;34.84;195;03.38.21.795
12936;171131;34.84;196;03.38.21.795
12884;171117;34.84;197;03.38.21.795
12888;171119;34.84;198;03.38.21.795
12916;171123;34.84;199;03.38.21.806
12908;171128;34.84;200;03.38.21.916
12904;171136;34.84;201;03.38.21.916
12920;171135;34.84;202;03.38.21.916
12892;171125;34.84;203;03.38.21.916
12900;171134;34.84;204;03.38.21.916
12904;171141;34.84;205;03.38.21.916
12904;171127;34.84;206;03.38.21.916
12896;171142;34.84;207;03.38.21.927
12888;171148;34.84;208;03.38.21.927
12928;171147;34.84;209;03.38.21.927
12916;171139;34.84;210;03.38.21.927
12900;171150;34.84;211;03.38.21.927
12928;171148;34.84;212;03.38.21.927
12892;171143;34.84;213;03.38.21.927
12884;171153;34.84;214;03.38.21.927
12892;171149;34.84;215;03.38.21.927
12932;171148;34.84;216;03.38.21.927
12888;171154;34.84;217;03.38.21.927
12920;171150;34.84;218;03.38.21.927
12888;171157;34.84;219;03.38.21.927
12920;171159;34.84;220;03.38.21.938
12876;171161;34.84;221;03.38.21.938
12896;171168;34.84;222;03.38.21.938
12920;171162;34.84;223;03.38.21.938
12924;171167;34.84;224;03.38.21.938
12908;171174;34.84;225;03.38.22.026
12912;171160;34.84;226;03.38.22.026
12908;171172;34.84;227;03.38.22.026
12896;171178;34.84;228;03.38.22.026
12912;171177;34.84;229;03.38.22.026
12908;171182;34.84;230;03.38.22.037
12920;171179;34.84;231;03.38.22.037
12904;171177;34.84;232;03.38.22.037
12892;171178;34.84;233;03.38.22.037
12916;171176;34.84;234;03.38.22.037
12920;171178;34.84;235;03.38.22.037
12928;171184;34.84;236;03.38.22.048
12908;171179;34.84;237;03.38.22.048
12912;171186;34.84;238;03.38.22.048
12896;171190;34.84;239;03.38.22.048
12888;171193;34.84;240;03.38.22.048
12920;171189;34.84;241;03.38.22.048
12912;171189;34.84;242;03.38.22.059
12916;171201;34.84;243;03.38.22.059
12892;171196;34.84;244;03.38.22.059
12892;171197;34.84;245;03.38.22.059
12904;171197;34.84;246;03.38.22.059
12916;171196;34.84;247;03.38.22.070
12920;171197;34.84;248;03.38.22.070
12924;171183;34.84;249;03.38.22.070
12888;171188;34.84;250;03.38.22.146
12892;171183;34.84;251;03.38.22.157
12904;171181;34.84;252;03.38.22.157
12916;171172;34.84;253;03.38.22.157
12912;171172;34.84;254;03.38.22.157
12912;171166;34.84;255;03.38.22.157
12892;171168;34.84;256;03.38.22.157
12936;171165;34.84;257;03.38.22.157
12928;171162;34.84;258;03.38.22.157
12908;171163;34.84;259;03.38.22.157
12904;171155;34.84;260;03.38.22.157
12928;171149;34.84;261;03.38.22.157
12916;171156;34.84;262;03.38.22.157
12920;171146;34.84;263;03.38.22.168
12904;171147;34.84;264;03.38.22.168
12884;171134;34.84;265;03.38.22.168
12892;171126;34.84;266;03.38.22.168
12892;171141;34.84;267;03.38.22.201
12908;171121;34.84;268;03.38.22.201
12896;171134;34.84;269;03.38.22.201
12916;171132;34.84;270;03.38.22.201
12920;171123;34.84;271;03.38.22.201
12912;171134;34.84;272;03.38.22.201
12892;171123;34.84;273;03.38.22.201
12924;171132;34.84;274;03.38.22.201
12932;171126;34.84;275;03.38.22.278
12920;171127;34.84;276;03.38.22.278
12900;171124;34.84;277;03.38.22.278
12876;171119;34.84;278;03.38.22.278
12904;171132;34.84;279;03.38.22.278
12928;171127;34.84;280;03.38.22.278
12892;171137;34.84;281;03.38.22.278
12904;171137;34.84;282;03.38.22.278
12904;171128;34.84;283;03.38.22.278
12948;171129;34.84;284;03.38.22.278
12928;171130;34.84;285;03.38.22.289
12904;171125;34.84;286;03.38.22.289
12888;171124;34.84;287;03.38.22.289
12916;171126;34.84;288;03.38.22.289
12916;171122;34.84;289;03.38.22.289
12900;171123;34.84;290;03.38.22.289
12908;171128;34.84;291;03.38.22.289
12892;171126;34.84;292;03.38.22.289
12936;171128;34.84;293;03.38.22.289
12904;171129;34.84;294;03.38.22.289
12868;171128;34.84;295;03.38.22.289
12904;171132;34.84;296;03.38.22.289
12904;171140;34.84;297;03.38.22.289
12908;171148;34.84;298;03.38.22.300
12904;171138;34.84;299;03.38.22.300
12884;171135;34.84;300;03.38.22.453
12908;171135;34.84;301;03.38.22.453
12892;171140;34.84;302;03.38.22.453
12928;171134;34.84;303;03.38.22.464
12888;171141;34.84;304;03.38.22.464
12920;171143;34.84;305;03.38.22.464
12920;171144;34.84;306;03.38.22.464
12904;171141;34.84;307;03.38.22.464
12900;171138;34.84;308;03.38.22.464
12928;171136;34.84;309;03.38.22.464
12948;171140;34.84;310;03.38.22.464
12892;171139;34.84;311;03.38.22.464
12904;171146;34.84;312;03.38.22.464
12920;171144;34.84;313;03.38.22.464
12928;171140;34.84;314;03.38.22.464
12892;171138;34.84;315;03.38.22.464
12912;171149;34.84;316;03.38.22.475
12920;171146;34.84;317;03.38.22.475
12928;171144;34.84;318;03.38.22.475
12912;171138;34.84;319;03.38.22.475
12904;171131;34.84;320;03.38.22.475
12920;171147;34.84;321;03.38.22.475
12936;171146;34.84;322;03.38.22.475
12908;171139;34.84;323;03.38.22.475
12900;171138;34.84;324;03.38.22.475
12896;171143;34.84;325;03.38.22.518
12912;171141;34.84;326;03.38.22.518
12912;171143;34.84;327;03.38.22.530
12900;171147;34.84;328;03.38.22.530
12924;171145;34.84;329;03.38.22.530
12908;171151;34.84;330;03.38.22.530
12900;171143;34.84;331;03.38.22.530
12932;171147;34.84;332;03.38.22.530
12920;171142;34.84;333;03.38.22.541
12916;171152;34.84;334;03.38.22.541
12940;171145;34.84;335;03.38.22.552
12904;171149;34.84;336;03.38.22.552
12892;171142;34.84;337;03.38.22.552
12892;171156;34.84;338;03.38.22.552
12896;171158;34.84;339;03.38.22.552
12888;171151;34.84;340;03.38.22.552
12896;171148;34.84;341;03.38.22.552
12876;171155;34.84;342;03.38.22.552
12928;171154;34.84;343;03.38.22.552
12928;171158;34.84;344;03.38.22.552
12904;171158;34.84;345;03.38.22.563
12904;171157;34.84;346;03.38.22.563
12912;171169;34.84;347;03.38.22.563
12912;171156;34.84;348;03.38.22.563
12928;171163;34.84;349;03.38.22.563
12904;171161;34.84;350;03.38.22.661
12892;171169;34.84;351;03.38.22.661
12916;171175;34.84;352;03.38.22.661
12920;171173;34.84;353;03.38.22.661
12916;171174;34.84;354;03.38.22.661
12924;171168;34.84;355;03.38.22.661
12932;171177;34.84;356;03.38.22.661
12944;171178;34.84;357;03.38.22.661
12932;171174;34.84;358;03.38.22.672
12920;171175;34.84;359;03.38.22.672
12912;171185;34.84;360;03.38.22.672
12876;171178;34.84;361;03.38.22.672
12904;171189;34.84;362;03.38.22.672
12904;171189;34.84;363;03.38.22.672
12928;171188;34.84;364;03.38.22.672
12900;171192;34.84;365;03.38.22.672
12908;171183;34.84;366;03.38.22.672
12860;171190;34.84;367;03.38.22.672
12892;171189;34.84;368;03.38.22.683
12904;171205;34.84;369;03.38.22.683
12928;171203;34.84;370;03.38.22.683
12888;171203;34.84;371;03.38.22.683
12916;171204;34.84;372;03.38.22.683
12900;171199;34.84;373;03.38.22.683
12900;171204;34.84;374;03.38.22.683
12920;171201;34.84;375;03.38.22.782
12900;171205;34.84;376;03.38.22.782
12888;171215;34.84;377;03.38.22.782
12904;171206;34.84;378;03.38.22.782
12924;171218;34.84;379;03.38.22.782
12912;171215;34.84;380;03.38.22.782
12892;171220;34.84;381;03.38.22.793
12904;171219;34.84;382;03.38.22.793
12924;171223;34.84;383;03.38.22.793
12912;171224;34.84;384;03.38.22.793
12928;171230;34.84;385;03.38.22.793
12876;171232;34.84;386;03.38.22.793
12892;171235;34.84;387;03.38.22.793
12884;171218;34.84;388;03.38.22.793
12880;171211;34.84;389;03.38.22.793
12900;171220;34.84;390;03.38.22.804
12900;171219;34.84;391;03.38.22.804
12920;171222;34.84;392;03.38.22.815
12892;171216;34.84;393;03.38.22.815
12892;171215;34.84;394;03.38.22.815
12876;171217;34.84;395;03.38.22.815
12904;171206;34.84;396;03.38.22.815
12908;171204;34.84;397;03.38.22.815
12888;171193;34.84;398;03.38.22.815
12892;171203;34.84;399;03.38.22.826
12912;171191;34.84;400;03.38.22.902
12896;171192;34.84;401;03.38.22.902
12888;171182;34.84;402;03.38.22.902
12932;171191;34.84;403;03.38.22.913
12932;171174;34.84;404;03.38.22.913
12888;171178;34.84;405;03.38.22.913
12904;171165;34.84;406;03.38.22.913
12904;171167;34.84;407;03.38.22.913
12912;171173;34.84;408;03.38.22.913
12912;171160;34.84;409;03.38.22.913
12912;171159;34.84;410;03.38.22.913
12928;171151;34.84;411;03.38.22.913
12888;171156;34.84;412;03.38.22.913
12900;171153;34.84;413;03.38.22.913
12900;171155;34.84;414;03.38.22.913
12896;171153;34.84;415;03.38.22.913
12908;171159;34.84;416;03.38.22.914
12900;171155;34.84;417;03.38.22.925
12892;171149;34.84;418;03.38.22.925
12924;171151;34.84;419;03.38.22.925
12920;171153;34.84;420;03.38.22.925
12888;171151;34.84;421;03.38.22.925
12884;171158;34.84;422;03.38.22.925
12920;171162;34.84;423;03.38.22.925
12944;171159;34.84;424;03.38.22.925
12888;171155;34.80;425;03.38.23.046
12880;171156;34.80;426;03.38.23.046
12908;171159;34.80;427;03.38.23.046
12892;171164;34.80;428;03.38.23.046
12924;171156;34.80;429;03.38.23.046
12904;171156;34.80;430;03.38.23.046
12888;171149;34.80;431;03.38.23.046
12908;171158;34.80;432;03.38.23.046
12932;171152;34.80;433;03.38.23.046
12884;171165;34.80;434;03.38.23.046
12912;171164;34.80;435;03.38.23.046
12932;171163;34.80;436;03.38.23.046
12924;171173;34.80;437;03.38.23.046
12916;171170;34.80;438;03.38.23.057
12896;171166;34.80;439;03.38.23.057
12904;171167;34.80;440;03.38.23.057
12916;171173;34.80;441;03.38.23.057
12920;171175;34.80;442;03.38.23.057
12924;171175;34.80;443;03.38.23.057
12912;171173;34.80;444;03.38.23.057
12900;171172;34.80;445;03.38.23.057
12904;171174;34.80;446;03.38.23.057
12900;171167;34.80;447;03.38.23.057
12896;171175;34.80;448;03.38.23.057
12912;171185;34.80;449;03.38.23.057
12904;171176;34.80;450;03.38.23.156
12888;171180;34.80;451;03.38.23.156
12904;171175;34.80;452;03.38.23.156
12916;171174;34.80;453;03.38.23.156
12928;171167;34.80;454;03.38.23.156
12892;171168;34.80;455;03.38.23.156
12896;171174;34.80;456;03.38.23.156
12888;171169;34.80;457;03.38.23.156
12900;171169;34.80;458;03.38.23.189
12928;171164;34.80;459;03.38.23.189
12896;171171;34.80;460;03.38.23.189
12876;171174;34.80;461;03.38.23.189
12892;171180;34.80;462;03.38.23.189
12912;171166;34.80;463;03.38.23.189
12928;171171;34.80;464;03.38.23.189
12904;171174;34.80;465;03.38.23.189
12892;171169;34.80;466;03.38.23.189
12892;171171;34.80;467;03.38.23.189
12904;171169;34.80;468;03.38.23.200
12928;171172;34.80;469;03.38.23.200
12888;171176;34.80;470;03.38.23.200
12920;171168;34.80;471;03.38.23.200
12908;171175;34.80;472;03.38.23.200
12888;171185;34.80;473;03.38.23.200
12888;171179;34.80;474;03.38.23.200
12860;171177;34.80;475;03.38.23.276
12892;171172;34.80;476;03.38.23.276
12932;171186;34.80;477;03.38.23.276
12904;171186;34.80;478;03.38.23.276
12908;171184;34.80;479;03.38.23.276
12888;171186;34.80;480;03.38.23.276
12892;171188;34.80;481;03.38.23.276
12920;171191;34.80;482;03.38.23.287
12920;171184;34.80;483;03.38.23.287
12904;171182;34.80;484;03.38.23.287
12904;171199;34.80;485;03.38.23.287
12900;171185;34.80;486;03.38.23.287
12916;171194;34.80;487;03.38.23.287
12904;171194;34.80;488;03.38.23.287
12908;171197;34.80;489;03.38.23.287
12936;171188;34.80;490;03.38.23.287
12928;171190;34.80;491;03.38.23.287
12892;171189;34.80;492;03.38.23.298
12888;171192;34.80;493;03.38.23.298
12908;171195;34.80;494;03.38.23.298
12888;171194;34.80;495;03.38.23.298
12908;171194;34.80;496;03.38.23.298
12888;171201;34.80;497;03.38.23.298
12936;171194;34.80;498;03.38.23.298
12908;171205;34.80;499;03.38.23.309
12916;171203;34.80;500;03.38.23.419
12896;171202;34.80;501;03.38.23.419
12896;171200;34.80;502;03.38.23.430
12900;171209;34.80;503;03.38.23.430
12928;171210;34.80;504;03.38.23.430
12892;171208;34.80;505;03.38.23.430
12900;171216;34.80;506;03.38.23.430
12932;171214;34.80;507;03.38.23.430
12884;171221;34.80;508;03.38.23.430
12932;171216;34.80;509;03.38.23.430
12892;171217;34.80;510;03.38.23.430
12876;171217;34.80;511;03.38.23.441
12904;171221;34.80;512;03.38.23.441
12896;171223;34.80;513;03.38.23.441
12912;171218;34.80;514;03.38.23.441
12888;171223;34.80;515;03.38.23.441
12892;171223;34.80;516;03.38.23.441
12912;171225;34.80;517;03.38.23.463
12904;171229;34.80;518;03.38.23.474
12908;171230;34.80;519;03.38.23.474
12908;171230;34.80;520;03.38.23.474
12916;171233;34.80;521;03.38.23.474
12908;171217;34.80;522;03.38.23.474
12892;171233;34.80;523;03.38.23.474
12928;171232;34.80;524;03.38.23.474
12888;171226;34.80;525;03.38.23.529
12900;171220;34.80;526;03.38.23.529
12920;171219;34.80;527;03.38.23.529
12912;171215;34.80;528;03.38.23.529
12908;171216;34.80;529;03.38.23.529
12900;171205;34.80;530;03.38.23.529
12912;171203;34.80;531;03.38.23.529
12924;171207;34.80;532;03.38.23.529
12928;171203;34.80;533;03.38.23.540
12928;171198;34.80;534;03.38.23.540
12920;171195;34.80;535;03.38.23.540
12912;171186;34.80;536;03.38.23.540
12928;171181;34.80;537;03.38.23.540
12912;171176;34.80;538;03.38.23.540
12892;171174;34.80;539;03.38.23.540
12900;171172;34.80;540;03.38.23.540
12944;171163;34.80;541;03.38.23.540
12908;171159;34.80;542;03.38.23.540
12912;171161;34.80;543;03.38.23.551
12928;171153;34.80;544;03.38.23.551
12928;171150;34.80;545;03.38.23.551
12892;171152;34.80;546;03.38.23.551
12888;171137;34.80;547;03.38.23.551
12896;171144;34.80;548;03.38.23.551
12944;171136;34.80;549;03.38.23.551
12912;171139;34.80;550;03.38.23.682
12936;171131;34.80;551;03.38.23.682
12904;171133;34.80;552;03.38.23.682
12900;171139;34.80;553;03.38.23.682
12912;171136;34.80;554;03.38.23.682
12916;171136;34.80;555;03.38.23.682
12892;171145;34.80;556;03.38.23.682
12924;171139;34.80;557;03.38.23.682
12912;171138;34.80;558;03.38.23.682
12892;171136;34.80;559;03.38.23.693
12908;171128;34.80;560;03.38.23.693
12892;171137;34.80;561;03.38.23.693
12896;171142;34.80;562;03.38.23.693
12896;171139;34.80;563;03.38.23.693
12904;171144;34.80;564;03.38.23.693
12884;171136;34.80;565;03.38.23.693
12920;171135;34.80;566;03.38.23.693
12908;171136;34.80;567;03.38.23.693
12880;171135;34.80;568;03.38.23.693
12888;171145;34.80;569;03.38.23.693
12896;171143;34.80;570;03.38.23.693
12876;171143;34.80;571;03.38.23.704
12916;171142;34.80;572;03.38.23.704
12896;171143;34.80;573;03.38.23.704
12876;171140;34.80;574;03.38.23.704
12912;171140;34.84;575;03.38.23.770
12872;171148;34.84;576;03.38.23.770
12904;171150;34.84;577;03.38.23.770
12904;171146;34.84;578;03.38.23.770
12884;171145;34.84;579;03.38.23.781
12944;171146;34.84;580;03.38.23.781
12896;171134;34.84;581;03.38.23.781
12912;171149;34.84;582;03.38.23.781
12904;171137;34.84;583;03.38.23.781
12896;171152;34.84;584;03.38.23.781
12928;171142;34.84;585;03.38.23.781
12916;171138;34.84;586;03.38.23.781
12884;171134;34.84;587;03.38.23.781
12928;171138;34.84;588;03.38.23.781
12912;171140;34.84;589;03.38.23.781
12916;171141;34.84;590;03.38.23.781
12884;171143;34.84;591;03.38.23.781
12904;171137;34.84;592;03.38.23.781
12900;171142;34.84;593;03.38.23.792
12888;171130;34.84;594;03.38.23.792
12912;171134;34.84;595;03.38.23.792
12928;171137;34.84;596;03.38.23.792
12912;171142;34.84;597;03.38.23.792
12908;171130;34.84;598;03.38.23.792
12944;171130;34.84;599;03.38.23.792
12892;171139;34.84;600;03.38.23.913
12876;171135;34.84;601;03.38.23.913
12924;171133;34.84;602;03.38.23.913
12904;171128;34.84;603;03.38.23.913
12912;171136;34.84;604;03.38.23.913
12872;171133;34.84;605;03.38.23.913
12916;171134;34.84;606;03.38.23.913
12888;171130;34.84;607;03.38.23.913
12896;171131;34.84;608;03.38.23.913
12900;171133;34.84;609;03.38.23.913
12908;171141;34.84;610;03.38.23.913
12908;171136;34.84;611;03.38.23.913
12904;171136;34.84;612;03.38.23.913
12892;171134;34.84;613;03.38.23.913
12900;171135;34.84;614;03.38.23.924
12892;171139;34.84;615;03.38.23.924
12904;171138;34.84;616;03.38.23.924
12916;171138;34.84;617;03.38.23.924
12908;171131;34.84;618;03.38.23.924
12928;171138;34.84;619;03.38.23.924
12904;171135;34.84;620;03.38.23.924
12888;171147;34.84;621;03.38.23.924
12872;171143;34.84;622;03.38.23.924
12892;171143;34.84;623;03.38.23.924
12936;171141;34.84;624;03.38.23.924
12920;171145;34.84;625;03.38.24.044
12876;171142;34.84;626;03.38.24.044
12884;171143;34.84;627;03.38.24.044
12896;171146;34.84;628;03.38.24.044
12904;171151;34.84;629;03.38.24.044
12900;171151;34.84;630;03.38.24.044
12928;171153;34.84;631;03.38.24.044
12912;171147;34.84;632;03.38.24.044
12896;171164;34.84;633;03.38.24.055
12900;171152;34.84;634;03.38.24.055
12904;171153;34.84;635;03.38.24.055
12928;171158;34.84;636;03.38.24.055
12912;171159;34.84;637;03.38.24.055
12916;171162;34.84;638;03.38.24.055
12920;171164;34.84;639;03.38.24.055
12884;171163;34.84;640;03.38.24.055
12900;171167;34.84;641;03.38.24.055
12936;171163;34.84;642;03.38.24.088
12904;171163;34.84;643;03.38.24.088
12884;171173;34.84;644;03.38.24.088
12888;171171;34.84;645;03.38.24.088
12896;171168;34.84;646;03.38.24.088
12916;171175;34.84;647;03.38.24.088
12900;171177;34.84;648;03.38.24.088
12888;171181;34.84;649;03.38.24.088
12936;171176;34.84;650;03.38.24.176
12884;171175;34.84;651;03.38.24.176
12912;171177;34.84;652;03.38.24.176
12888;171179;34.84;653;03.38.24.176
12936;171178;34.84;654;03.38.24.176
12908;171191;34.84;655;03.38.24.176
12928;171173;34.84;656;03.38.24.176
12892;171191;34.84;657;03.38.24.188
12884;171182;34.84;658;03.38.24.188
12924;171180;34.84;659;03.38.24.188
12892;171178;34.84;660;03.38.24.188
12884;171168;34.84;661;03.38.24.188
12916;171177;34.84;662;03.38.24.188
12896;171179;34.84;663;03.38.24.188
12892;171170;34.84;664;03.38.24.188
12916;171168;34.84;665;03.38.24.188
12892;171160;34.84;666;03.38.24.188
12904;171150;34.84;667;03.38.24.188
12896;171154;34.84;668;03.38.24.188
12920;171146;34.84;669;03.38.24.188
12916;171143;34.84;670;03.38.24.199
12944;171138;34.84;671;03.38.24.199
12888;171135;34.84;672;03.38.24.199
12912;171135;34.84;673;03.38.24.199
12920;171125;34.84;674;03.38.24.199
12916;171123;34.84;675;03.38.24.276
12916;171117;34.84;676;03.38.24.276
12892;171113;34.84;677;03.38.24.276
12928;171101;34.84;678;03.38.24.276
12944;171102;34.84;679;03.38.24.287
12900;171097;34.84;680;03.38.24.287
12928;171099;34.84;681;03.38.24.287
12912;171091;34.84;682;03.38.24.287
12912;171087;34.84;683;03.38.24.309
12924;171083;34.84;684;03.38.24.309
12888;171089;34.84;685;03.38.24.309
12908;171090;34.84;686;03.38.24.309
12908;171083;34.84;687;03.38.24.309
12876;171071;34.84;688;03.38.24.320
12912;171079;34.84;689;03.38.24.320
12920;171078;34.84;690;03.38.24.320
12908;171068;34.84;691;03.38.24.320
12928;171081;34.84;692;03.38.24.320
12896;171075;34.84;693;03.38.24.320
12884;171072;34.84;694;03.38.24.320
12920;171073;34.84;695;03.38.24.320
12912;171069;34.84;696;03.38.24.320
12896;171070;34.84;697;03.38.24.320
12916;171078;34.84;698;03.38.24.320
12932;171082;34.84;699;03.38.24.320
12892;171065;34.84;700;03.38.24.406
12892;171075;34.84;701;03.38.24.406
12928;171085;34.84;702;03.38.24.406
12904;171067;34.84;703;03.38.24.406
12896;171073;34.84;704;03.38.24.406
12900;171079;34.84;705;03.38.24.406
12912;171078;34.84;706;03.38.24.406
12892;171068;34.84;707;03.38.24.406
12892;171069;34.84;708;03.38.24.406
12892;171074;34.84;709;03.38.24.406
12928;171077;34.84;710;03.38.24.406
12896;171067;34.84;711;03.38.24.406
12908;171076;34.84;712;03.38.24.417
12932;171078;34.84;713;03.38.24.417
12884;171081;34.84;714;03.38.24.417
12928;171080;34.84;715;03.38.24.417
12916;171081;34.84;716;03.38.24.417
12920;171080;34.84;717;03.38.24.428
12904;171088;34.84;718;03.38.24.428
12920;171087;34.84;719;03.38.24.428
12892;171088;34.84;720;03.38.24.428
12912;171085;34.84;721;03.38.24.428
12916;171082;34.84;722;03.38.24.428
12896;171080;34.84;723;03.38.24.428
12928;171088;34.84;724;03.38.24.428
12912;171088;34.84;725;03.38.24.538
12916;171081;34.84;726;03.38.24.538
12928;171082;34.84;727;03.38.24.538
12928;171071;34.84;728;03.38.24.538
12884;171081;34.84;729;03.38.24.538
12896;171066;34.84;730;03.38.24.538
12908;171075;34.84;731;03.38.24.538
12888;171066;34.84;732;03.38.24.538
12908;171080;34.84;733;03.38.24.548
12928;171080;34.84;734;03.38.24.548
12904;171079;34.84;735;03.38.24.548
12920;171070;34.84;736;03.38.24.548
12884;171084;34.84;737;03.38.24.548
12888;171084;34.84;738;03.38.24.548
12936;171074;34.84;739;03.38.24.548
12928;171076;34.84;740;03.38.24.548
12920;171078;34.84;741;03.38.24.548
12912;171081;34.84;742;03.38.24.548
12908;171080;34.84;743;03.38.24.548
12916;171075;34.84;744;03.38.24.548
12944;171081;34.84;745;03.38.24.548
12908;171088;34.84;746;03.38.24.559
12892;171078;34.84;747;03.38.24.559
12920;171081;34.84;748;03.38.24.559
12904;171081;34.84;749;03.38.24.559
12892;171082;34.84;750;03.38.24.647
12916;171082;34.84;751;03.38.24.647
12916;171091;34.84;752;03.38.24.647
12884;171093;34.84;753;03.38.24.647
12912;171079;34.84;754;03.38.24.658
12916;171087;34.84;755;03.38.24.658
12904;171091;34.84;756;03.38.24.658
12920;171092;34.84;757;03.38.24.658
12912;171086;34.84;758;03.38.24.669
12892;171088;34.84;759;03.38.24.669
12912;171093;34.84;760;03.38.24.669
12900;171092;34.84;761;03.38.24.669
12912;171102;34.84;762;03.38.24.680
12892;171097;34.84;763;03.38.24.680
12880;171094;34.84;764;03.38.24.680
12904;171105;34.84;765;03.38.24.680
12916;171094;34.84;766;03.38.24.680
12928;171104;34.84;767;03.38.24.680
12916;171104;34.84;768;03.38.24.680
12888;171106;34.84;769;03.38.24.680
12900;171107;34.84;770;03.38.24.680
12928;171106;34.84;771;03.38.24.680
12928;171107;34.84;772;03.38.24.680
12888;171112;34.84;773;03.38.24.680
12928;171125;34.84;774;03.38.24.680
12900;171120;34.80;775;03.38.24.779
12908;171117;34.80;776;03.38.24.790
12888;171115;34.80;777;03.38.24.790
12916;171121;34.80;778;03.38.24.790
12904;171124;34.80;779;03.38.24.790
12916;171130;34.80;780;03.38.24.790
12892;171127;34.80;781;03.38.24.790
12960;171121;34.80;782;03.38.24.790
12916;171126;34.80;783;03.38.24.800
12908;171124;34.80;784;03.38.24.800
12896;171128;34.80;785;03.38.24.800
12900;171130;34.80;786;03.38.24.800
12888;171134;34.80;787;03.38.24.800
12892;171139;34.80;788;03.38.24.800
12928;171126;34.80;789;03.38.24.800
12876;171137;34.80;790;03.38.24.800
12912;171142;34.80;791;03.38.24.800
12916;171136;34.80;792;03.38.24.800
12920;171148;34.80;793;03.38.24.800
12904;171142;34.80;794;03.38.24.800
12892;171147;34.80;795;03.38.24.811
12892;171146;34.80;796;03.38.24.811
12900;171147;34.80;797;03.38.24.811
12924;171154;34.80;798;03.38.24.811
12896;171150;34.80;799;03.38.24.811
12900;171158;34.80;800;03.38.24.900
12904;171153;34.80;801;03.38.24.900
12908;171158;34.80;802;03.38.24.900
12920;171156;34.80;803;03.38.24.900
12932;171163;34.80;804;03.38.24.900
12924;171158;34.80;805;03.38.24.900
12912;171159;34.80;806;03.38.24.900
12912;171160;34.80;807;03.38.24.900
12896;171167;34.80;808;03.38.24.900
12936;171166;34.80;809;03.38.24.900
12928;171156;34.80;810;03.38.24.900
12884;171167;34.80;811;03.38.24.911
12912;171163;34.80;812;03.38.24.911
12916;171153;34.80;813;03.38.24.911
12876;171154;34.80;814;03.38.24.911
12880;171146;34.80;815;03.38.24.911
12908;171149;34.80;816;03.38.24.911
12928;171142;34.80;817;03.38.24.911
12904;171138;34.80;818;03.38.24.911
12900;171141;34.80;819;03.38.24.911
12928;171140;34.80;820;03.38.24.911
12888;171130;34.80;821;03.38.24.911
12900;171120;34.80;822;03.38.24.911
12912;171118;34.80;823;03.38.24.911
12928;171110;34.80;824;03.38.24.922
12928;171107;34.80;825;03.38.25.032
12928;171100;34.80;826;03.38.25.032
12904;171087;34.80;827;03.38.25.032
12908;171096;34.80;828;03.38.25.032
12908;171090;34.80;829;03.38.25.032
12888;171086;34.80;830;03.38.25.032
12928;171084;34.80;831;03.38.25.032
12896;171077;34.80;832;03.38.25.043
12884;171077;34.80;833;03.38.25.043
12904;171078;34.80;834;03.38.25.043
12928;171073;34.80;835;03.38.25.043
12928;171081;34.80;836;03.38.25.043
12920;171074;34.80;837;03.38.25.043
12892;171070;34.80;838;03.38.25.043
12916;171063;34.80;839;03.38.25.043
12928;171064;34.80;840;03.38.25.043
12908;171070;34.80;841;03.38.25.043
12908;171066;34.80;842;03.38.25.043
12912;171067;34.80;843;03.38.25.043
12904;171067;34.80;844;03.38.25.043
12928;171060;34.80;845;03.38.25.054
12924;171057;34.80;846;03.38.25.054
12892;171065;34.80;847;03.38.25.054
12892;171069;34.80;848;03.38.25.054
12936;171055;34.80;849;03.38.25.054
12892;171056;34.80;850;03.38.25.174
12884;171060;34.80;851;03.38.25.174
12920;171055;34.80;852;03.38.25.184
12920;171050;34.80;853;03.38.25.184
12880;171050;34.80;854;03.38.25.184
12912;171053;34.80;855;03.38.25.184
12884;171053;34.80;856;03.38.25.184
12904;171059;34.80;857;03.38.25.184
12892;171054;34.80;858;03.38.25.184
12908;171051;34.80;859;03.38.25.184
12932;171053;34.80;860;03.38.25.184
12896;171060;34.80;861;03.38.25.184
12920;171054;34.80;862;03.38.25.184
12888;171051;34.80;863;03.38.25.184
12916;171056;34.80;864;03.38.25.184
12876;171059;34.80;865;03.38.25.195
12896;171049;34.80;866;03.38.25.195
12904;171056;34.80;867;03.38.25.195
12888;171061;34.80;868;03.38.25.195
12892;171068;34.80;869;03.38.25.195
12880;171061;34.80;870;03.38.25.195
12900;171070;34.80;871;03.38.25.195
12892;171060;34.80;872;03.38.25.195
12872;171068;34.80;873;03.38.25.195
12928;171062;34.80;874;03.38.25.195
12880;171064;34.84;875;03.38.25.305
12888;171064;34.84;876;03.38.25.305
12928;171065;34.84;877;03.38.25.305
12908;171059;34.84;878;03.38.25.305
12892;171059;34.84;879;03.38.25.305
12916;171063;34.84;880;03.38.25.305
12896;171066;34.84;881;03.38.25.305
12912;171061;34.84;882;03.38.25.305
12900;171061;34.84;883;03.38.25.305
12920;171059;34.84;884;03.38.25.305
12920;171064;34.84;885;03.38.25.305
12928;171069;34.84;886;03.38.25.317
12900;171065;34.84;887;03.38.25.317
12892;171067;34.84;888;03.38.25.317
12908;171062;34.84;889;03.38.25.317
12920;171053;34.84;890;03.38.25.317
12928;171068;34.84;891;03.38.25.317
12908;171062;34.84;892;03.38.25.317
12900;171072;34.84;893;03.38.25.317
12928;171069;34.84;894;03.38.25.317
12904;171067;34.84;895;03.38.25.317
12908;171068;34.84;896;03.38.25.317
12912;171072;34.84;897;03.38.25.317
12952;171078;34.84;898;03.38.25.317
12916;171066;34.84;899;03.38.25.317
12900;171072;34.84;900;03.38.25.405
12920;171065;34.84;901;03.38.25.405
12912;171076;34.84;902;03.38.25.405
12916;171067;34.84;903;03.38.25.405
12912;171079;34.84;904;03.38.25.405
12912;171075;34.84;905;03.38.25.405
12904;171081;34.84;906;03.38.25.405
12932;171085;34.84;907;03.38.25.405
12912;171080;34.84;908;03.38.25.416
12912;171081;34.84;909;03.38.25.416
12928;171087;34.84;910;03.38.25.416
12928;171073;34.84;911;03.38.25.416
12912;171095;34.84;912;03.38.25.416
12908;171089;34.84;913;03.38.25.416
12896;171085;34.84;914;03.38.25.416
12908;171087;34.84;915;03.38.25.416
12928;171093;34.84;916;03.38.25.416
12900;171090;34.84;917;03.38.25.449
12924;171083;34.84;918;03.38.25.449
12892;171095;34.84;919;03.38.25.449
12928;171090;34.84;920;03.38.25.449
12892;171098;34.84;921;03.38.25.449
12916;171093;34.84;922;03.38.25.449
12936;171100;34.84;923;03.38.25.449
12928;171103;34.84;924;03.38.25.449
12896;171110;34.80;925;03.38.25.525
12900;171112;34.80;926;03.38.25.525
12904;171107;34.80;927;03.38.25.525
12908;171117;34.80;928;03.38.25.525
12928;171111;34.80;929;03.38.25.525
12908;171110;34.80;930;03.38.25.526
12916;171115;34.80;931;03.38.25.537
12920;171123;34.80;932;03.38.25.537
12908;171120;34.80;933;03.38.25.537
12884;171116;34.80;934;03.38.25.537
12892;171118;34.80;935;03.38.25.537
12904;171110;34.80;936;03.38.25.537
12884;171123;34.80;937;03.38.25.537
12928;171125;34.80;938;03.38.25.537
12916;171120;34.80;939;03.38.25.537
12860;171122;34.80;940;03.38.25.537
12916;171124;34.80;941;03.38.25.537
12904;171128;34.80;942;03.38.25.537
12876;171128;34.80;943;03.38.25.537
12936;171126;34.80;944;03.38.25.548
12932;171131;34.80;945;03.38.25.548
12908;171131;34.80;946;03.38.25.548
12920;171135;34.80;947;03.38.25.548
12916;171138;34.80;948;03.38.25.548
12924;171141;34.80;949;03.38.25.548
12900;171141;34.80;950;03.38.25.667
12908;171137;34.80;951;03.38.25.667
12904;171144;34.80;952;03.38.25.667
12908;171139;34.80;953;03.38.25.667
12908;171149;34.80;954;03.38.25.667
12900;171144;34.80;955;03.38.25.667
12884;171153;34.80;956;03.38.25.667
12916;171142;34.80;957;03.38.25.667
12928;171146;34.80;958;03.38.25.667
12868;171149;34.80;959;03.38.25.667
12892;171146;34.80;960;03.38.25.667
12900;171149;34.80;961;03.38.25.667
12900;171152;34.80;962;03.38.25.667
12904;171151;34.80;963;03.38.25.678
12916;171154;34.80;964;03.38.25.678
12916;171163;34.80;965;03.38.25.678
12908;171159;34.80;966;03.38.25.678
12908;171170;34.80;967;03.38.25.678
12928;171169;34.80;968;03.38.25.678
12928;171162;34.80;969;03.38.25.678
12912;171164;34.80;970;03.38.25.678
12928;171172;34.80;971;03.38.25.678
12892;171170;34.80;972;03.38.25.678
12904;171163;34.80;973;03.38.25.678
12936;171178;34.80;974;03.38.25.678
12928;171172;34.84;975;03.38.25.777
12912;171180;34.84;976;03.38.25.777
12908;171173;34.84;977;03.38.25.777
12920;171174;34.84;978;03.38.25.777
12904;171169;34.84;979;03.38.25.777
12908;171165;34.84;980;03.38.25.777
12912;171162;34.84;981;03.38.25.777
12900;171164;34.84;982;03.38.25.777
12920;171161;34.84;983;03.38.25.788
12884;171161;34.84;984;03.38.25.788
12928;171158;34.84;985;03.38.25.788
12928;171151;34.84;986;03.38.25.788
12916;171143;34.84;987;03.38.25.788
12928;171136;34.84;988;03.38.25.788
12904;171134;34.84;989;03.38.25.788
12884;171131;34.84;990;03.38.25.788
12904;171125;34.84;991;03.38.25.788
12884;171122;34.84;992;03.38.25.788
12904;171118;34.84;993;03.38.25.799
12892;171109;34.84;994;03.38.25.799
12928;171104;34.84;995;03.38.25.799
12900;171111;34.84;996;03.38.25.799
12904;171100;34.84;997;03.38.25.799
12892;171088;34.84;998;03.38.25.799
12892;171089;34.84;999;03.38.25.799
12888;171085;34.84;000;03.38.25.898
12912;171097;34.84;001;03.38.25.898
12896;171093;34.84;002;03.38.25.898
12924;171083;34.84;003;03.38.25.898
12908;171093;34.84;004;03.38.25.898
12948;171087;34.84;005;03.38.25.908
12916;171080;34.84;006;03.38.25.908
12924;171091;34.84;007;03.38.25.908
12936;171085;34.84;008;03.38.25.919
12920;171083;34.84;009;03.38.25.919
12928;171089;34.84;010;03.38.25.919
12900;171089;34.84;011;03.38.25.919
12912;171084;34.84;012;03.38.25.919
12908;171081;34.84;013;03.38.25.930
12912;171085;34.84;014;03.38.25.930
12892;171072;34.84;015;03.38.25.930
12912;171080;34.84;016;03.38.25.930
12904;171074;34.84;017;03.38.25.930
12904;171072;34.84;018;03.38.25.930
12888;171082;34.84;019;03.38.25.930
12924;171080;34.84;020;03.38.25.930
12912;171077;34.84;021;03.38.25.930
12892;171084;34.84;022;03.38.25.930
12912;171079;34.84;023;03.38.25.930
12876;171078;34.84;024;03.38.25.930
12896;171080;34.84;025;03.38.26.029
12896;171078;34.84;026;03.38.26.029
12896;171079;34.84;027;03.38.26.040
12888;171079;34.84;028;03.38.26.040
12908;171083;34.84;029;03.38.26.040
12892;171085;34.84;030;03.38.26.040
12908;171085;34.84;031;03.38.26.040
12928;171081;34.84;032;03.38.26.040
12928;171086;34.84;033;03.38.26.040
12896;171090;34.84;034;03.38.26.040
12908;171086;34.84;035;03.38.26.040
12884;171086;34.84;036;03.38.26.040
12860;171084;34.84;037;03.38.26.040
12908;171093;34.84;038;03.38.26.040
12908;171086;34.84;039;03.38.26.040
12900;171099;34.84;040;03.38.26.051
12928;171086;34.84;041;03.38.26.051
12900;171096;34.84;042;03.38.26.062
12904;171085;34.84;043;03.38.26.062
12916;171083;34.84;044;03.38.26.062
12896;171087;34.84;045;03.38.26.073
12928;171090;34.84;046;03.38.26.073
12928;171098;34.84;047;03.38.26.073
12908;171094;34.84;048;03.38.26.073
12932;171093;34.84;049;03.38.26.073
12888;171086;34.84;050;03.38.26.160
12880;171087;34.84;051;03.38.26.160
12892;171097;34.84;052;03.38.26.160
12896;171096;34.84;053;03.38.26.160
12912;171096;34.84;054;03.38.26.160
12924;171094;34.84;055;03.38.26.160
12912;171089;34.84;056;03.38.26.160
12892;171093;34.84;057;03.38.26.160
12888;171091;34.84;058;03.38.26.160
12912;171100;34.84;059;03.38.26.160
12896;171097;34.84;060;03.38.26.160
12904;171098;34.84;061;03.38.26.171
12916;171099;34.84;062;03.38.26.171
12900;171105;34.84;063;03.38.26.171
12920;171098;34.84;064;03.38.26.171
12888;171094;34.84;065;03.38.26.171
12928;171104;34.84;066;03.38.26.171
12884;171103;34.84;067;03.38.26.171
12908;171098;34.84;068;03.38.26.171
12876;171103;34.84;069;03.38.26.171
12904;171099;34.84;070;03.38.26.171
12892;171092;34.84;071;03.38.26.171
12900;171105;34.84;072;03.38.26.171
12924;171099;34.84;073;03.38.26.171
12936;171105;34.84;074;03.38.26.182
12896;171108;34.84;075;03.38.26.292
12920;171109;34.84;076;03.38.26.292
12896;171108;34.84;077;03.38.26.292
12884;171115;34.84;078;03.38.26.292
12908;171119;34.84;079;03.38.26.292
12912;171120;34.84;080;03.38.26.292
12896;171124;34.84;081;03.38.26.292
12904;171125;34.84;082;03.38.26.303
12920;171116;34.84;083;03.38.26.303
12904;171119;34.84;084;03.38.26.303
12912;171127;34.84;085;03.38.26.303
12892;171131;34.84;086;03.38.26.303
12924;171124;34.84;087;03.38.26.303
12932;171124;34.84;088;03.38.26.303
12888;171132;34.84;089;03.38.26.303
12928;171131;34.84;090;03.38.26.303
12892;171126;34.84;091;03.38.26.303
12928;171135;34.84;092;03.38.26.303
12904;171131;34.84;093;03.38.26.303
12912;171143;34.84;094;03.38.26.303
12896;171140;34.84;095;03.38.26.314
12904;171142;34.84;096;03.38.26.314
12896;171137;34.84;097;03.38.26.314
12920;171143;34.84;098;03.38.26.314
12904;171145;34.84;099;03.38.26.314
12900;171145;34.84;100;03.38.26.401
12908;171148;34.84;101;03.38.26.401
12904;171151;34.84;102;03.38.26.401
12908;171153;34.84;103;03.38.26.412
12928;171159;34.84;104;03.38.26.412
12876;171151;34.84;105;03.38.26.412
12912;171151;34.84;106;03.38.26.412
12908;171151;34.84;107;03.38.26.412
12928;171164;34.84;108;03.38.26.412
12916;171160;34.84;109;03.38.26.412
12896;171161;34.84;110;03.38.26.412
12936;171164;34.84;111;03.38.26.412
12912;171168;34.84;112;03.38.26.423
12908;171172;34.84;113;03.38.26.423
12928;171167;34.84;114;03.38.26.423
12908;171175;34.84;115;03.38.26.423
12908;171183;34.84;116;03.38.26.423
12900;171181;34.84;117;03.38.26.434
12932;171182;34.84;118;03.38.26.434
12928;171189;34.84;119;03.38.26.434
12908;171185;34.84;120;03.38.26.445
12896;171190;34.84;121;03.38.26.445
12908;171182;34.84;122;03.38.26.445
12896;171183;34.84;123;03.38.26.445
12928;171188;34.84;124;03.38.26.445
12884;171195;34.84;125;03.38.26.566
12896;171193;34.84;126;03.38.26.566
12908;171201;34.84;127;03.38.26.566
12928;171200;34.84;128;03.38.26.566
12904;171205;34.84;129;03.38.26.566
12908;171203;34.84;130;03.38.26.566
12908;171200;34.84;131;03.38.26.566
12888;171209;34.84;132;03.38.26.566
12896;171203;34.84;133;03.38.26.566
12896;171207;34.84;134;03.38.26.566
12916;171211;34.84;135;03.38.26.566
12908;171210;34.84;136;03.38.26.577
12900;171208;34.84;137;03.38.26.577
12892;171221;34.84;138;03.38.26.577
12900;171222;34.84;139;03.38.26.577
12928;171210;34.84;140;03.38.26.577
12904;171213;34.84;141;03.38.26.577
12928;171219;34.84;142;03.38.26.577
12892;171223;34.84;143;03.38.26.577
12876;171226;34.84;144;03.38.26.577
12860;171226;34.84;145;03.38.26.577
12904;171223;34.84;146;03.38.26.577
12892;171225;34.84;147;03.38.26.577
12892;171233;34.84;148;03.38.26.577
12920;171222;34.84;149;03.38.26.588
12884;171222;34.84;150;03.38.26.654
12904;171227;34.84;151;03.38.26.654
12916;171217;34.84;152;03.38.26.654
12900;171213;34.84;153;03.38.26.654
12892;171211;34.84;154;03.38.26.654
12896;171204;34.84;155;03.38.26.654
12884;171203;34.84;156;03.38.26.654
12936;171192;34.84;157;03.38.26.654
12912;171188;34.84;158;03.38.26.665
12892;171175;34.84;159;03.38.26.665
12920;171177;34.84;160;03.38.26.665
12936;171173;34.84;161;03.38.26.665
12928;171176;34.84;162;03.38.26.665
12928;171164;34.84;163;03.38.26.665
12904;171163;34.84;164;03.38.26.665
12904;171162;34.84;165;03.38.26.665
12908;171159;34.84;166;03.38.26.665
12912;171159;34.84;167;03.38.26.665
12912;171148;34.84;168;03.38.26.665
12916;171159;34.84;169;03.38.26.665
12928;171154;34.84;170;03.38.26.665
12908;171163;34.84;171;03.38.26.665
12916;171150;34.84;172;03.38.26.676
12928;171156;34.84;173;03.38.26.676
12920;171156;34.84;174;03.38.26.676
12888;171153;34.80;175;03.38.26.796
12892;171150;34.80;176;03.38.26.796
12888;171159;34.80;177;03.38.26.796
12896;171149;34.80;178;03.38.26.796
12920;171152;34.80;179;03.38.26.796
12904;171153;34.80;180;03.38.26.807
12912;171145;34.80;181;03.38.26.807
12908;171153;34.80;182;03.38.26.807
12896;171147;34.80;183;03.38.26.807
12908;171143;34.80;184;03.38.26.807
12920;171145;34.80;185;03.38.26.807
12904;171152;34.80;186;03.38.26.807
12900;171148;34.80;187;03.38.26.807
12908;171143;34.80;188;03.38.26.807
12904;171149;34.80;189;03.38.26.807
12896;171150;34.80;190;03.38.26.807
12896;171144;34.80;191;03.38.26.807
12960;171151;34.80;192;03.38.26.807
12892;171163;34.80;193;03.38.26.818
12888;171156;34.80;194;03.38.26.818
12912;171156;34.80;195;03.38.26.818
12916;171156;34.80;196;03.38.26.818
12860;171155;34.80;197;03.38.26.818
12904;171161;34.80;198;03.38.26.818
12928;171160;34.80;199;03.38.26.818
12912;171157;34.80;200;03.38.26.896
12872;171163;34.80;201;03.38.26.896
12916;171160;34.80;202;03.38.26.896
12920;171158;34.80;203;03.38.26.907
12892;171168;34.80;204;03.38.26.907
12908;171156;34.80;205;03.38.26.907
12860;171163;34.80;206;03.38.26.907
12916;171162;34.80;207;03.38.26.907
12936;171164;34.80;208;03.38.26.929
12908;171161;34.80;209;03.38.26.929
12908;171163;34.80;210;03.38.26.929
12892;171172;34.80;211;03.38.26.940
12916;171165;34.80;212;03.38.26.940
12928;171173;34.80;213;03.38.26.940
12892;171166;34.80;214;03.38.26.940
12888;171167;34.80;215;03.38.26.940
12924;171170;34.80;216;03.38.26.940
12908;171176;34.80;217;03.38.26.940
12916;171171;34.80;218;03.38.26.940
12904;171177;34.80;219;03.38.26.940
12920;171170;34.80;220;03.38.26.940
12920;171173;34.80;221;03.38.26.940
12912;171165;34.80;222;03.38.26.940
12892;171172;34.80;223;03.38.26.940
12940;171177;34.80;224;03.38.26.951
12884;171175;34.84;225;03.38.27.028
12920;171174;34.84;226;03.38.27.028
12896;171175;34.84;227;03.38.27.028
12900;171182;34.84;228;03.38.27.028
12880;171183;34.84;229;03.38.27.028
12908;171187;34.84;230;03.38.27.028
12904;171193;34.84;231;03.38.27.028
12924;171185;34.84;232;03.38.27.028
12884;171192;34.84;233;03.38.27.028
12904;171194;34.84;234;03.38.27.028
12916;171194;34.84;235;03.38.27.028
12944;171189;34.84;236;03.38.27.028
12892;171192;34.84;237;03.38.27.039
12892;171197;34.84;238;03.38.27.039
12892;171196;34.84;239;03.38.27.039
12928;171187;34.84;240;03.38.27.039
12912;171190;34.84;241;03.38.27.039
12904;171199;34.84;242;03.38.27.039
12900;171197;34.84;243;03.38.27.039
12936;171204;34.84;244;03.38.27.039
12892;171209;34.84;245;03.38.27.039
12920;171209;34.84;246;03.38.27.039
12892;171210;34.84;247;03.38.27.039
12928;171204;34.84;248;03.38.27.039
12928;171212;34.84;249;03.38.27.039
12904;171211;34.84;250;03.38.27.170
12920;171212;34.84;251;03.38.27.170
12892;171217;34.84;252;03.38.27.170
12928;171228;34.84;253;03.38.27.170
12888;171222;34.84;254;03.38.27.170
12916;171206;34.84;255;03.38.27.170
12900;171219;34.84;256;03.38.27.170
12928;171226;34.84;257;03.38.27.170
12880;171225;34.84;258;03.38.27.203
12912;171231;34.84;259;03.38.27.203
12920;171232;34.84;260;03.38.27.203
12900;171230;34.84;261;03.38.27.203
12896;171228;34.84;262;03.38.27.203
12908;171232;34.84;263;03.38.27.203
12908;171233;34.84;264;03.38.27.203
12892;171236;34.84;265;03.38.27.203
12912;171235;34.84;266;03.38.27.214
12884;171237;34.84;267;03.38.27.214
12892;171231;34.84;268;03.38.27.214
12876;171237;34.84;269;03.38.27.214
12900;171240;34.84;270;03.38.27.214
12904;171234;34.84;271;03.38.27.214
12900;171234;34.84;272;03.38.27.214
12904;171232;34.84;273;03.38.27.214
12928;171222;34.84;274;03.38.27.214
12908;171231;34.84;275;03.38.27.297
12932;171235;34.84;276;03.38.27.297
12916;171228;34.84;277;03.38.27.297
12916;171225;34.84;278;03.38.27.297
12928;171221;34.84;279;03.38.27.297
12928;171220;34.84;280;03.38.27.297
12888;171220;34.84;281;03.38.27.297
12904;171215;34.84;282;03.38.27.297
12904;171215;34.84;283;03.38.27.297
12932;171211;34.84;284;03.38.27.297
12892;171209;34.84;285;03.38.27.297
12900;171213;34.84;286;03.38.27.297
12912;171203;34.84;287;03.38.27.309
12928;171213;34.84;288;03.38.27.309
12908;171206;34.84;289;03.38.27.309
12904;171203;34.84;290;03.38.27.309
12904;171198;34.84;291;03.38.27.309
12908;171205;34.84;292;03.38.27.309
12880;171184;34.84;293;03.38.27.309
12876;171196;34.84;294;03.38.27.309
12928;171192;34.84;295;03.38.27.309
12892;171191;34.84;296;03.38.27.309
12908;171194;34.84;297;03.38.27.309
12896;171190;34.84;298;03.38.27.309
12912;171185;34.84;299;03.38.27.309
12860;171180;34.84;300;03.38.27.407
12892;171182;34.84;301;03.38.27.407
12892;171181;34.84;302;03.38.27.407
12944;171179;34.84;303;03.38.27.407
12900;171177;34.84;304;03.38.27.407
12928;171173;34.84;305;03.38.27.407
12928;171168;34.84;306;03.38.27.407
12924;171162;34.84;307;03.38.27.407
12876;171154;34.84;308;03.38.27.429
12920;171156;34.84;309;03.38.27.429
12892;171139;34.84;310;03.38.27.429
12892;171141;34.84;311;03.38.27.429
12900;171134;34.84;312;03.38.27.429
12892;171113;34.84;313;03.38.27.429
12892;171115;34.84;314;03.38.27.429
12888;171107;34.84;315;03.38.27.429
12892;171103;34.84;316;03.38.27.429
12884;171107;34.84;317;03.38.27.440
12896;171097;34.84;318;03.38.27.440
12908;171081;34.84;319;03.38.27.440
12896;171082;34.84;320;03.38.27.440
12916;171084;34.84;321;03.38.27.440
12892;171078;34.84;322;03.38.27.440
12920;171079;34.84;323;03.38.27.440
12916;171074;34.84;324;03.38.27.440
12908;171057;34.84;325;03.38.27.529
12876;171053;34.84;326;03.38.27.529
12944;171061;34.84;327;03.38.27.529
12920;171054;34.84;328;03.38.27.529
12900;171060;34.84;329;03.38.27.529
12928;171053;34.84;330;03.38.27.529
12928;171054;34.84;331;03.38.27.529
12892;171045;34.84;332;03.38.27.540
12912;171044;34.84;333;03.38.27.540
12928;171039;34.84;334;03.38.27.540
12908;171037;34.84;335;03.38.27.540
12912;171045;34.84;336;03.38.27.540
12896;171047;34.84;337;03.38.27.540
12888;171035;34.84;338;03.38.27.540
12880;171037;34.84;339;03.38.27.540
12908;171029;34.84;340;03.38.27.540
12936;171029;34.84;341;03.38.27.540
12900;171037;34.84;342;03.38.27.540
12904;171017;34.84;343;03.38.27.540
12892;171031;34.84;344;03.38.27.540
12916;171029;34.84;345;03.38.27.551
12960;171024;34.84;346;03.38.27.551
12928;171016;34.84;347;03.38.27.551
12912;171017;34.84;348;03.38.27.551
12912;171016;34.84;349;03.38.27.551
12920;171022;34.84;350;03.38.27.658
12896;171020;34.84;351;03.38.27.658
12916;171012;34.84;352;03.38.27.658
12900;171020;34.84;353;03.38.27.658
12908;171024;34.84;354;03.38.27.658
12908;171022;34.84;355;03.38.27.658
12912;171017;34.84;356;03.38.27.658
12900;171026;34.84;357;03.38.27.658
12904;171025;34.84;358;03.38.27.658
12928;171026;34.84;359;03.38.27.658
12912;171028;34.84;360;03.38.27.658
12916;171030;34.84;361;03.38.27.658
12916;171036;34.84;362;03.38.27.658
12900;171040;34.84;363;03.38.27.659
12912;171042;34.84;364;03.38.27.672
12892;171042;34.84;365;03.38.27.672
12888;171039;34.84;366;03.38.27.672
12908;171049;34.84;367;03.38.27.672
12904;171046;34.84;368;03.38.27.672
12900;171041;34.84;369;03.38.27.672
12912;171042;34.84;370;03.38.27.683
12892;171048;34.84;371;03.38.27.683
12924;171044;34.84;372;03.38.27.683
12916;171039;34.84;373;03.38.27.683
12932;171052;34.84;374;03.38.27.683
12896;171056;34.84;375;03.38.27.792
12892;171055;34.84;376;03.38.27.792
12892;171060;34.84;377;03.38.27.792
12892;171061;34.84;378;03.38.27.792
12912;171060;34.84;379;03.38.27.792
12908;171063;34.84;380;03.38.27.792
12936;171066;34.84;381;03.38.27.792
12900;171061;34.84;382;03.38.27.792
12884;171056;34.84;383;03.38.27.792
12904;171061;34.84;384;03.38.27.792
12920;171059;34.84;385;03.38.27.803
12928;171064;34.84;386;03.38.27.803
12884;171076;34.84;387;03.38.27.803
12860;171071;34.84;388;03.38.27.803
12916;171073;34.84;389;03.38.27.803
12892;171072;34.84;390;03.38.27.803
12924;171079;34.84;391;03.38.27.803
12912;171076;34.84;392;03.38.27.803
12896;171073;34.84;393;03.38.27.803
12912;171075;34.84;394;03.38.27.803
12912;171085;34.84;395;03.38.27.803
12892;171076;34.84;396;03.38.27.803
12916;171093;34.84;397;03.38.27.803
12912;171099;34.84;398;03.38.27.814
12908;171108;34.84;399;03.38.27.814
12860;171106;34.84;400;03.38.27.923
12920;171109;34.84;401;03.38.27.923
12904;171106;34.84;402;03.38.27.923
12904;171110;34.84;403;03.38.27.923
12876;171121;34.84;404;03.38.27.923
12920;171119;34.84;405;03.38.27.923
12932;171122;34.84;406;03.38.27.923
12916;171126;34.84;407;03.38.27.923
12932;171138;34.84;408;03.38.27.934
12900;171136;34.84;409;03.38.27.934
12908;171134;34.84;410;03.38.27.934
12916;171146;34.84;411;03.38.27.934
12920;171142;34.84;412;03.38.27.934
12892;171142;34.84;413;03.38.27.934
12884;171150;34.84;414;03.38.27.934
12928;171152;34.84;415;03.38.27.934
12892;171147;34.84;416;03.38.27.934
12896;171148;34.84;417;03.38.27.945
12888;171146;34.84;418;03.38.27.945
12908;171150;34.84;419;03.38.27.945
12904;171147;34.84;420;03.38.27.945
12916;171153;34.84;421;03.38.27.945
12904;171159;34.84;422;03.38.27.945
12912;171156;34.84;423;03.38.27.945
12932;171162;34.84;424;03.38.27.956
12916;171164;34.80;425;03.38.28.033
12904;171156;34.80;426;03.38.28.033
12904;171172;34.80;427;03.38.28.033
12912;171167;34.80;428;03.38.28.033
12896;171170;34.80;429;03.38.28.033
12920;171174;34.80;430;03.38.28.045
12928;171168;34.80;431;03.38.28.045
12924;171175;34.80;432;03.38.28.045
12924;171178;34.80;433;03.38.28.056
12928;171177;34.80;434;03.38.28.056
12904;171179;34.80;435;03.38.28.056
12892;171181;34.80;436;03.38.28.056
12904;171183;34.80;437;03.38.28.056
12908;171191;34.80;438;03.38.28.067
12892;171184;34.80;439;03.38.28.067
12928;171187;34.80;440;03.38.28.067
12908;171189;34.80;441;03.38.28.067
12916;171186;34.80;442;03.38.28.067
12904;171177;34.80;443;03.38.28.067
12908;171182;34.80;444;03.38.28.067
12892;171191;34.80;445;03.38.28.067
12928;171186;34.80;446;03.38.28.067
12912;171176;34.80;447;03.38.28.067
12908;171186;34.80;448;03.38.28.067
12904;171187;34.80;449;03.38.28.067
12908;171189;34.80;450;03.38.28.154
12908;171181;34.80;451;03.38.28.154
12928;171190;34.80;452;03.38.28.154
12916;171179;34.80;453;03.38.28.154
12928;171185;34.80;454;03.38.28.154
12928;171192;34.80;455;03.38.28.154
12920;171186;34.80;456;03.38.28.154
12900;171186;34.80;457;03.38.28.154
12900;171180;34.80;458;03.38.28.154
12904;171187;34.80;459;03.38.28.154
12896;171178;34.80;460;03.38.28.154
12908;171176;34.80;461;03.38.28.154
12912;171171;34.80;462;03.38.28.154
12892;171171;34.80;463;03.38.28.164
12888;171174;34.80;464;03.38.28.164
12920;171157;34.80;465;03.38.28.164
12928;171165;34.80;466;03.38.28.164
12896;171159;34.80;467;03.38.28.164
12928;171153;34.80;468;03.38.28.175
12916;171139;34.80;469;03.38.28.175
12912;171144;34.80;470;03.38.28.175
12912;171142;34.80;471;03.38.28.175
12908;171127;34.80;472;03.38.28.175
12904;171129;34.80;473;03.38.28.175
12928;171116;34.80;474;03.38.28.175
12920;171119;34.84;475;03.38.28.284
12908;171109;34.84;476;03.38.28.284
12920;171103;34.84;477;03.38.28.284
12912;171095;34.84;478;03.38.28.284
12916;171096;34.84;479;03.38.28.284
12896;171096;34.84;480;03.38.28.284
12924;171083;34.84;481;03.38.28.284
12916;171081;34.84;482;03.38.28.284
12896;171078;34.84;483;03.38.28.295
12912;171079;34.84;484;03.38.28.295
12888;171068;34.84;485;03.38.28.295
12892;171063;34.84;486;03.38.28.295
12928;171062;34.84;487;03.38.28.295
12892;171071;34.84;488;03.38.28.295
12908;171057;34.84;489;03.38.28.295
12892;171047;34.84;490;03.38.28.295
12892;171046;34.84;491;03.38.28.295
12896;171039;34.84;492;03.38.28.295
12904;171044;34.84;493;03.38.28.306
12932;171040;34.84;494;03.38.28.306
12932;171051;34.84;495;03.38.28.306
12916;171057;34.84;496;03.38.28.306
12912;171049;34.84;497;03.38.28.306
12900;171051;34.84;498;03.38.28.306
12936;171045;34.84;499;03.38.28.306
12876;171047;34.84;500;03.38.28.416
12928;171054;34.84;501;03.38.28.416
12900;171054;34.84;502;03.38.28.416
12884;171051;34.84;503;03.38.28.416
12892;171057;34.84;504;03.38.28.427
12892;171061;34.84;505;03.38.28.427
12896;171067;34.84;506;03.38.28.427
12928;171068;34.84;507;03.38.28.427
12896;171069;34.84;508;03.38.28.427
12928;171076;34.84;509;03.38.28.427
12876;171075;34.84;510;03.38.28.427
12916;171086;34.84;511;03.38.28.427
12928;171081;34.84;512;03.38.28.427
12920;171093;34.84;513;03.38.28.427
12900;171092;34.84;514;03.38.28.427
12884;171101;34.84;515;03.38.28.427
12908;171103;34.84;516;03.38.28.427
12892;171113;34.84;517;03.38.28.438
12896;171105;34.84;518;03.38.28.438
12888;171110;34.84;519;03.38.28.438
12916;171113;34.84;520;03.38.28.438
12924;171121;34.84;521;03.38.28.438
12944;171130;34.84;522;03.38.28.438
12888;171126;34.84;523;03.38.28.438
12908;171125;34.84;524;03.38.28.438
12876;171138;34.84;525;03.38.28.536
12936;171138;34.84;526;03.38.28.536
12916;171144;34.84;527;03.38.28.536
12904;171140;34.84;528;03.38.28.536
12920;171141;34.84;529;03.38.28.536
12904;171144;34.84;530;03.38.28.536
12928;171139;34.84;531;03.38.28.536
12884;171152;34.84;532;03.38.28.536
12904;171152;34.84;533;03.38.28.547
12900;171151;34.84;534;03.38.28.547
12896;171149;34.84;535;03.38.28.547
12908;171155;34.84;536;03.38.28.547
12896;171151;34.84;537;03.38.28.547
12936;171157;34.84;538;03.38.28.547
12908;171151;34.84;539;03.38.28.547
12908;171159;34.84;540;03.38.28.547
12912;171161;34.84;541;03.38.28.547
12916;171166;34.84;542;03.38.28.547
12908;171168;34.84;543;03.38.28.558
12924;171174;34.84;544;03.38.28.558
12884;171180;34.84;545;03.38.28.558
12904;171181;34.84;546;03.38.28.558
12916;171191;34.84;547;03.38.28.558
12912;171180;34.84;548;03.38.28.558
12920;171185;34.84;549;03.38.28.558
12904;171185;34.84;550;03.38.28.668
12920;171188;34.84;551;03.38.28.668
12900;171192;34.84;552;03.38.28.668
12872;171193;34.84;553;03.38.28.668
12888;171196;34.84;554;03.38.28.668
12896;171198;34.84;555;03.38.28.668
12924;171189;34.84;556;03.38.28.668
12908;171201;34.84;557;03.38.28.668
12904;171203;34.84;558;03.38.28.690
12928;171200;34.84;559;03.38.28.690
12912;171205;34.84;560;03.38.28.690
12928;171200;34.84;561;03.38.28.690
12908;171198;34.84;562;03.38.28.690
12928;171211;34.84;563;03.38.28.690
12908;171210;34.84;564;03.38.28.690
12944;171211;34.84;565;03.38.28.690
12944;171202;34.84;566;03.38.28.690
12952;171220;34.84;567;03.38.28.690
12928;171213;34.84;568;03.38.28.690
12904;171217;34.84;569;03.38.28.691
12928;171222;34.84;570;03.38.28.702
12892;171222;34.84;571;03.38.28.702
12928;171230;34.84;572;03.38.28.702
12900;171229;34.84;573;03.38.28.702
12928;171226;34.84;574;03.38.28.702
12920;171228;34.84;575;03.38.28.779
12908;171235;34.84;576;03.38.28.779
12900;171232;34.84;577;03.38.28.779
12904;171235;34.84;578;03.38.28.779
12896;171238;34.84;579;03.38.28.779
12908;171237;34.84;580;03.38.28.779
12900;171247;34.84;581;03.38.28.779
12908;171246;34.84;582;03.38.28.790
12912;171244;34.84;583;03.38.28.790
12920;171229;34.84;584;03.38.28.790
12896;171242;34.84;585;03.38.28.790
12928;171245;34.84;586;03.38.28.790
12884;171256;34.84;587;03.38.28.790
12892;171251;34.84;588;03.38.28.790
12904;171257;34.84;589;03.38.28.790
12884;171246;34.84;590;03.38.28.790
12896;171247;34.84;591;03.38.28.790
12916;171259;34.84;592;03.38.28.790
12912;171248;34.84;593;03.38.28.790
12876;171260;34.84;594;03.38.28.790
12928;171258;34.84;595;03.38.28.801
12908;171257;34.84;596;03.38.28.801
12904;171263;34.84;597;03.38.28.801
12896;171261;34.84;598;03.38.28.801
12892;171260;34.84;599;03.38.28.801
12908;171259;34.84;600;03.38.28.909
12900;171261;34.84;601;03.38.28.920
12920;171266;34.84;602;03.38.28.920
12944;171270;34.84;603;03.38.28.920
12928;171269;34.84;604;03.38.28.920
12904;171270;34.84;605;03.38.28.920
12920;171267;34.84;606;03.38.28.920
