gsr; bvp; skt; skt2; Cont; time
12952;176821;34.40;650;03.11.08.565
12940;176814;34.40;651;03.11.08.565
12940;176813;34.40;652;03.11.08.565
12908;176818;34.40;653;03.11.08.565
12968;176820;34.40;654;03.11.08.565
12924;176820;34.40;655;03.11.08.565
12976;176826;34.40;656;03.11.08.565
12992;176831;34.40;657;03.11.08.565
12968;176831;34.40;658;03.11.08.598
12960;176829;34.40;659;03.11.08.598
12952;176832;34.40;660;03.11.08.598
12908;176841;34.40;661;03.11.08.598
12928;176823;34.40;662;03.11.08.598
12948;176826;34.40;663;03.11.08.598
12944;176826;34.40;664;03.11.08.598
12948;176827;34.40;665;03.11.08.598
12976;176838;34.40;666;03.11.08.598
12956;176839;34.40;667;03.11.08.598
12936;176836;34.40;668;03.11.08.598
12944;176833;34.40;669;03.11.08.598
12944;176834;34.40;670;03.11.08.598
12960;176835;34.40;671;03.11.08.609
12960;176833;34.40;672;03.11.08.609
12948;176840;34.40;673;03.11.08.609
12964;176838;34.40;674;03.11.08.609
12952;176828;34.40;675;03.11.08.685
12936;176844;34.40;676;03.11.08.685
12960;176838;34.40;677;03.11.08.685
12960;176852;34.40;678;03.11.08.685
12932;176849;34.40;679;03.11.08.685
12944;176841;34.40;680;03.11.08.685
12960;176844;34.40;681;03.11.08.685
12960;176849;34.40;682;03.11.08.685
12944;176850;34.40;683;03.11.08.685
12936;176851;34.40;684;03.11.08.685
12952;176843;34.40;685;03.11.08.696
12940;176847;34.40;686;03.11.08.696
12928;176839;34.40;687;03.11.08.696
12960;176849;34.40;688;03.11.08.696
12952;176850;34.40;689;03.11.08.696
12960;176848;34.40;690;03.11.08.696
12948;176851;34.40;691;03.11.08.696
12940;176850;34.40;692;03.11.08.707
12964;176847;34.40;693;03.11.08.707
12968;176857;34.40;694;03.11.08.707
12948;176854;34.40;695;03.11.08.707
12940;176863;34.40;696;03.11.08.707
12960;176856;34.40;697;03.11.08.707
12956;176859;34.40;698;03.11.08.707
12960;176857;34.40;699;03.11.08.707
12964;176860;34.40;700;03.11.08.805
12952;176861;34.40;701;03.11.08.805
12984;176857;34.40;702;03.11.08.805
12940;176858;34.40;703;03.11.08.805
12952;176850;34.40;704;03.11.08.805
12940;176857;34.40;705;03.11.08.816
12960;176859;34.40;706;03.11.08.816
12948;176859;34.40;707;03.11.08.816
12960;176858;34.40;708;03.11.08.816
12960;176855;34.40;709;03.11.08.816
12944;176862;34.40;710;03.11.08.816
12952;176872;34.40;711;03.11.08.816
12980;176868;34.40;712;03.11.08.816
12940;176877;34.40;713;03.11.08.816
12960;176866;34.40;714;03.11.08.816
12944;176871;34.40;715;03.11.08.816
12948;176870;34.40;716;03.11.08.816
12940;176867;34.40;717;03.11.08.816
12960;176870;34.40;718;03.11.08.827
12944;176873;34.40;719;03.11.08.827
12936;176871;34.40;720;03.11.08.827
12964;176871;34.40;721;03.11.08.827
12972;176870;34.40;722;03.11.08.827
12960;176874;34.40;723;03.11.08.827
12952;176875;34.40;724;03.11.08.827
12948;176869;34.40;725;03.11.08.914
12960;176870;34.40;726;03.11.08.925
12944;176864;34.40;727;03.11.08.925
12956;176864;34.40;728;03.11.08.925
12928;176874;34.40;729;03.11.08.925
12916;176867;34.40;730;03.11.08.925
12924;176865;34.40;731;03.11.08.925
12956;176866;34.40;732;03.11.08.925
12960;176860;34.40;733;03.11.08.925
12940;176862;34.40;734;03.11.08.925
12948;176853;34.40;735;03.11.08.925
12948;176859;34.40;736;03.11.08.925
12952;176861;34.40;737;03.11.08.925
12968;176850;34.40;738;03.11.08.925
12940;176855;34.40;739;03.11.08.936
12976;176850;34.40;740;03.11.08.936
12936;176854;34.40;741;03.11.08.936
12968;176853;34.40;742;03.11.08.947
12940;176843;34.40;743;03.11.08.947
12960;176848;34.40;744;03.11.08.958
12952;176843;34.40;745;03.11.08.958
12952;176847;34.40;746;03.11.08.958
12940;176829;34.40;747;03.11.08.958
12976;176836;34.40;748;03.11.08.958
12968;176838;34.40;749;03.11.08.958
12972;176830;34.40;750;03.11.09.057
12952;176837;34.40;751;03.11.09.057
12932;176830;34.40;752;03.11.09.057
12956;176828;34.40;753;03.11.09.057
12940;176824;34.40;754;03.11.09.057
12924;176825;34.40;755;03.11.09.057
12952;176821;34.40;756;03.11.09.057
12952;176827;34.40;757;03.11.09.057
12976;176823;34.40;758;03.11.09.057
12940;176834;34.40;759;03.11.09.057
12948;176830;34.40;760;03.11.09.057
12936;176822;34.40;761;03.11.09.068
12956;176823;34.40;762;03.11.09.068
12924;176822;34.40;763;03.11.09.068
12960;176823;34.40;764;03.11.09.068
12976;176824;34.40;765;03.11.09.068
12940;176827;34.40;766;03.11.09.068
12932;176826;34.40;767;03.11.09.134
12956;176831;34.40;768;03.11.09.134
12940;176822;34.40;769;03.11.09.134
12968;176822;34.40;770;03.11.09.134
12944;176835;34.40;771;03.11.09.134
12944;176825;34.40;772;03.11.09.134
12952;176830;34.40;773;03.11.09.134
12960;176829;34.40;774;03.11.09.134
12932;176824;34.40;775;03.11.09.157
12964;176828;34.40;776;03.11.09.157
12948;176825;34.40;777;03.11.09.157
12956;176825;34.40;778;03.11.09.157
12956;176822;34.40;779;03.11.09.157
12908;176820;34.40;780;03.11.09.157
12948;176821;34.40;781;03.11.09.157
12960;176818;34.40;782;03.11.09.157
12944;176821;34.40;783;03.11.09.190
12936;176823;34.40;784;03.11.09.190
12948;176826;34.40;785;03.11.09.190
12984;176828;34.40;786;03.11.09.190
12952;176829;34.40;787;03.11.09.190
12956;176826;34.40;788;03.11.09.190
12948;176821;34.40;789;03.11.09.190
12968;176823;34.40;790;03.11.09.190
12936;176821;34.40;791;03.11.09.190
12960;176823;34.40;792;03.11.09.190
12928;176818;34.40;793;03.11.09.201
12948;176824;34.40;794;03.11.09.201
12952;176825;34.40;795;03.11.09.201
12960;176822;34.40;796;03.11.09.201
12960;176808;34.40;797;03.11.09.201
12944;176827;34.40;798;03.11.09.201
12956;176826;34.40;799;03.11.09.201
12956;176826;34.40;800;03.11.09.278
12924;176820;34.40;801;03.11.09.278
12944;176823;34.40;802;03.11.09.278
12968;176824;34.40;803;03.11.09.278
12932;176821;34.40;804;03.11.09.278
12952;176815;34.40;805;03.11.09.288
12940;176825;34.40;806;03.11.09.288
12940;176819;34.40;807;03.11.09.288
12956;176809;34.40;808;03.11.09.288
12924;176811;34.40;809;03.11.09.288
12940;176816;34.40;810;03.11.09.288
12956;176813;34.40;811;03.11.09.288
12960;176817;34.40;812;03.11.09.288
12976;176813;34.40;813;03.11.09.288
12960;176810;34.40;814;03.11.09.299
12924;176813;34.40;815;03.11.09.299
12960;176813;34.40;816;03.11.09.299
12924;176805;34.40;817;03.11.09.310
12952;176807;34.40;818;03.11.09.310
12968;176810;34.40;819;03.11.09.310
12968;176810;34.40;820;03.11.09.310
12948;176818;34.40;821;03.11.09.321
12944;176813;34.40;822;03.11.09.321
12968;176807;34.40;823;03.11.09.321
12948;176816;34.40;824;03.11.09.321
12944;176807;34.40;825;03.11.09.398
12948;176805;34.40;826;03.11.09.409
12956;176816;34.40;827;03.11.09.409
12944;176816;34.40;828;03.11.09.409
12936;176812;34.40;829;03.11.09.409
12948;176807;34.40;830;03.11.09.409
12924;176807;34.40;831;03.11.09.409
12960;176815;34.40;832;03.11.09.409
12968;176819;34.40;833;03.11.09.409
12952;176821;34.40;834;03.11.09.409
12960;176810;34.40;835;03.11.09.409
12960;176813;34.40;836;03.11.09.409
12976;176810;34.40;837;03.11.09.409
12960;176817;34.40;838;03.11.09.409
12940;176821;34.40;839;03.11.09.420
12972;176822;34.40;840;03.11.09.420
12960;176822;34.40;841;03.11.09.420
12940;176823;34.40;842;03.11.09.420
12924;176823;34.40;843;03.11.09.420
12924;176828;34.40;844;03.11.09.420
12920;176824;34.40;845;03.11.09.420
12936;176827;34.40;846;03.11.09.420
12940;176833;34.40;847;03.11.09.420
12944;176829;34.40;848;03.11.09.420
12952;176831;34.40;849;03.11.09.420
12972;176830;34.40;850;03.11.09.552
12932;176838;34.40;851;03.11.09.552
12968;176841;34.40;852;03.11.09.552
12952;176841;34.40;853;03.11.09.552
12948;176843;34.40;854;03.11.09.552
12952;176843;34.40;855;03.11.09.552
12956;176842;34.40;856;03.11.09.552
12960;176839;34.40;857;03.11.09.552
12956;176832;34.40;858;03.11.09.552
12952;176844;34.40;859;03.11.09.563
12948;176845;34.40;860;03.11.09.563
12940;176848;34.40;861;03.11.09.563
12952;176850;34.40;862;03.11.09.563
12952;176852;34.40;863;03.11.09.563
12956;176860;34.40;864;03.11.09.563
12948;176853;34.40;865;03.11.09.563
12932;176857;34.40;866;03.11.09.563
12960;176856;34.40;867;03.11.09.563
12960;176862;34.40;868;03.11.09.563
12964;176864;34.40;869;03.11.09.563
12944;176867;34.40;870;03.11.09.563
12940;176872;34.40;871;03.11.09.563
12944;176870;34.40;872;03.11.09.563
12936;176882;34.40;873;03.11.09.563
12944;176873;34.40;874;03.11.09.574
12960;176873;34.40;875;03.11.09.672
12944;176869;34.40;876;03.11.09.672
12968;176875;34.40;877;03.11.09.672
12948;176873;34.40;878;03.11.09.672
12964;176878;34.40;879;03.11.09.672
12952;176875;34.40;880;03.11.09.672
12968;176874;34.40;881;03.11.09.683
12940;176876;34.40;882;03.11.09.683
12924;176880;34.40;883;03.11.09.683
12928;176874;34.40;884;03.11.09.683
12956;176876;34.40;885;03.11.09.683
12952;176883;34.40;886;03.11.09.683
12952;176876;34.40;887;03.11.09.683
12960;176883;34.40;888;03.11.09.683
12956;176882;34.40;889;03.11.09.683
12968;176877;34.40;890;03.11.09.694
12960;176879;34.40;891;03.11.09.694
12948;176873;34.40;892;03.11.09.694
12968;176870;34.40;893;03.11.09.694
12960;176871;34.40;894;03.11.09.694
12936;176874;34.40;895;03.11.09.694
12968;176875;34.40;896;03.11.09.694
12924;176875;34.40;897;03.11.09.694
12968;176868;34.40;898;03.11.09.694
12936;176873;34.40;899;03.11.09.694
12952;176871;34.40;900;03.11.09.804
12944;176869;34.40;901;03.11.09.804
12968;176863;34.40;902;03.11.09.804
12936;176861;34.40;903;03.11.09.815
12952;176864;34.40;904;03.11.09.815
12956;176853;34.40;905;03.11.09.815
12960;176850;34.40;906;03.11.09.815
12956;176845;34.40;907;03.11.09.815
12924;176848;34.40;908;03.11.09.815
12964;176850;34.40;909;03.11.09.815
12944;176834;34.40;910;03.11.09.815
12944;176836;34.40;911;03.11.09.815
12924;176839;34.40;912;03.11.09.815
12948;176833;34.40;913;03.11.09.815
12964;176834;34.40;914;03.11.09.815
12964;176831;34.40;915;03.11.09.815
12948;176831;34.40;916;03.11.09.826
12980;176830;34.40;917;03.11.09.826
12960;176831;34.40;918;03.11.09.826
12924;176828;34.40;919;03.11.09.826
12948;176836;34.40;920;03.11.09.826
12944;176828;34.40;921;03.11.09.826
12952;176821;34.40;922;03.11.09.826
12968;176822;34.40;923;03.11.09.826
12932;176815;34.40;924;03.11.09.826
12980;176818;34.40;925;03.11.09.914
12940;176817;34.40;926;03.11.09.914
12952;176819;34.40;927;03.11.09.914
12960;176823;34.40;928;03.11.09.914
12956;176820;34.40;929;03.11.09.914
12932;176820;34.40;930;03.11.09.914
12940;176821;34.40;931;03.11.09.914
12960;176822;34.40;932;03.11.09.914
12960;176823;34.40;933;03.11.09.914
12940;176820;34.40;934;03.11.09.914
12936;176813;34.40;935;03.11.09.914
12972;176820;34.40;936;03.11.09.914
12992;176824;34.40;937;03.11.09.925
12940;176817;34.40;938;03.11.09.925
12960;176820;34.40;939;03.11.09.925
12936;176819;34.40;940;03.11.09.925
12964;176826;34.40;941;03.11.09.925
12980;176827;34.40;942;03.11.09.925
12972;176823;34.40;943;03.11.09.925
12924;176819;34.40;944;03.11.09.925
12952;176826;34.40;945;03.11.09.925
12960;176819;34.40;946;03.11.09.925
12960;176827;34.40;947;03.11.09.925
12924;176832;34.40;948;03.11.09.925
12952;176824;34.40;949;03.11.09.925
12944;176832;34.40;950;03.11.10.035
12960;176820;34.40;951;03.11.10.035
12984;176826;34.40;952;03.11.10.035
12948;176827;34.40;953;03.11.10.035
12948;176816;34.40;954;03.11.10.035
12956;176832;34.40;955;03.11.10.035
12948;176828;34.40;956;03.11.10.035
12960;176841;34.40;957;03.11.10.035
12932;176824;34.40;958;03.11.10.045
12960;176828;34.40;959;03.11.10.045
12944;176831;34.40;960;03.11.10.045
12976;176833;34.40;961;03.11.10.045
12972;176830;34.40;962;03.11.10.045
12940;176831;34.40;963;03.11.10.045
12960;176826;34.40;964;03.11.10.045
12952;176836;34.40;965;03.11.10.045
12940;176831;34.40;966;03.11.10.045
12960;176838;34.40;967;03.11.10.045
12944;176828;34.40;968;03.11.10.045
12960;176828;34.40;969;03.11.10.045
12932;176831;34.40;970;03.11.10.045
12936;176831;34.40;971;03.11.10.056
12980;176835;34.40;972;03.11.10.056
12952;176831;34.40;973;03.11.10.056
12968;176834;34.40;974;03.11.10.056
12948;176833;34.36;975;03.11.10.165
12956;176837;34.36;976;03.11.10.165
12948;176843;34.36;977;03.11.10.165
12924;176836;34.36;978;03.11.10.176
12952;176842;34.36;979;03.11.10.176
12940;176840;34.36;980;03.11.10.176
12960;176849;34.36;981;03.11.10.176
12944;176838;34.36;982;03.11.10.176
12940;176843;34.36;983;03.11.10.176
12932;176845;34.36;984;03.11.10.176
12988;176847;34.36;985;03.11.10.176
12936;176845;34.36;986;03.11.10.176
12948;176847;34.36;987;03.11.10.176
12952;176845;34.36;988;03.11.10.176
12944;176846;34.36;989;03.11.10.176
12944;176843;34.36;990;03.11.10.176
12948;176843;34.36;991;03.11.10.176
12956;176846;34.36;992;03.11.10.187
12928;176838;34.36;993;03.11.10.187
12976;176842;34.36;994;03.11.10.187
12960;176838;34.36;995;03.11.10.187
12928;176839;34.36;996;03.11.10.187
12980;176833;34.36;997;03.11.10.187
12952;176843;34.36;998;03.11.10.187
12960;176839;34.36;999;03.11.10.187
12952;176843;34.36;000;03.11.10.319
12948;176832;34.36;001;03.11.10.319
12976;176833;34.36;002;03.11.10.319
12964;176835;34.36;003;03.11.10.319
12944;176837;34.36;004;03.11.10.319
12968;176823;34.36;005;03.11.10.319
12952;176832;34.36;006;03.11.10.319
12916;176829;34.36;007;03.11.10.319
12940;176819;34.36;008;03.11.10.319
12960;176838;34.36;009;03.11.10.319
12952;176823;34.36;010;03.11.10.319
12952;176825;34.36;011;03.11.10.319
12972;176828;34.36;012;03.11.10.330
12932;176828;34.36;013;03.11.10.330
12940;176827;34.36;014;03.11.10.330
12956;176825;34.36;015;03.11.10.330
12948;176832;34.36;016;03.11.10.330
12964;176830;34.36;017;03.11.10.330
12944;176832;34.36;018;03.11.10.330
12924;176821;34.36;019;03.11.10.330
12960;176818;34.36;020;03.11.10.330
12948;176825;34.36;021;03.11.10.330
12964;176829;34.36;022;03.11.10.330
12956;176819;34.36;023;03.11.10.330
12964;176826;34.36;024;03.11.10.330
12940;176827;34.36;025;03.11.10.406
12960;176823;34.36;026;03.11.10.406
12944;176824;34.36;027;03.11.10.406
12956;176828;34.36;028;03.11.10.406
12956;176824;34.36;029;03.11.10.406
12952;176830;34.36;030;03.11.10.406
12956;176825;34.36;031;03.11.10.406
12968;176826;34.36;032;03.11.10.406
12956;176827;34.36;033;03.11.10.417
12952;176828;34.36;034;03.11.10.417
12956;176825;34.36;035;03.11.10.417
12960;176833;34.36;036;03.11.10.417
12932;176833;34.36;037;03.11.10.417
12976;176838;34.36;038;03.11.10.417
12964;176837;34.36;039;03.11.10.417
12976;176833;34.36;040;03.11.10.417
12932;176837;34.36;041;03.11.10.417
12972;176847;34.36;042;03.11.10.439
12968;176845;34.36;043;03.11.10.439
12976;176842;34.36;044;03.11.10.439
12936;176840;34.36;045;03.11.10.439
12944;176847;34.36;046;03.11.10.439
12936;176856;34.36;047;03.11.10.439
12948;176851;34.36;048;03.11.10.439
12968;176848;34.36;049;03.11.10.439
12924;176845;34.36;050;03.11.10.537
12960;176852;34.36;051;03.11.10.537
12968;176857;34.36;052;03.11.10.537
12944;176852;34.36;053;03.11.10.537
12920;176855;34.36;054;03.11.10.537
12960;176855;34.36;055;03.11.10.537
12968;176847;34.36;056;03.11.10.548
12972;176849;34.36;057;03.11.10.548
12924;176845;34.36;058;03.11.10.548
12964;176846;34.36;059;03.11.10.548
12960;176844;34.36;060;03.11.10.548
12932;176844;34.36;061;03.11.10.548
12936;176841;34.36;062;03.11.10.548
12956;176838;34.36;063;03.11.10.548
12940;176835;34.36;064;03.11.10.548
12960;176829;34.36;065;03.11.10.548
12956;176839;34.36;066;03.11.10.548
12960;176828;34.36;067;03.11.10.548
12952;176830;34.36;068;03.11.10.548
12952;176829;34.36;069;03.11.10.548
12948;176829;34.36;070;03.11.10.560
12960;176830;34.36;071;03.11.10.560
12960;176825;34.36;072;03.11.10.560
12948;176825;34.36;073;03.11.10.560
12952;176820;34.36;074;03.11.10.560
12952;176812;34.40;075;03.11.10.659
12932;176817;34.40;076;03.11.10.659
12948;176817;34.40;077;03.11.10.670
12968;176816;34.40;078;03.11.10.670
12960;176813;34.40;079;03.11.10.670
12948;176816;34.40;080;03.11.10.670
12948;176803;34.40;081;03.11.10.670
12920;176809;34.40;082;03.11.10.670
12908;176805;34.40;083;03.11.10.670
12972;176804;34.40;084;03.11.10.670
12932;176815;34.40;085;03.11.10.670
12928;176803;34.40;086;03.11.10.681
12948;176812;34.40;087;03.11.10.681
12976;176811;34.40;088;03.11.10.681
12960;176809;34.40;089;03.11.10.681
12948;176806;34.40;090;03.11.10.681
12940;176793;34.40;091;03.11.10.681
12968;176794;34.40;092;03.11.10.681
12940;176804;34.40;093;03.11.10.681
12948;176797;34.40;094;03.11.10.681
12940;176802;34.40;095;03.11.10.681
12948;176795;34.40;096;03.11.10.681
12948;176795;34.40;097;03.11.10.681
12968;176793;34.40;098;03.11.10.681
12952;176799;34.40;099;03.11.10.692
12944;176792;34.40;100;03.11.10.791
12952;176796;34.40;101;03.11.10.791
12964;176794;34.40;102;03.11.10.791
12924;176795;34.40;103;03.11.10.791
12976;176796;34.40;104;03.11.10.791
12936;176798;34.40;105;03.11.10.791
12936;176787;34.40;106;03.11.10.791
12932;176789;34.40;107;03.11.10.791
12948;176796;34.40;108;03.11.10.791
12968;176799;34.40;109;03.11.10.791
12960;176794;34.40;110;03.11.10.802
12960;176792;34.40;111;03.11.10.802
12964;176798;34.40;112;03.11.10.802
12948;176796;34.40;113;03.11.10.802
12952;176806;34.40;114;03.11.10.802
12948;176791;34.40;115;03.11.10.802
12968;176801;34.40;116;03.11.10.802
12928;176804;34.40;117;03.11.10.802
12956;176806;34.40;118;03.11.10.802
12928;176800;34.40;119;03.11.10.802
12960;176803;34.40;120;03.11.10.802
12940;176807;34.40;121;03.11.10.802
12968;176803;34.40;122;03.11.10.802
12940;176802;34.40;123;03.11.10.813
12960;176806;34.40;124;03.11.10.813
12940;176811;34.40;125;03.11.10.911
12952;176811;34.40;126;03.11.10.911
12992;176809;34.40;127;03.11.10.911
12940;176808;34.40;128;03.11.10.911
12940;176819;34.40;129;03.11.10.911
12960;176812;34.40;130;03.11.10.911
12940;176815;34.40;131;03.11.10.911
12948;176811;34.40;132;03.11.10.922
12948;176812;34.40;133;03.11.10.922
12964;176815;34.40;134;03.11.10.922
12960;176817;34.40;135;03.11.10.922
12964;176813;34.40;136;03.11.10.922
12976;176815;34.40;137;03.11.10.922
12956;176817;34.40;138;03.11.10.922
12940;176814;34.40;139;03.11.10.922
12960;176817;34.40;140;03.11.10.933
12960;176806;34.40;141;03.11.10.933
12936;176812;34.40;142;03.11.10.933
12940;176815;34.40;143;03.11.10.933
12944;176814;34.40;144;03.11.10.933
12944;176813;34.40;145;03.11.10.933
12968;176817;34.40;146;03.11.10.933
12936;176809;34.40;147;03.11.10.933
12972;176816;34.40;148;03.11.10.933
12980;176814;34.40;149;03.11.10.933
12968;176820;34.40;150;03.11.11.032
12948;176811;34.40;151;03.11.11.032
12992;176809;34.40;152;03.11.11.032
12976;176808;34.40;153;03.11.11.032
12952;176810;34.40;154;03.11.11.032
12952;176811;34.40;155;03.11.11.043
12964;176818;34.40;156;03.11.11.043
12952;176809;34.40;157;03.11.11.043
12924;176805;34.40;158;03.11.11.043
12956;176803;34.40;159;03.11.11.043
12960;176806;34.40;160;03.11.11.043
12964;176805;34.40;161;03.11.11.043
12920;176807;34.40;162;03.11.11.043
12948;176804;34.40;163;03.11.11.043
12964;176803;34.40;164;03.11.11.043
12940;176802;34.40;165;03.11.11.043
12960;176796;34.40;166;03.11.11.043
12964;176791;34.40;167;03.11.11.054
12952;176799;34.40;168;03.11.11.054
12972;176793;34.40;169;03.11.11.054
12972;176786;34.40;170;03.11.11.054
12964;176784;34.40;171;03.11.11.054
12952;176790;34.40;172;03.11.11.054
12928;176796;34.40;173;03.11.11.054
12960;176791;34.40;174;03.11.11.054
12956;176789;34.40;175;03.11.11.153
12952;176801;34.40;176;03.11.11.164
12956;176792;34.40;177;03.11.11.164
12956;176794;34.40;178;03.11.11.164
12936;176792;34.40;179;03.11.11.164
12960;176798;34.40;180;03.11.11.164
12972;176790;34.40;181;03.11.11.164
12960;176795;34.40;182;03.11.11.164
12972;176791;34.40;183;03.11.11.164
12956;176784;34.40;184;03.11.11.164
12936;176785;34.40;185;03.11.11.164
12944;176790;34.40;186;03.11.11.164
12960;176791;34.40;187;03.11.11.164
12932;176788;34.40;188;03.11.11.164
12952;176790;34.40;189;03.11.11.175
12980;176798;34.40;190;03.11.11.175
12964;176793;34.40;191;03.11.11.175
12948;176794;34.40;192;03.11.11.175
12948;176803;34.40;193;03.11.11.175
12976;176802;34.40;194;03.11.11.175
12928;176799;34.40;195;03.11.11.175
12944;176807;34.40;196;03.11.11.175
12940;176806;34.40;197;03.11.11.175
12964;176809;34.40;198;03.11.11.175
12944;176811;34.40;199;03.11.11.175
12944;176804;34.40;200;03.11.11.295
12972;176814;34.40;201;03.11.11.295
12960;176811;34.40;202;03.11.11.295
12948;176815;34.40;203;03.11.11.295
12968;176820;34.40;204;03.11.11.295
12956;176822;34.40;205;03.11.11.295
12964;176813;34.40;206;03.11.11.295
12976;176816;34.40;207;03.11.11.295
12968;176816;34.40;208;03.11.11.295
12960;176816;34.40;209;03.11.11.295
12960;176822;34.40;210;03.11.11.306
12940;176815;34.40;211;03.11.11.306
12948;176812;34.40;212;03.11.11.306
12976;176826;34.40;213;03.11.11.306
12956;176817;34.40;214;03.11.11.306
12928;176820;34.40;215;03.11.11.306
12964;176820;34.40;216;03.11.11.306
12960;176819;34.40;217;03.11.11.306
12956;176817;34.40;218;03.11.11.306
12968;176817;34.40;219;03.11.11.306
12976;176813;34.40;220;03.11.11.306
12952;176805;34.40;221;03.11.11.306
12940;176809;34.40;222;03.11.11.317
12936;176803;34.40;223;03.11.11.317
12940;176804;34.40;224;03.11.11.317
12956;176801;34.40;225;03.11.11.405
12952;176793;34.40;226;03.11.11.405
12948;176793;34.40;227;03.11.11.405
12968;176787;34.40;228;03.11.11.405
12952;176790;34.40;229;03.11.11.405
12948;176788;34.40;230;03.11.11.405
12920;176782;34.40;231;03.11.11.416
12968;176789;34.40;232;03.11.11.416
12940;176778;34.40;233;03.11.11.416
12948;176781;34.40;234;03.11.11.416
12960;176780;34.40;235;03.11.11.416
12940;176777;34.40;236;03.11.11.416
12968;176776;34.40;237;03.11.11.416
12956;176776;34.40;238;03.11.11.427
12960;176778;34.40;239;03.11.11.427
12972;176776;34.40;240;03.11.11.427
12976;176774;34.40;241;03.11.11.427
12924;176785;34.40;242;03.11.11.427
12976;176788;34.40;243;03.11.11.427
12964;176772;34.40;244;03.11.11.427
12936;176780;34.40;245;03.11.11.427
12960;176774;34.40;246;03.11.11.427
12944;176781;34.40;247;03.11.11.427
12960;176787;34.40;248;03.11.11.427
12924;176777;34.40;249;03.11.11.427
12932;176780;34.40;250;03.11.11.525
12960;176790;34.40;251;03.11.11.525
12952;176786;34.40;252;03.11.11.536
12952;176782;34.40;253;03.11.11.536
12944;176784;34.40;254;03.11.11.536
12952;176787;34.40;255;03.11.11.536
12948;176779;34.40;256;03.11.11.536
12952;176789;34.40;257;03.11.11.536
12956;176788;34.40;258;03.11.11.536
12956;176787;34.40;259;03.11.11.536
12960;176776;34.40;260;03.11.11.536
12940;176784;34.40;261;03.11.11.536
12956;176775;34.40;262;03.11.11.536
12948;176784;34.40;263;03.11.11.547
12952;176776;34.40;264;03.11.11.547
12952;176780;34.40;265;03.11.11.547
12948;176770;34.40;266;03.11.11.547
12944;176777;34.40;267;03.11.11.547
12932;176781;34.40;268;03.11.11.547
12920;176778;34.40;269;03.11.11.547
12968;176787;34.40;270;03.11.11.547
12960;176790;34.40;271;03.11.11.547
12952;176789;34.40;272;03.11.11.547
12940;176784;34.40;273;03.11.11.547
12940;176788;34.40;274;03.11.11.547
12952;176788;34.40;275;03.11.11.656
12976;176784;34.40;276;03.11.11.656
12976;176783;34.40;277;03.11.11.656
12940;176779;34.40;278;03.11.11.656
12960;176781;34.40;279;03.11.11.656
12952;176784;34.40;280;03.11.11.656
12940;176783;34.40;281;03.11.11.656
12960;176782;34.40;282;03.11.11.656
12940;176779;34.40;283;03.11.11.667
12960;176781;34.40;284;03.11.11.667
12948;176783;34.40;285;03.11.11.667
12948;176773;34.40;286;03.11.11.667
12940;176778;34.40;287;03.11.11.667
12908;176774;34.40;288;03.11.11.667
12960;176779;34.40;289;03.11.11.667
12948;176784;34.40;290;03.11.11.667
12948;176787;34.40;291;03.11.11.667
12968;176779;34.40;292;03.11.11.667
12948;176782;34.40;293;03.11.11.667
12960;176781;34.40;294;03.11.11.667
12972;176774;34.40;295;03.11.11.678
12992;176777;34.40;296;03.11.11.678
12968;176780;34.40;297;03.11.11.678
12936;176783;34.40;298;03.11.11.678
12992;176774;34.40;299;03.11.11.678
12960;176777;34.40;300;03.11.11.788
12972;176782;34.40;301;03.11.11.788
12932;176775;34.40;302;03.11.11.788
12952;176781;34.40;303;03.11.11.788
12968;176780;34.40;304;03.11.11.788
12956;176779;34.40;305;03.11.11.788
12964;176779;34.40;306;03.11.11.788
12960;176776;34.40;307;03.11.11.798
12960;176777;34.40;308;03.11.11.798
12948;176769;34.40;309;03.11.11.798
12924;176773;34.40;310;03.11.11.798
12960;176773;34.40;311;03.11.11.798
12964;176774;34.40;312;03.11.11.798
12964;176782;34.40;313;03.11.11.798
12948;176770;34.40;314;03.11.11.798
12956;176771;34.40;315;03.11.11.798
12952;176764;34.40;316;03.11.11.798
12956;176774;34.40;317;03.11.11.798
12952;176777;34.40;318;03.11.11.798
12936;176776;34.40;319;03.11.11.809
12952;176776;34.40;320;03.11.11.809
12940;176773;34.40;321;03.11.11.809
12960;176776;34.40;322;03.11.11.809
12924;176784;34.40;323;03.11.11.809
12976;176776;34.40;324;03.11.11.809
12932;176789;34.40;325;03.11.11.929
12924;176791;34.40;326;03.11.11.929
12940;176782;34.40;327;03.11.11.929
12944;176786;34.40;328;03.11.11.929
12924;176784;34.40;329;03.11.11.929
12952;176787;34.40;330;03.11.11.929
12960;176792;34.40;331;03.11.11.929
12952;176789;34.40;332;03.11.11.929
12952;176798;34.40;333;03.11.11.929
12952;176787;34.40;334;03.11.11.929
12960;176790;34.40;335;03.11.11.929
12932;176799;34.40;336;03.11.11.929
12960;176795;34.40;337;03.11.11.929
12928;176790;34.40;338;03.11.11.929
12964;176796;34.40;339;03.11.11.940
12952;176799;34.40;340;03.11.11.940
12920;176791;34.40;341;03.11.11.940
12976;176795;34.40;342;03.11.11.940
12968;176801;34.40;343;03.11.11.940
12968;176795;34.40;344;03.11.11.940
12956;176792;34.40;345;03.11.11.940
12956;176805;34.40;346;03.11.11.940
12932;176797;34.40;347;03.11.11.940
12928;176806;34.40;348;03.11.11.940
12948;176807;34.40;349;03.11.11.940
12968;176806;34.40;350;03.11.12.060
12956;176811;34.40;351;03.11.12.060
12964;176808;34.40;352;03.11.12.060
12956;176803;34.40;353;03.11.12.060
12924;176807;34.40;354;03.11.12.060
12952;176817;34.40;355;03.11.12.060
12972;176814;34.40;356;03.11.12.060
12972;176811;34.40;357;03.11.12.060
12924;176814;34.40;358;03.11.12.060
12964;176817;34.40;359;03.11.12.071
12968;176818;34.40;360;03.11.12.071
12944;176820;34.40;361;03.11.12.071
12936;176829;34.40;362;03.11.12.071
12948;176829;34.40;363;03.11.12.071
12960;176827;34.40;364;03.11.12.071
12964;176820;34.40;365;03.11.12.071
12952;176828;34.40;366;03.11.12.071
12924;176827;34.40;367;03.11.12.082
12952;176822;34.40;368;03.11.12.082
12956;176828;34.40;369;03.11.12.082
12968;176832;34.40;370;03.11.12.082
12972;176835;34.40;371;03.11.12.082
12980;176836;34.40;372;03.11.12.082
12932;176831;34.40;373;03.11.12.082
12936;176824;34.40;374;03.11.12.082
12952;176826;34.40;375;03.11.12.159
12964;176831;34.40;376;03.11.12.159
12924;176826;34.40;377;03.11.12.159
12920;176824;34.40;378;03.11.12.159
12952;176817;34.40;379;03.11.12.159
12948;176825;34.40;380;03.11.12.159
12968;176828;34.40;381;03.11.12.169
12968;176823;34.40;382;03.11.12.169
12936;176821;34.40;383;03.11.12.169
12944;176812;34.40;384;03.11.12.169
12952;176807;34.40;385;03.11.12.169
12976;176804;34.40;386;03.11.12.169
12976;176802;34.40;387;03.11.12.169
12956;176795;34.40;388;03.11.12.169
12924;176793;34.40;389;03.11.12.169
12948;176801;34.40;390;03.11.12.169
12960;176788;34.40;391;03.11.12.169
12936;176792;34.40;392;03.11.12.169
12936;176784;34.40;393;03.11.12.169
12960;176779;34.40;394;03.11.12.180
12940;176785;34.40;395;03.11.12.180
12960;176781;34.40;396;03.11.12.180
12976;176784;34.40;397;03.11.12.180
12960;176777;34.40;398;03.11.12.180
12972;176769;34.40;399;03.11.12.180
12944;176770;34.40;400;03.11.12.279
12928;176764;34.40;401;03.11.12.279
12936;176766;34.40;402;03.11.12.290
12944;176767;34.40;403;03.11.12.290
12940;176762;34.40;404;03.11.12.290
12964;176762;34.40;405;03.11.12.290
12944;176763;34.40;406;03.11.12.290
12916;176766;34.40;407;03.11.12.290
12976;176759;34.40;408;03.11.12.290
12936;176768;34.40;409;03.11.12.290
12968;176765;34.40;410;03.11.12.290
12960;176763;34.40;411;03.11.12.290
12936;176756;34.40;412;03.11.12.290
12952;176764;34.40;413;03.11.12.290
12956;176752;34.40;414;03.11.12.290
12940;176759;34.40;415;03.11.12.290
12940;176754;34.40;416;03.11.12.301
12968;176752;34.40;417;03.11.12.301
12940;176758;34.40;418;03.11.12.301
12956;176759;34.40;419;03.11.12.301
12960;176752;34.40;420;03.11.12.301
12944;176754;34.40;421;03.11.12.301
12940;176751;34.40;422;03.11.12.301
12960;176745;34.40;423;03.11.12.301
12984;176747;34.40;424;03.11.12.301
12952;176748;34.40;425;03.11.12.422
12952;176744;34.40;426;03.11.12.422
12968;176750;34.40;427;03.11.12.422
12948;176747;34.40;428;03.11.12.422
12960;176749;34.40;429;03.11.12.422
12944;176755;34.40;430;03.11.12.422
12968;176752;34.40;431;03.11.12.422
12976;176749;34.40;432;03.11.12.422
12948;176748;34.40;433;03.11.12.422
12956;176749;34.40;434;03.11.12.422
12944;176748;34.40;435;03.11.12.422
12932;176747;34.40;436;03.11.12.433
12968;176756;34.40;437;03.11.12.433
12948;176751;34.40;438;03.11.12.433
12944;176746;34.40;439;03.11.12.433
12932;176740;34.40;440;03.11.12.433
12956;176739;34.40;441;03.11.12.433
12936;176738;34.40;442;03.11.12.433
12972;176744;34.40;443;03.11.12.433
12968;176751;34.40;444;03.11.12.433
12948;176746;34.40;445;03.11.12.433
12968;176746;34.40;446;03.11.12.433
12944;176740;34.40;447;03.11.12.433
12960;176742;34.40;448;03.11.12.433
12924;176748;34.40;449;03.11.12.444
12952;176739;34.40;450;03.11.12.532
12960;176741;34.40;451;03.11.12.532
12968;176746;34.40;452;03.11.12.532
12976;176739;34.40;453;03.11.12.532
12956;176746;34.40;454;03.11.12.532
12960;176750;34.40;455;03.11.12.532
12960;176750;34.40;456;03.11.12.532
12972;176744;34.40;457;03.11.12.532
12944;176741;34.40;458;03.11.12.564
12940;176747;34.40;459;03.11.12.564
12944;176750;34.40;460;03.11.12.564
12976;176746;34.40;461;03.11.12.564
12956;176756;34.40;462;03.11.12.564
12940;176747;34.40;463;03.11.12.564
12940;176760;34.40;464;03.11.12.564
12932;176755;34.40;465;03.11.12.564
12968;176752;34.40;466;03.11.12.575
12968;176753;34.40;467;03.11.12.575
12952;176749;34.40;468;03.11.12.575
12940;176748;34.40;469;03.11.12.575
12940;176749;34.40;470;03.11.12.575
12956;176748;34.40;471;03.11.12.575
12956;176748;34.40;472;03.11.12.575
12960;176738;34.40;473;03.11.12.575
12940;176752;34.40;474;03.11.12.575
12952;176746;34.36;475;03.11.12.652
12964;176758;34.36;476;03.11.12.652
12952;176760;34.36;477;03.11.12.652
12972;176758;34.36;478;03.11.12.652
12956;176756;34.36;479;03.11.12.663
12980;176758;34.36;480;03.11.12.663
12976;176758;34.36;481;03.11.12.663
12968;176757;34.36;482;03.11.12.663
12972;176768;34.36;483;03.11.12.663
12952;176762;34.36;484;03.11.12.663
12964;176766;34.36;485;03.11.12.663
12924;176762;34.36;486;03.11.12.663
12956;176760;34.36;487;03.11.12.663
12964;176763;34.36;488;03.11.12.663
12952;176767;34.36;489;03.11.12.663
12948;176769;34.36;490;03.11.12.663
12968;176775;34.36;491;03.11.12.663
12948;176768;34.36;492;03.11.12.696
12992;176762;34.36;493;03.11.12.696
12960;176775;34.36;494;03.11.12.696
12960;176771;34.36;495;03.11.12.696
12952;176775;34.36;496;03.11.12.707
12968;176774;34.36;497;03.11.12.707
12940;176778;34.36;498;03.11.12.707
12960;176788;34.36;499;03.11.12.707
12992;176778;34.36;500;03.11.12.795
12960;176780;34.36;501;03.11.12.795
12932;176783;34.36;502;03.11.12.795
12956;176785;34.36;503;03.11.12.795
12920;176779;34.36;504;03.11.12.795
12956;176785;34.36;505;03.11.12.795
12956;176774;34.36;506;03.11.12.795
12968;176783;34.36;507;03.11.12.795
12956;176777;34.36;508;03.11.12.795
12940;176784;34.36;509;03.11.12.795
12956;176784;34.36;510;03.11.12.795
12960;176782;34.36;511;03.11.12.795
12952;176787;34.36;512;03.11.12.795
12944;176781;34.36;513;03.11.12.806
12980;176786;34.36;514;03.11.12.806
12964;176791;34.36;515;03.11.12.806
12960;176788;34.36;516;03.11.12.806
12960;176792;34.36;517;03.11.12.806
12960;176796;34.36;518;03.11.12.806
12960;176800;34.36;519;03.11.12.806
12924;176793;34.36;520;03.11.12.806
12960;176794;34.36;521;03.11.12.806
12964;176800;34.36;522;03.11.12.806
12932;176799;34.36;523;03.11.12.806
12964;176802;34.36;524;03.11.12.806
12956;176794;34.40;525;03.11.12.926
12936;176802;34.40;526;03.11.12.926
12932;176799;34.40;527;03.11.12.926
12964;176808;34.40;528;03.11.12.926
12936;176803;34.40;529;03.11.12.926
12960;176800;34.40;530;03.11.12.926
12936;176799;34.40;531;03.11.12.926
12924;176804;34.40;532;03.11.12.926
12964;176807;34.40;533;03.11.12.926
12948;176805;34.40;534;03.11.12.937
12968;176808;34.40;535;03.11.12.937
12936;176820;34.40;536;03.11.12.937
12944;176811;34.40;537;03.11.12.937
12944;176810;34.40;538;03.11.12.937
12924;176804;34.40;539;03.11.12.937
12968;176814;34.40;540;03.11.12.937
12944;176803;34.40;541;03.11.12.937
12948;176800;34.40;542;03.11.12.937
12940;176802;34.40;543;03.11.12.937
12948;176800;34.40;544;03.11.12.937
12924;176800;34.40;545;03.11.12.937
12968;176806;34.40;546;03.11.12.937
12948;176807;34.40;547;03.11.12.937
12968;176799;34.40;548;03.11.12.948
12968;176789;34.40;549;03.11.12.948
12936;176790;34.40;550;03.11.13.036
12928;176774;34.40;551;03.11.13.036
12976;176789;34.40;552;03.11.13.036
12940;176781;34.40;553;03.11.13.036
12964;176779;34.40;554;03.11.13.036
12964;176782;34.40;555;03.11.13.036
12936;176772;34.40;556;03.11.13.036
12968;176765;34.40;557;03.11.13.047
12976;176773;34.40;558;03.11.13.058
12960;176760;34.40;559;03.11.13.058
12952;176765;34.40;560;03.11.13.058
12976;176759;34.40;561;03.11.13.058
12948;176760;34.40;562;03.11.13.058
12968;176757;34.40;563;03.11.13.058
12960;176765;34.40;564;03.11.13.058
12956;176763;34.40;565;03.11.13.069
12940;176757;34.40;566;03.11.13.069
12960;176765;34.40;567;03.11.13.069
12968;176767;34.40;568;03.11.13.069
12948;176759;34.40;569;03.11.13.069
12932;176758;34.40;570;03.11.13.069
12948;176763;34.40;571;03.11.13.069
12936;176762;34.40;572;03.11.13.080
12932;176764;34.40;573;03.11.13.080
12976;176760;34.40;574;03.11.13.080
12952;176764;34.40;575;03.11.13.157
12932;176767;34.40;576;03.11.13.157
12956;176766;34.40;577;03.11.13.168
12952;176759;34.40;578;03.11.13.168
12952;176770;34.40;579;03.11.13.168
12956;176770;34.40;580;03.11.13.168
12956;176766;34.40;581;03.11.13.168
12960;176755;34.40;582;03.11.13.168
12952;176769;34.40;583;03.11.13.168
12948;176764;34.40;584;03.11.13.168
12992;176752;34.40;585;03.11.13.168
12964;176758;34.40;586;03.11.13.168
12916;176764;34.40;587;03.11.13.179
12956;176757;34.40;588;03.11.13.179
12932;176761;34.40;589;03.11.13.179
12992;176758;34.40;590;03.11.13.179
12944;176756;34.40;591;03.11.13.179
12920;176762;34.40;592;03.11.13.189
12908;176766;34.40;593;03.11.13.189
12940;176762;34.40;594;03.11.13.200
12952;176766;34.40;595;03.11.13.200
12940;176770;34.40;596;03.11.13.200
12960;176762;34.40;597;03.11.13.200
12952;176767;34.40;598;03.11.13.200
12968;176764;34.40;599;03.11.13.200
12992;176757;34.40;600;03.11.13.299
12920;176768;34.40;601;03.11.13.299
12960;176764;34.40;602;03.11.13.299
12944;176759;34.40;603;03.11.13.299
12948;176762;34.40;604;03.11.13.299
12972;176764;34.40;605;03.11.13.299
12948;176758;34.40;606;03.11.13.299
12956;176764;34.40;607;03.11.13.299
12968;176759;34.40;608;03.11.13.299
12976;176764;34.40;609;03.11.13.299
12940;176770;34.40;610;03.11.13.299
12944;176766;34.40;611;03.11.13.299
12964;176764;34.40;612;03.11.13.310
12952;176756;34.40;613;03.11.13.310
12924;176754;34.40;614;03.11.13.310
12920;176763;34.40;615;03.11.13.310
12952;176768;34.40;616;03.11.13.310
12952;176765;34.40;617;03.11.13.310
12948;176773;34.40;618;03.11.13.310
12960;176768;34.40;619;03.11.13.310
12968;176763;34.40;620;03.11.13.310
12952;176764;34.40;621;03.11.13.310
12936;176762;34.40;622;03.11.13.310
12940;176767;34.40;623;03.11.13.310
12956;176769;34.40;624;03.11.13.321
12960;176770;34.40;625;03.11.13.430
12924;176770;34.40;626;03.11.13.430
12952;176767;34.40;627;03.11.13.430
12976;176769;34.40;628;03.11.13.430
12940;176764;34.40;629;03.11.13.430
12960;176773;34.40;630;03.11.13.430
12956;176769;34.40;631;03.11.13.441
12976;176767;34.40;632;03.11.13.441
12956;176775;34.40;633;03.11.13.441
12960;176773;34.40;634;03.11.13.441
12948;176777;34.40;635;03.11.13.441
12944;176766;34.40;636;03.11.13.441
12992;176768;34.40;637;03.11.13.441
12980;176770;34.40;638;03.11.13.441
12932;176771;34.40;639;03.11.13.441
12964;176773;34.40;640;03.11.13.441
12944;176776;34.40;641;03.11.13.441
12960;176774;34.40;642;03.11.13.441
12960;176775;34.40;643;03.11.13.441
12960;176771;34.40;644;03.11.13.452
12936;176770;34.40;645;03.11.13.452
12960;176781;34.40;646;03.11.13.452
12960;176776;34.40;647;03.11.13.452
12948;176779;34.40;648;03.11.13.452
12916;176778;34.40;649;03.11.13.452
12956;176778;34.40;650;03.11.13.561
12952;176776;34.40;651;03.11.13.572
12944;176779;34.40;652;03.11.13.572
12952;176775;34.40;653;03.11.13.572
12960;176781;34.40;654;03.11.13.572
12924;176777;34.40;655;03.11.13.572
12992;176785;34.40;656;03.11.13.572
12956;176785;34.40;657;03.11.13.572
12968;176786;34.40;658;03.11.13.572
12976;176784;34.40;659;03.11.13.572
12960;176783;34.40;660;03.11.13.583
12944;176778;34.40;661;03.11.13.583
12936;176794;34.40;662;03.11.13.583
12968;176788;34.40;663;03.11.13.583
12952;176789;34.40;664;03.11.13.583
12960;176793;34.40;665;03.11.13.583
12960;176790;34.40;666;03.11.13.583
12960;176787;34.40;667;03.11.13.594
12968;176791;34.40;668;03.11.13.605
12972;176791;34.40;669;03.11.13.605
12952;176797;34.40;670;03.11.13.605
12984;176794;34.40;671;03.11.13.605
12968;176796;34.40;672;03.11.13.605
12964;176789;34.40;673;03.11.13.605
12960;176794;34.40;674;03.11.13.605
12976;176786;34.40;675;03.11.13.660
12960;176799;34.40;676;03.11.13.660
12960;176800;34.40;677;03.11.13.660
12980;176799;34.40;678;03.11.13.660
12944;176795;34.40;679;03.11.13.660
12944;176790;34.40;680;03.11.13.660
12944;176794;34.40;681;03.11.13.660
12952;176799;34.40;682;03.11.13.660
12948;176797;34.40;683;03.11.13.671
12968;176801;34.40;684;03.11.13.671
12936;176794;34.40;685;03.11.13.671
12932;176798;34.40;686;03.11.13.671
12948;176799;34.40;687;03.11.13.671
12968;176798;34.40;688;03.11.13.671
12976;176804;34.40;689;03.11.13.671
12956;176809;34.40;690;03.11.13.671
12948;176810;34.40;691;03.11.13.671
12940;176808;34.40;692;03.11.13.693
12948;176815;34.40;693;03.11.13.693
12960;176808;34.40;694;03.11.13.693
12948;176815;34.40;695;03.11.13.693
12948;176814;34.40;696;03.11.13.693
12956;176810;34.40;697;03.11.13.693
12960;176803;34.40;698;03.11.13.693
12948;176800;34.40;699;03.11.13.693
12964;176802;34.40;700;03.11.13.780
12944;176801;34.40;701;03.11.13.780
12956;176805;34.40;702;03.11.13.780
12968;176803;34.40;703;03.11.13.780
12952;176806;34.40;704;03.11.13.780
12964;176795;34.40;705;03.11.13.780
12920;176796;34.40;706;03.11.13.780
12992;176790;34.40;707;03.11.13.780
12964;176784;34.40;708;03.11.13.791
12952;176782;34.40;709;03.11.13.791
12968;176785;34.40;710;03.11.13.791
12968;176782;34.40;711;03.11.13.791
12960;176779;34.40;712;03.11.13.791
12976;176770;34.40;713;03.11.13.791
12956;176771;34.40;714;03.11.13.791
12952;176770;34.40;715;03.11.13.791
12960;176764;34.40;716;03.11.13.791
12948;176770;34.40;717;03.11.13.791
12960;176770;34.40;718;03.11.13.791
12932;176764;34.40;719;03.11.13.791
12960;176771;34.40;720;03.11.13.791
12992;176763;34.40;721;03.11.13.802
12932;176766;34.40;722;03.11.13.802
12940;176765;34.40;723;03.11.13.802
12968;176764;34.40;724;03.11.13.802
12940;176761;34.40;725;03.11.13.912
12932;176757;34.40;726;03.11.13.912
12940;176762;34.40;727;03.11.13.912
12936;176762;34.40;728;03.11.13.923
12968;176753;34.40;729;03.11.13.923
12924;176755;34.40;730;03.11.13.923
12980;176755;34.40;731;03.11.13.923
12952;176763;34.40;732;03.11.13.923
12932;176754;34.40;733;03.11.13.934
12932;176755;34.40;734;03.11.13.934
12968;176755;34.40;735;03.11.13.934
12936;176760;34.40;736;03.11.13.934
12960;176755;34.40;737;03.11.13.945
12976;176750;34.40;738;03.11.13.945
12944;176754;34.40;739;03.11.13.945
12960;176758;34.40;740;03.11.13.945
12976;176750;34.40;741;03.11.13.945
12956;176753;34.40;742;03.11.13.956
12964;176753;34.40;743;03.11.13.956
12952;176757;34.40;744;03.11.13.956
12960;176756;34.40;745;03.11.13.967
12940;176746;34.40;746;03.11.13.967
12940;176742;34.40;747;03.11.13.967
12964;176753;34.40;748;03.11.13.967
12976;176749;34.40;749;03.11.13.967
12944;176746;34.40;750;03.11.14.055
12960;176748;34.40;751;03.11.14.055
12972;176741;34.40;752;03.11.14.055
12960;176746;34.40;753;03.11.14.055
12948;176747;34.40;754;03.11.14.055
12956;176741;34.40;755;03.11.14.055
12968;176738;34.40;756;03.11.14.055
12960;176743;34.40;757;03.11.14.055
12964;176746;34.40;758;03.11.14.055
12968;176748;34.40;759;03.11.14.066
12964;176737;34.40;760;03.11.14.066
12944;176754;34.40;761;03.11.14.066
12976;176742;34.40;762;03.11.14.066
12980;176751;34.40;763;03.11.14.066
12952;176742;34.40;764;03.11.14.066
12948;176740;34.40;765;03.11.14.066
12960;176749;34.40;766;03.11.14.066
12960;176748;34.40;767;03.11.14.066
12960;176744;34.40;768;03.11.14.066
12968;176742;34.40;769;03.11.14.066
12956;176749;34.40;770;03.11.14.066
12952;176737;34.40;771;03.11.14.066
12964;176742;34.40;772;03.11.14.077
12964;176741;34.40;773;03.11.14.077
12972;176743;34.40;774;03.11.14.077
12968;176735;34.36;775;03.11.14.164
12968;176743;34.36;776;03.11.14.164
12940;176739;34.36;777;03.11.14.164
12948;176739;34.36;778;03.11.14.164
12960;176743;34.36;779;03.11.14.164
12948;176740;34.36;780;03.11.14.164
12948;176744;34.36;781;03.11.14.164
12920;176752;34.36;782;03.11.14.164
12964;176747;34.36;783;03.11.14.186
12960;176742;34.36;784;03.11.14.186
12960;176748;34.36;785;03.11.14.186
12976;176748;34.36;786;03.11.14.186
12948;176754;34.36;787;03.11.14.186
12968;176754;34.36;788;03.11.14.186
12932;176757;34.36;789;03.11.14.186
12936;176745;34.36;790;03.11.14.186
12964;176746;34.36;791;03.11.14.186
12936;176757;34.36;792;03.11.14.186
12960;176756;34.36;793;03.11.14.186
12944;176745;34.36;794;03.11.14.197
12976;176754;34.36;795;03.11.14.197
12960;176751;34.36;796;03.11.14.197
12932;176753;34.36;797;03.11.14.197
12928;176754;34.36;798;03.11.14.197
12964;176754;34.36;799;03.11.14.197
12932;176755;34.36;800;03.11.14.285
12916;176760;34.36;801;03.11.14.285
12968;176759;34.36;802;03.11.14.285
12976;176761;34.36;803;03.11.14.285
12964;176764;34.36;804;03.11.14.285
12944;176760;34.36;805;03.11.14.285
12924;176764;34.36;806;03.11.14.296
12972;176762;34.36;807;03.11.14.296
12936;176773;34.36;808;03.11.14.296
12968;176760;34.36;809;03.11.14.296
12936;176760;34.36;810;03.11.14.296
12980;176758;34.36;811;03.11.14.296
12976;176769;34.36;812;03.11.14.296
12932;176763;34.36;813;03.11.14.296
12960;176769;34.36;814;03.11.14.296
12960;176763;34.36;815;03.11.14.296
12948;176756;34.36;816;03.11.14.296
12964;176763;34.36;817;03.11.14.296
12976;176768;34.36;818;03.11.14.296
12948;176767;34.36;819;03.11.14.307
12916;176768;34.36;820;03.11.14.307
12964;176768;34.36;821;03.11.14.307
12952;176769;34.36;822;03.11.14.307
12940;176775;34.36;823;03.11.14.307
12940;176770;34.36;824;03.11.14.307
12928;176772;34.40;825;03.11.14.405
12932;176770;34.40;826;03.11.14.405
12944;176772;34.40;827;03.11.14.416
12948;176781;34.40;828;03.11.14.416
12940;176777;34.40;829;03.11.14.416
12944;176785;34.40;830;03.11.14.416
12968;176780;34.40;831;03.11.14.416
12956;176778;34.40;832;03.11.14.416
12964;176778;34.40;833;03.11.14.416
12944;176783;34.40;834;03.11.14.416
12952;176788;34.40;835;03.11.14.416
12932;176777;34.40;836;03.11.14.416
12944;176778;34.40;837;03.11.14.416
12932;176781;34.40;838;03.11.14.416
12956;176791;34.40;839;03.11.14.416
12944;176785;34.40;840;03.11.14.427
12960;176783;34.40;841;03.11.14.427
12976;176781;34.40;842;03.11.14.427
12952;176784;34.40;843;03.11.14.427
12940;176787;34.40;844;03.11.14.427
12964;176784;34.40;845;03.11.14.427
12944;176790;34.40;846;03.11.14.427
12924;176796;34.40;847;03.11.14.427
12940;176792;34.40;848;03.11.14.427
12960;176801;34.40;849;03.11.14.427
12948;176798;34.40;850;03.11.14.547
12972;176791;34.40;851;03.11.14.547
12952;176797;34.40;852;03.11.14.547
12976;176787;34.40;853;03.11.14.547
12972;176790;34.40;854;03.11.14.547
12928;176800;34.40;855;03.11.14.547
12964;176794;34.40;856;03.11.14.547
12956;176791;34.40;857;03.11.14.547
12948;176800;34.40;858;03.11.14.547
12952;176805;34.40;859;03.11.14.547
12956;176796;34.40;860;03.11.14.558
12948;176798;34.40;861;03.11.14.558
12956;176798;34.40;862;03.11.14.558
12976;176797;34.40;863;03.11.14.558
12936;176799;34.40;864;03.11.14.558
12960;176788;34.40;865;03.11.14.558
12920;176795;34.40;866;03.11.14.558
12948;176793;34.40;867;03.11.14.569
12932;176787;34.40;868;03.11.14.569
12944;176791;34.40;869;03.11.14.569
12944;176787;34.40;870;03.11.14.569
12960;176791;34.40;871;03.11.14.569
12968;176779;34.40;872;03.11.14.569
12952;176775;34.40;873;03.11.14.569
12952;176769;34.40;874;03.11.14.569
12928;176774;34.36;875;03.11.14.679
12932;176764;34.36;876;03.11.14.679
12936;176767;34.36;877;03.11.14.679
12952;176761;34.36;878;03.11.14.679
12940;176765;34.36;879;03.11.14.679
12972;176761;34.36;880;03.11.14.679
12960;176762;34.36;881;03.11.14.690
12960;176763;34.36;882;03.11.14.690
12960;176752;34.36;883;03.11.14.690
12956;176758;34.36;884;03.11.14.690
12960;176761;34.36;885;03.11.14.690
12948;176749;34.36;886;03.11.14.690
12952;176754;34.36;887;03.11.14.690
12948;176759;34.36;888;03.11.14.690
12940;176753;34.36;889;03.11.14.690
12924;176755;34.36;890;03.11.14.690
12960;176756;34.36;891;03.11.14.690
12956;176748;34.36;892;03.11.14.690
12948;176745;34.36;893;03.11.14.690
12940;176755;34.36;894;03.11.14.700
12984;176754;34.36;895;03.11.14.700
12960;176753;34.36;896;03.11.14.700
12960;176746;34.36;897;03.11.14.700
12960;176756;34.36;898;03.11.14.700
12964;176746;34.36;899;03.11.14.700
12936;176749;34.36;900;03.11.14.777
12940;176748;34.36;901;03.11.14.777
12952;176745;34.36;902;03.11.14.788
12964;176752;34.36;903;03.11.14.788
12972;176746;34.36;904;03.11.14.788
12928;176744;34.36;905;03.11.14.788
12948;176738;34.36;906;03.11.14.788
12960;176732;34.36;907;03.11.14.788
12924;176750;34.36;908;03.11.14.788
12960;176749;34.36;909;03.11.14.788
12948;176746;34.36;910;03.11.14.788
12952;176750;34.36;911;03.11.14.788
12940;176751;34.36;912;03.11.14.788
12952;176751;34.36;913;03.11.14.788
12948;176749;34.36;914;03.11.14.788
12924;176741;34.36;915;03.11.14.799
12972;176742;34.36;916;03.11.14.799
12940;176750;34.36;917;03.11.14.799
12940;176746;34.36;918;03.11.14.799
12976;176741;34.36;919;03.11.14.799
12972;176748;34.36;920;03.11.14.799
12972;176748;34.36;921;03.11.14.799
12948;176745;34.36;922;03.11.14.799
12968;176750;34.36;923;03.11.14.799
12956;176746;34.36;924;03.11.14.799
12956;176740;34.40;925;03.11.14.930
12940;176739;34.40;926;03.11.14.930
12976;176748;34.40;927;03.11.14.930
12924;176754;34.40;928;03.11.14.930
12952;176751;34.40;929;03.11.14.930
12952;176746;34.40;930;03.11.14.930
12960;176745;34.40;931;03.11.14.930
12940;176746;34.40;932;03.11.14.930
12960;176744;34.40;933;03.11.14.963
12964;176747;34.40;934;03.11.14.963
12960;176747;34.40;935;03.11.14.963
12948;176753;34.40;936;03.11.14.963
12960;176748;34.40;937;03.11.14.963
12952;176756;34.40;938;03.11.14.963
12956;176755;34.40;939;03.11.14.963
12952;176754;34.40;940;03.11.14.963
12932;176754;34.40;941;03.11.14.963
12948;176749;34.40;942;03.11.14.974
12956;176753;34.40;943;03.11.14.974
12924;176748;34.40;944;03.11.14.974
12924;176756;34.40;945;03.11.14.974
12944;176744;34.40;946;03.11.14.974
12956;176759;34.40;947;03.11.14.974
12944;176746;34.40;948;03.11.14.974
12952;176754;34.40;949;03.11.14.974
12936;176747;34.40;950;03.11.15.051
12908;176747;34.40;951;03.11.15.051
12956;176744;34.40;952;03.11.15.051
12928;176749;34.40;953;03.11.15.051
12964;176756;34.40;954;03.11.15.051
12956;176748;34.40;955;03.11.15.051
12960;176751;34.40;956;03.11.15.051
12936;176750;34.40;957;03.11.15.062
12948;176757;34.40;958;03.11.15.062
12948;176757;34.40;959;03.11.15.062
12948;176753;34.40;960;03.11.15.062
12956;176763;34.40;961;03.11.15.062
12952;176759;34.40;962;03.11.15.062
12960;176752;34.40;963;03.11.15.062
12956;176765;34.40;964;03.11.15.062
12924;176757;34.40;965;03.11.15.062
12960;176762;34.40;966;03.11.15.062
12960;176753;34.40;967;03.11.15.062
12952;176767;34.40;968;03.11.15.062
12944;176766;34.40;969;03.11.15.062
12936;176771;34.40;970;03.11.15.072
12924;176773;34.40;971;03.11.15.072
12940;176765;34.40;972;03.11.15.072
12940;176767;34.40;973;03.11.15.072
12972;176775;34.40;974;03.11.15.072
12968;176774;34.40;975;03.11.15.171
12952;176775;34.40;976;03.11.15.171
12944;176770;34.40;977;03.11.15.171
12968;176771;34.40;978;03.11.15.182
12956;176766;34.40;979;03.11.15.182
12948;176782;34.40;980;03.11.15.182
12908;176775;34.40;981;03.11.15.182
12948;176772;34.40;982;03.11.15.182
12940;176781;34.40;983;03.11.15.182
12960;176781;34.40;984;03.11.15.182
12944;176782;34.40;985;03.11.15.182
12952;176773;34.40;986;03.11.15.182
12928;176780;34.40;987;03.11.15.182
12940;176786;34.40;988;03.11.15.182
12948;176782;34.40;989;03.11.15.182
12952;176785;34.40;990;03.11.15.193
12936;176781;34.40;991;03.11.15.193
12948;176784;34.40;992;03.11.15.193
12956;176790;34.40;993;03.11.15.193
12924;176786;34.40;994;03.11.15.193
12972;176796;34.40;995;03.11.15.193
12928;176792;34.40;996;03.11.15.193
12940;176797;34.40;997;03.11.15.193
12960;176792;34.40;998;03.11.15.193
12956;176795;34.40;999;03.11.15.193
12944;176795;34.40;000;03.11.15.291
12952;176792;34.40;001;03.11.15.291
12976;176801;34.40;002;03.11.15.291
12928;176801;34.40;003;03.11.15.291
12952;176803;34.40;004;03.11.15.291
12948;176792;34.40;005;03.11.15.291
12960;176801;34.40;006;03.11.15.291
12916;176806;34.40;007;03.11.15.291
12952;176809;34.40;008;03.11.15.302
12924;176799;34.40;009;03.11.15.302
12936;176808;34.40;010;03.11.15.302
12968;176804;34.40;011;03.11.15.302
12960;176799;34.40;012;03.11.15.302
12952;176801;34.40;013;03.11.15.302
12960;176799;34.40;014;03.11.15.302
12960;176802;34.40;015;03.11.15.302
12960;176803;34.40;016;03.11.15.302
12956;176808;34.40;017;03.11.15.302
12944;176809;34.40;018;03.11.15.313
12976;176808;34.40;019;03.11.15.313
12964;176808;34.40;020;03.11.15.313
12940;176820;34.40;021;03.11.15.313
12960;176812;34.40;022;03.11.15.313
12968;176811;34.40;023;03.11.15.313
12956;176809;34.40;024;03.11.15.313
12964;176818;34.40;025;03.11.15.412
12956;176814;34.40;026;03.11.15.412
12956;176814;34.40;027;03.11.15.412
12960;176808;34.40;028;03.11.15.412
12956;176808;34.40;029;03.11.15.412
12968;176819;34.40;030;03.11.15.412
12944;176813;34.40;031;03.11.15.412
12932;176813;34.40;032;03.11.15.412
12952;176814;34.40;033;03.11.15.412
12948;176815;34.40;034;03.11.15.423
12952;176810;34.40;035;03.11.15.423
12956;176808;34.40;036;03.11.15.423
12944;176801;34.40;037;03.11.15.423
12948;176787;34.40;038;03.11.15.423
12928;176795;34.40;039;03.11.15.423
12940;176787;34.40;040;03.11.15.423
12964;176795;34.40;041;03.11.15.423
12944;176795;34.40;042;03.11.15.423
12944;176797;34.40;043;03.11.15.423
12960;176790;34.40;044;03.11.15.423
12940;176785;34.40;045;03.11.15.423
12960;176782;34.40;046;03.11.15.423
12948;176789;34.40;047;03.11.15.434
12964;176789;34.40;048;03.11.15.434
12976;176785;34.40;049;03.11.15.434
12936;176780;34.40;050;03.11.15.533
12968;176780;34.40;051;03.11.15.533
12964;176776;34.40;052;03.11.15.533
12916;176780;34.40;053;03.11.15.533
12944;176786;34.40;054;03.11.15.533
12960;176779;34.40;055;03.11.15.544
12944;176779;34.40;056;03.11.15.544
12924;176773;34.40;057;03.11.15.544
12956;176782;34.40;058;03.11.15.544
12932;176780;34.40;059;03.11.15.544
12960;176779;34.40;060;03.11.15.544
12968;176773;34.40;061;03.11.15.544
12928;176776;34.40;062;03.11.15.544
12956;176781;34.40;063;03.11.15.544
12980;176785;34.40;064;03.11.15.544
12948;176783;34.40;065;03.11.15.544
12944;176784;34.40;066;03.11.15.544
12960;176783;34.40;067;03.11.15.544
12940;176786;34.40;068;03.11.15.555
12932;176783;34.40;069;03.11.15.555
12940;176783;34.40;070;03.11.15.555
12960;176777;34.40;071;03.11.15.555
12932;176779;34.40;072;03.11.15.555
12964;176781;34.40;073;03.11.15.555
12968;176780;34.40;074;03.11.15.555
12968;176790;34.40;075;03.11.15.675
12956;176782;34.40;076;03.11.15.675
12940;176791;34.40;077;03.11.15.675
12944;176791;34.40;078;03.11.15.675
12968;176791;34.40;079;03.11.15.675
12948;176780;34.40;080;03.11.15.675
12940;176789;34.40;081;03.11.15.675
12952;176787;34.40;082;03.11.15.675
12960;176790;34.40;083;03.11.15.675
12952;176777;34.40;084;03.11.15.675
12924;176784;34.40;085;03.11.15.675
12956;176782;34.40;086;03.11.15.675
12960;176786;34.40;087;03.11.15.675
12940;176783;34.40;088;03.11.15.675
12952;176782;34.40;089;03.11.15.687
12968;176782;34.40;090;03.11.15.687
12960;176785;34.40;091;03.11.15.687
12948;176781;34.40;092;03.11.15.687
12956;176791;34.40;093;03.11.15.687
12940;176787;34.40;094;03.11.15.687
12936;176789;34.40;095;03.11.15.687
12956;176783;34.40;096;03.11.15.687
12952;176782;34.40;097;03.11.15.687
12968;176782;34.40;098;03.11.15.687
12940;176782;34.40;099;03.11.15.687
12968;176787;34.40;100;03.11.15.808
12940;176773;34.40;101;03.11.15.808
12968;176783;34.40;102;03.11.15.808
12944;176781;34.40;103;03.11.15.808
12956;176776;34.40;104;03.11.15.808
12924;176788;34.40;105;03.11.15.808
12940;176794;34.40;106;03.11.15.808
12964;176784;34.40;107;03.11.15.808
12968;176785;34.40;108;03.11.15.808
12992;176795;34.40;109;03.11.15.808
12924;176793;34.40;110;03.11.15.808
12956;176783;34.40;111;03.11.15.808
12980;176785;34.40;112;03.11.15.819
12960;176782;34.40;113;03.11.15.819
12972;176787;34.40;114;03.11.15.819
12976;176779;34.40;115;03.11.15.819
12964;176782;34.40;116;03.11.15.819
12940;176787;34.40;117;03.11.15.819
12932;176786;34.40;118;03.11.15.819
12948;176789;34.40;119;03.11.15.819
12936;176793;34.40;120;03.11.15.819
12960;176789;34.40;121;03.11.15.819
12932;176789;34.40;122;03.11.15.819
12968;176786;34.40;123;03.11.15.819
12916;176784;34.40;124;03.11.15.819
12968;176798;34.36;125;03.11.15.907
12932;176788;34.36;126;03.11.15.907
12980;176791;34.36;127;03.11.15.907
12956;176794;34.36;128;03.11.15.907
12960;176789;34.36;129;03.11.15.907
12976;176795;34.36;130;03.11.15.907
12968;176791;34.36;131;03.11.15.907
12956;176793;34.36;132;03.11.15.907
12976;176792;34.36;133;03.11.15.907
12924;176796;34.36;134;03.11.15.918
12976;176792;34.36;135;03.11.15.918
12960;176789;34.36;136;03.11.15.918
12960;176794;34.36;137;03.11.15.918
12956;176797;34.36;138;03.11.15.918
12936;176796;34.36;139;03.11.15.918
12980;176805;34.36;140;03.11.15.918
12964;176795;34.36;141;03.11.15.918
12940;176794;34.36;142;03.11.15.918
12944;176799;34.36;143;03.11.15.918
12964;176794;34.36;144;03.11.15.918
12952;176802;34.36;145;03.11.15.918
12956;176794;34.36;146;03.11.15.918
12932;176795;34.36;147;03.11.15.929
12964;176800;34.36;148;03.11.15.929
12944;176797;34.36;149;03.11.15.929
12948;176803;34.36;150;03.11.16.027
12964;176807;34.36;151;03.11.16.027
12948;176799;34.36;152;03.11.16.027
12944;176809;34.36;153;03.11.16.027
12960;176804;34.36;154;03.11.16.027
12944;176798;34.36;155;03.11.16.038
12956;176797;34.36;156;03.11.16.038
12948;176803;34.36;157;03.11.16.038
12960;176805;34.36;158;03.11.16.038
12940;176795;34.36;159;03.11.16.038
12960;176797;34.36;160;03.11.16.038
12980;176799;34.36;161;03.11.16.038
12964;176804;34.36;162;03.11.16.038
12976;176808;34.36;163;03.11.16.038
12932;176804;34.36;164;03.11.16.038
12952;176809;34.36;165;03.11.16.038
12940;176805;34.36;166;03.11.16.038
12972;176798;34.36;167;03.11.16.038
12956;176804;34.36;168;03.11.16.049
12932;176808;34.36;169;03.11.16.049
12952;176817;34.36;170;03.11.16.049
12932;176813;34.36;171;03.11.16.049
12964;176802;34.36;172;03.11.16.049
12936;176812;34.36;173;03.11.16.049
12952;176816;34.36;174;03.11.16.049
12964;176814;34.36;175;03.11.16.170
12976;176818;34.36;176;03.11.16.170
12944;176819;34.36;177;03.11.16.170
12940;176821;34.36;178;03.11.16.170
12968;176823;34.36;179;03.11.16.170
12968;176812;34.36;180;03.11.16.170
12952;176822;34.36;181;03.11.16.170
12976;176824;34.36;182;03.11.16.170
12924;176817;34.36;183;03.11.16.170
12968;176823;34.36;184;03.11.16.170
12940;176823;34.36;185;03.11.16.170
12932;176829;34.36;186;03.11.16.170
12940;176822;34.36;187;03.11.16.170
12956;176805;34.36;188;03.11.16.180
12952;176816;34.36;189;03.11.16.180
12932;176821;34.36;190;03.11.16.180
12948;176814;34.36;191;03.11.16.180
12956;176812;34.36;192;03.11.16.180
12924;176821;34.36;193;03.11.16.180
12992;176813;34.36;194;03.11.16.180
12936;176815;34.36;195;03.11.16.180
12968;176816;34.36;196;03.11.16.180
12968;176820;34.36;197;03.11.16.180
12944;176801;34.36;198;03.11.16.180
12972;176808;34.36;199;03.11.16.180
12948;176798;34.36;200;03.11.16.301
12964;176802;34.36;201;03.11.16.301
12928;176794;34.36;202;03.11.16.301
12924;176794;34.36;203;03.11.16.301
12960;176790;34.36;204;03.11.16.301
12964;176781;34.36;205;03.11.16.301
12944;176781;34.36;206;03.11.16.301
12960;176785;34.36;207;03.11.16.301
12964;176788;34.36;208;03.11.16.301
12992;176783;34.36;209;03.11.16.312
12980;176782;34.36;210;03.11.16.312
12968;176779;34.36;211;03.11.16.312
12964;176778;34.36;212;03.11.16.312
12948;176785;34.36;213;03.11.16.312
12944;176783;34.36;214;03.11.16.312
12968;176787;34.36;215;03.11.16.312
12952;176785;34.36;216;03.11.16.312
12948;176793;34.36;217;03.11.16.312
12960;176781;34.36;218;03.11.16.312
12976;176787;34.36;219;03.11.16.312
12944;176785;34.36;220;03.11.16.312
12948;176785;34.36;221;03.11.16.312
12948;176778;34.36;222;03.11.16.323
12964;176778;34.36;223;03.11.16.323
12964;176782;34.36;224;03.11.16.323
12956;176782;34.40;225;03.11.16.410
12960;176776;34.40;226;03.11.16.410
12968;176784;34.40;227;03.11.16.410
12936;176781;34.40;228;03.11.16.410
12968;176777;34.40;229;03.11.16.410
12952;176781;34.40;230;03.11.16.410
12960;176786;34.40;231;03.11.16.421
12948;176781;34.40;232;03.11.16.421
12948;176779;34.40;233;03.11.16.421
12944;176786;34.40;234;03.11.16.421
12960;176780;34.40;235;03.11.16.421
12940;176778;34.40;236;03.11.16.421
12944;176784;34.40;237;03.11.16.432
12952;176777;34.40;238;03.11.16.432
12940;176782;34.40;239;03.11.16.432
12968;176777;34.40;240;03.11.16.432
12968;176787;34.40;241;03.11.16.432
12948;176767;34.40;242;03.11.16.432
12964;176779;34.40;243;03.11.16.432
12984;176782;34.40;244;03.11.16.432
12920;176779;34.40;245;03.11.16.432
12976;176780;34.40;246;03.11.16.432
12972;176770;34.40;247;03.11.16.432
12944;176776;34.40;248;03.11.16.432
12952;176778;34.40;249;03.11.16.432
12952;176769;34.40;250;03.11.16.531
12976;176780;34.40;251;03.11.16.542
12960;176779;34.40;252;03.11.16.542
12924;176768;34.40;253;03.11.16.542
12952;176770;34.40;254;03.11.16.542
12960;176773;34.40;255;03.11.16.542
12976;176769;34.40;256;03.11.16.542
12948;176768;34.40;257;03.11.16.542
12956;176773;34.40;258;03.11.16.542
12964;176762;34.40;259;03.11.16.542
12936;176774;34.40;260;03.11.16.542
12980;176771;34.40;261;03.11.16.542
12956;176778;34.40;262;03.11.16.542
12960;176780;34.40;263;03.11.16.542
12964;176780;34.40;264;03.11.16.553
12936;176778;34.40;265;03.11.16.553
12956;176777;34.40;266;03.11.16.553
12960;176782;34.40;267;03.11.16.553
12976;176779;34.40;268;03.11.16.553
12960;176776;34.40;269;03.11.16.553
12956;176775;34.40;270;03.11.16.553
12944;176774;34.40;271;03.11.16.553
12932;176781;34.40;272;03.11.16.553
12940;176781;34.40;273;03.11.16.553
12940;176778;34.40;274;03.11.16.553
12964;176778;34.36;275;03.11.16.674
12964;176777;34.36;276;03.11.16.674
12980;176786;34.36;277;03.11.16.674
12960;176773;34.36;278;03.11.16.674
12960;176771;34.36;279;03.11.16.674
12964;176772;34.36;280;03.11.16.674
12960;176780;34.36;281;03.11.16.674
12944;176783;34.36;282;03.11.16.674
12968;176781;34.36;283;03.11.16.674
12956;176780;34.36;284;03.11.16.674
12960;176790;34.36;285;03.11.16.685
12944;176786;34.36;286;03.11.16.685
12948;176779;34.36;287;03.11.16.685
12928;176774;34.36;288;03.11.16.685
12948;176785;34.36;289;03.11.16.685
12944;176775;34.36;290;03.11.16.685
12948;176780;34.36;291;03.11.16.685
12940;176782;34.36;292;03.11.16.685
12956;176794;34.36;293;03.11.16.685
12984;176790;34.36;294;03.11.16.685
12992;176782;34.36;295;03.11.16.685
12968;176785;34.36;296;03.11.16.685
12944;176778;34.36;297;03.11.16.685
12952;176781;34.36;298;03.11.16.696
12992;176784;34.36;299;03.11.16.696
12940;176786;34.36;300;03.11.16.805
12964;176789;34.36;301;03.11.16.805
12944;176781;34.36;302;03.11.16.805
12956;176786;34.36;303;03.11.16.805
12944;176794;34.36;304;03.11.16.805
12968;176786;34.36;305;03.11.16.805
12952;176784;34.36;306;03.11.16.816
12944;176780;34.36;307;03.11.16.816
12964;176786;34.36;308;03.11.16.816
12968;176786;34.36;309;03.11.16.816
12948;176794;34.36;310;03.11.16.816
12964;176796;34.36;311;03.11.16.816
12976;176795;34.36;312;03.11.16.816
12976;176784;34.36;313;03.11.16.816
12956;176791;34.36;314;03.11.16.816
12960;176781;34.36;315;03.11.16.816
12956;176787;34.36;316;03.11.16.816
12916;176788;34.36;317;03.11.16.816
12968;176788;34.36;318;03.11.16.816
12956;176792;34.36;319;03.11.16.827
12976;176785;34.36;320;03.11.16.827
12972;176791;34.36;321;03.11.16.827
12944;176796;34.36;322;03.11.16.827
12948;176796;34.36;323;03.11.16.827
12960;176804;34.36;324;03.11.16.827
12944;176795;34.40;325;03.11.16.904
12924;176801;34.40;326;03.11.16.904
12956;176808;34.40;327;03.11.16.904
12956;176801;34.40;328;03.11.16.904
12956;176803;34.40;329;03.11.16.915
12948;176816;34.40;330;03.11.16.915
12964;176811;34.40;331;03.11.16.915
12960;176803;34.40;332;03.11.16.915
12948;176813;34.40;333;03.11.16.915
12964;176809;34.40;334;03.11.16.915
12956;176812;34.40;335;03.11.16.915
12956;176817;34.40;336;03.11.16.915
12940;176809;34.40;337;03.11.16.915
12940;176815;34.40;338;03.11.16.915
12960;176811;34.40;339;03.11.16.915
12956;176812;34.40;340;03.11.16.915
12948;176816;34.40;341;03.11.16.915
12940;176807;34.40;342;03.11.16.937
12940;176813;34.40;343;03.11.16.937
12928;176812;34.40;344;03.11.16.937
12948;176821;34.40;345;03.11.16.937
12964;176806;34.40;346;03.11.16.948
12976;176819;34.40;347;03.11.16.948
12960;176816;34.40;348;03.11.16.948
12956;176812;34.40;349;03.11.16.948
12960;176811;34.40;350;03.11.17.036
12960;176811;34.40;351;03.11.17.036
12976;176808;34.40;352;03.11.17.036
12948;176820;34.40;353;03.11.17.036
12956;176812;34.40;354;03.11.17.036
12952;176811;34.40;355;03.11.17.036
12964;176808;34.40;356;03.11.17.036
12960;176807;34.40;357;03.11.17.036
12964;176792;34.40;358;03.11.17.036
12960;176798;34.40;359;03.11.17.036
12952;176803;34.40;360;03.11.17.036
12968;176796;34.40;361;03.11.17.036
12944;176793;34.40;362;03.11.17.036
12956;176792;34.40;363;03.11.17.047
12968;176789;34.40;364;03.11.17.047
12968;176797;34.40;365;03.11.17.047
12956;176788;34.40;366;03.11.17.047
12972;176785;34.40;367;03.11.17.047
12976;176789;34.40;368;03.11.17.047
12956;176791;34.40;369;03.11.17.047
12940;176786;34.40;370;03.11.17.047
12952;176788;34.40;371;03.11.17.047
12920;176782;34.40;372;03.11.17.047
12956;176774;34.40;373;03.11.17.047
12960;176775;34.40;374;03.11.17.047
12968;176786;34.36;375;03.11.17.167
12944;176778;34.36;376;03.11.17.167
12932;176784;34.36;377;03.11.17.167
12948;176786;34.36;378;03.11.17.167
12948;176790;34.36;379;03.11.17.167
12920;176791;34.36;380;03.11.17.167
12948;176783;34.36;381;03.11.17.167
12968;176779;34.36;382;03.11.17.167
12948;176779;34.36;383;03.11.17.167
12944;176777;34.36;384;03.11.17.178
12940;176774;34.36;385;03.11.17.178
12952;176780;34.36;386;03.11.17.178
12956;176780;34.36;387;03.11.17.178
12960;176781;34.36;388;03.11.17.178
12960;176785;34.36;389;03.11.17.178
12960;176776;34.36;390;03.11.17.178
12956;176768;34.36;391;03.11.17.178
12948;176776;34.36;392;03.11.17.178
12956;176783;34.36;393;03.11.17.178
12976;176777;34.36;394;03.11.17.178
12932;176776;34.36;395;03.11.17.178
12944;176784;34.36;396;03.11.17.178
12948;176778;34.36;397;03.11.17.189
12976;176780;34.36;398;03.11.17.189
12964;176772;34.36;399;03.11.17.189
12972;176783;34.36;400;03.11.17.302
12964;176776;34.36;401;03.11.17.302
12984;176776;34.36;402;03.11.17.302
12944;176768;34.36;403;03.11.17.302
12964;176777;34.36;404;03.11.17.302
12964;176768;34.36;405;03.11.17.302
12952;176782;34.36;406;03.11.17.302
12940;176775;34.36;407;03.11.17.302
12952;176773;34.36;408;03.11.17.302
12956;176777;34.36;409;03.11.17.313
12948;176780;34.36;410;03.11.17.313
12936;176777;34.36;411;03.11.17.313
12924;176774;34.36;412;03.11.17.313
12956;176777;34.36;413;03.11.17.313
12968;176783;34.36;414;03.11.17.313
12972;176771;34.36;415;03.11.17.313
12948;176784;34.36;416;03.11.17.313
12944;176773;34.36;417;03.11.17.313
12976;176780;34.36;418;03.11.17.313
12952;176769;34.36;419;03.11.17.313
12976;176778;34.36;420;03.11.17.313
12968;176780;34.36;421;03.11.17.313
12956;176782;34.36;422;03.11.17.324
12964;176773;34.36;423;03.11.17.324
12968;176782;34.36;424;03.11.17.324
12920;176778;34.36;425;03.11.17.434
12960;176780;34.36;426;03.11.17.434
12936;176765;34.36;427;03.11.17.434
12992;176775;34.36;428;03.11.17.434
12956;176766;34.36;429;03.11.17.434
12976;176770;34.36;430;03.11.17.444
12952;176775;34.36;431;03.11.17.444
12952;176782;34.36;432;03.11.17.444
12936;176766;34.36;433;03.11.17.444
12944;176781;34.36;434;03.11.17.444
12976;176774;34.36;435;03.11.17.444
12960;176774;34.36;436;03.11.17.444
12968;176783;34.36;437;03.11.17.444
12936;176775;34.36;438;03.11.17.444
12944;176784;34.36;439;03.11.17.444
12960;176782;34.36;440;03.11.17.444
12936;176785;34.36;441;03.11.17.444
12956;176784;34.36;442;03.11.17.455
12944;176782;34.36;443;03.11.17.455
12940;176780;34.36;444;03.11.17.455
12964;176789;34.36;445;03.11.17.455
12944;176777;34.36;446;03.11.17.455
12984;176777;34.36;447;03.11.17.455
12944;176786;34.36;448;03.11.17.455
12956;176784;34.36;449;03.11.17.455
12940;176788;34.36;450;03.11.17.532
12960;176788;34.36;451;03.11.17.543
12960;176785;34.36;452;03.11.17.543
12976;176789;34.36;453;03.11.17.543
12948;176785;34.36;454;03.11.17.543
12940;176790;34.36;455;03.11.17.543
12936;176797;34.36;456;03.11.17.543
12952;176781;34.36;457;03.11.17.543
12976;176786;34.36;458;03.11.17.543
12960;176798;34.36;459;03.11.17.543
12956;176789;34.36;460;03.11.17.554
12944;176783;34.36;461;03.11.17.554
12932;176791;34.36;462;03.11.17.554
12948;176792;34.36;463;03.11.17.554
12932;176786;34.36;464;03.11.17.554
12944;176788;34.36;465;03.11.17.554
12960;176788;34.36;466;03.11.17.554
12960;176791;34.36;467;03.11.17.575
12964;176798;34.36;468;03.11.17.575
12976;176799;34.36;469;03.11.17.575
12964;176802;34.36;470;03.11.17.575
12956;176792;34.36;471;03.11.17.575
12948;176795;34.36;472;03.11.17.575
12968;176795;34.36;473;03.11.17.575
12968;176783;34.36;474;03.11.17.575
12960;176798;34.40;475;03.11.17.662
12948;176795;34.40;476;03.11.17.662
12940;176797;34.40;477;03.11.17.662
12952;176791;34.40;478;03.11.17.662
12976;176799;34.40;479;03.11.17.662
12976;176792;34.40;480;03.11.17.662
12960;176795;34.40;481;03.11.17.662
12964;176798;34.40;482;03.11.17.662
12964;176804;34.40;483;03.11.17.662
12944;176800;34.40;484;03.11.17.673
12956;176808;34.40;485;03.11.17.673
12944;176805;34.40;486;03.11.17.673
12948;176809;34.40;487;03.11.17.673
12956;176812;34.40;488;03.11.17.673
12964;176805;34.40;489;03.11.17.673
12972;176821;34.40;490;03.11.17.673
12972;176831;34.40;491;03.11.17.673
12952;176823;34.40;492;03.11.17.673
12952;176815;34.40;493;03.11.17.673
12956;176823;34.40;494;03.11.17.673
12936;176817;34.40;495;03.11.17.673
12952;176823;34.40;496;03.11.17.673
12968;176815;34.40;497;03.11.17.684
12968;176820;34.40;498;03.11.17.684
12952;176817;34.40;499;03.11.17.684
12948;176820;34.40;500;03.11.17.805
12956;176820;34.40;501;03.11.17.805
12968;176815;34.40;502;03.11.17.805
12948;176822;34.40;503;03.11.17.805
12956;176823;34.40;504;03.11.17.816
12928;176827;34.40;505;03.11.17.816
12924;176821;34.40;506;03.11.17.816
12948;176820;34.40;507;03.11.17.816
12960;176823;34.40;508;03.11.17.816
12964;176818;34.40;509;03.11.17.816
12924;176824;34.40;510;03.11.17.816
12952;176828;34.40;511;03.11.17.816
12948;176828;34.40;512;03.11.17.816
12964;176816;34.40;513;03.11.17.827
12984;176833;34.40;514;03.11.17.827
12948;176828;34.40;515;03.11.17.827
12952;176828;34.40;516;03.11.17.827
12976;176828;34.40;517;03.11.17.838
12960;176821;34.40;518;03.11.17.838
12948;176817;34.40;519;03.11.17.838
12968;176817;34.40;520;03.11.17.838
12948;176820;34.40;521;03.11.17.838
12968;176822;34.40;522;03.11.17.849
12960;176815;34.40;523;03.11.17.849
12976;176824;34.40;524;03.11.17.849
12968;176824;34.40;525;03.11.17.904
12924;176832;34.40;526;03.11.17.904
12948;176824;34.40;527;03.11.17.915
12960;176820;34.40;528;03.11.17.915
12952;176813;34.40;529;03.11.17.915
12952;176813;34.40;530;03.11.17.915
12956;176809;34.40;531;03.11.17.915
12964;176812;34.40;532;03.11.17.915
12924;176808;34.40;533;03.11.17.926
12960;176802;34.40;534;03.11.17.926
12960;176810;34.40;535;03.11.17.936
12964;176811;34.40;536;03.11.17.936
12964;176799;34.40;537;03.11.17.936
12940;176802;34.40;538;03.11.17.936
12936;176791;34.40;539;03.11.17.936
12960;176789;34.40;540;03.11.17.936
12972;176786;34.40;541;03.11.17.936
12916;176785;34.40;542;03.11.17.936
12932;176792;34.40;543;03.11.17.936
12964;176787;34.40;544;03.11.17.936
12984;176795;34.40;545;03.11.17.936
12940;176790;34.40;546;03.11.17.936
12940;176783;34.40;547;03.11.17.936
12920;176787;34.40;548;03.11.17.947
12960;176779;34.40;549;03.11.17.947
12916;176790;34.40;550;03.11.18.035
12940;176798;34.40;551;03.11.18.035
12948;176785;34.40;552;03.11.18.035
12976;176797;34.40;553;03.11.18.035
12968;176795;34.40;554;03.11.18.035
12948;176792;34.40;555;03.11.18.035
12956;176793;34.40;556;03.11.18.035
12956;176789;34.40;557;03.11.18.035
12964;176787;34.40;558;03.11.18.035
12948;176785;34.40;559;03.11.18.035
12960;176777;34.40;560;03.11.18.035
12960;176784;34.40;561;03.11.18.046
12940;176780;34.40;562;03.11.18.046
12968;176789;34.40;563;03.11.18.046
12964;176789;34.40;564;03.11.18.046
12944;176786;34.40;565;03.11.18.046
12944;176787;34.40;566;03.11.18.046
12968;176785;34.40;567;03.11.18.068
12940;176782;34.40;568;03.11.18.068
12976;176785;34.40;569;03.11.18.068
12948;176788;34.40;570;03.11.18.068
12956;176781;34.40;571;03.11.18.068
12936;176785;34.40;572;03.11.18.068
12932;176781;34.40;573;03.11.18.068
12936;176785;34.40;574;03.11.18.068
12960;176787;34.40;575;03.11.18.156
12956;176787;34.40;576;03.11.18.156
12936;176788;34.40;577;03.11.18.156
12944;176786;34.40;578;03.11.18.156
12964;176781;34.40;579;03.11.18.156
12944;176778;34.40;580;03.11.18.156
12948;176777;34.40;581;03.11.18.156
12948;176780;34.40;582;03.11.18.167
12940;176786;34.40;583;03.11.18.167
12916;176778;34.40;584;03.11.18.167
12948;176779;34.40;585;03.11.18.167
12952;176788;34.40;586;03.11.18.167
12960;176781;34.40;587;03.11.18.167
12944;176781;34.40;588;03.11.18.167
12948;176783;34.40;589;03.11.18.167
12960;176785;34.40;590;03.11.18.167
12952;176786;34.40;591;03.11.18.167
12956;176784;34.40;592;03.11.18.167
12968;176783;34.40;593;03.11.18.167
12940;176780;34.40;594;03.11.18.167
12948;176778;34.40;595;03.11.18.178
12964;176776;34.40;596;03.11.18.178
12944;176774;34.40;597;03.11.18.178
12956;176773;34.40;598;03.11.18.178
12968;176777;34.40;599;03.11.18.178
12936;176775;34.40;600;03.11.18.299
12960;176774;34.40;601;03.11.18.299
12940;176769;34.40;602;03.11.18.299
12960;176776;34.40;603;03.11.18.310
12964;176779;34.40;604;03.11.18.310
12968;176776;34.40;605;03.11.18.310
12992;176779;34.40;606;03.11.18.310
12960;176789;34.40;607;03.11.18.310
12956;176783;34.40;608;03.11.18.310
12992;176782;34.40;609;03.11.18.310
12948;176787;34.40;610;03.11.18.310
12968;176780;34.40;611;03.11.18.310
12948;176783;34.40;612;03.11.18.320
12992;176783;34.40;613;03.11.18.320
12948;176787;34.40;614;03.11.18.320
12968;176785;34.40;615;03.11.18.320
12956;176778;34.40;616;03.11.18.320
12952;176787;34.40;617;03.11.18.331
12960;176787;34.40;618;03.11.18.331
12940;176797;34.40;619;03.11.18.331
12960;176795;34.40;620;03.11.18.342
12968;176788;34.40;621;03.11.18.342
12960;176797;34.40;622;03.11.18.342
12976;176796;34.40;623;03.11.18.342
12980;176793;34.40;624;03.11.18.342
12936;176802;34.40;625;03.11.18.430
12960;176792;34.40;626;03.11.18.430
12944;176807;34.40;627;03.11.18.430
12948;176799;34.40;628;03.11.18.430
12964;176797;34.40;629;03.11.18.430
12924;176801;34.40;630;03.11.18.430
12976;176795;34.40;631;03.11.18.430
12940;176804;34.40;632;03.11.18.430
12968;176806;34.40;633;03.11.18.441
12992;176807;34.40;634;03.11.18.441
12940;176803;34.40;635;03.11.18.441
12956;176815;34.40;636;03.11.18.441
12960;176809;34.40;637;03.11.18.441
12968;176808;34.40;638;03.11.18.441
12936;176808;34.40;639;03.11.18.441
12944;176806;34.40;640;03.11.18.441
12924;176813;34.40;641;03.11.18.441
12964;176808;34.40;642;03.11.18.441
12956;176815;34.40;643;03.11.18.441
12944;176814;34.40;644;03.11.18.441
12948;176809;34.40;645;03.11.18.452
12968;176814;34.40;646;03.11.18.452
12948;176811;34.40;647;03.11.18.452
12948;176810;34.40;648;03.11.18.452
12952;176812;34.40;649;03.11.18.452
12964;176814;34.40;650;03.11.18.562
12960;176822;34.40;651;03.11.18.562
12968;176821;34.40;652;03.11.18.562
12940;176824;34.40;653;03.11.18.562
12988;176820;34.40;654;03.11.18.562
12940;176820;34.40;655;03.11.18.562
12940;176824;34.40;656;03.11.18.562
12964;176822;34.40;657;03.11.18.562
12972;176822;34.40;658;03.11.18.573
12940;176818;34.40;659;03.11.18.573
12960;176824;34.40;660;03.11.18.573
12932;176833;34.40;661;03.11.18.573
12892;176825;34.40;662;03.11.18.573
12960;176832;34.40;663;03.11.18.573
12944;176829;34.40;664;03.11.18.573
12936;176825;34.40;665;03.11.18.573
12956;176836;34.40;666;03.11.18.573
12964;176839;34.40;667;03.11.18.584
12952;176832;34.40;668;03.11.18.584
12960;176835;34.40;669;03.11.18.584
12940;176835;34.40;670;03.11.18.584
12940;176837;34.40;671;03.11.18.584
12956;176839;34.40;672;03.11.18.584
12972;176838;34.40;673;03.11.18.584
12984;176831;34.40;674;03.11.18.584
12964;176837;34.40;675;03.11.18.661
12996;176842;34.40;676;03.11.18.661
12940;176839;34.40;677;03.11.18.661
12948;176845;34.40;678;03.11.18.661
12976;176838;34.40;679;03.11.18.661
12960;176846;34.40;680;03.11.18.672
12960;176840;34.40;681;03.11.18.672
12940;176852;34.40;682;03.11.18.672
12936;176853;34.40;683;03.11.18.683
12952;176851;34.40;684;03.11.18.683
12968;176842;34.40;685;03.11.18.683
12944;176839;34.40;686;03.11.18.683
12936;176840;34.40;687;03.11.18.693
12992;176842;34.40;688;03.11.18.693
12952;176831;34.40;689;03.11.18.693
12940;176843;34.40;690;03.11.18.693
12960;176833;34.40;691;03.11.18.693
12936;176841;34.40;692;03.11.18.693
12908;176834;34.40;693;03.11.18.693
12940;176830;34.40;694;03.11.18.693
12960;176822;34.40;695;03.11.18.693
12960;176824;34.40;696;03.11.18.693
12956;176823;34.40;697;03.11.18.693
12952;176821;34.40;698;03.11.18.693
12968;176815;34.40;699;03.11.18.693
12952;176821;34.40;700;03.11.18.781
12960;176811;34.40;701;03.11.18.792
12968;176810;34.40;702;03.11.18.792
12952;176807;34.40;703;03.11.18.792
12940;176807;34.40;704;03.11.18.792
12952;176808;34.40;705;03.11.18.792
12932;176804;34.40;706;03.11.18.792
12964;176808;34.40;707;03.11.18.792
12964;176808;34.40;708;03.11.18.792
12968;176811;34.40;709;03.11.18.792
12944;176814;34.40;710;03.11.18.803
12944;176809;34.40;711;03.11.18.803
12952;176808;34.40;712;03.11.18.803
12972;176819;34.40;713;03.11.18.803
12944;176811;34.40;714;03.11.18.803
12976;176810;34.40;715;03.11.18.803
12956;176817;34.40;716;03.11.18.803
12936;176819;34.40;717;03.11.18.803
12948;176817;34.40;718;03.11.18.803
12952;176817;34.40;719;03.11.18.803
12956;176823;34.40;720;03.11.18.803
12936;176828;34.40;721;03.11.18.803
12968;176822;34.40;722;03.11.18.803
12968;176821;34.40;723;03.11.18.803
12972;176815;34.40;724;03.11.18.815
12944;176814;34.40;725;03.11.18.924
12956;176811;34.40;726;03.11.18.924
12972;176812;34.40;727;03.11.18.924
12932;176807;34.40;728;03.11.18.924
12952;176808;34.40;729;03.11.18.924
12924;176811;34.40;730;03.11.18.924
12940;176800;34.40;731;03.11.18.924
12948;176814;34.40;732;03.11.18.924
12944;176815;34.40;733;03.11.18.924
12976;176817;34.40;734;03.11.18.924
12968;176817;34.40;735;03.11.18.924
12952;176808;34.40;736;03.11.18.924
12968;176809;34.40;737;03.11.18.935
12944;176808;34.40;738;03.11.18.935
12944;176813;34.40;739;03.11.18.935
12964;176809;34.40;740;03.11.18.935
12952;176820;34.40;741;03.11.18.935
12936;176818;34.40;742;03.11.18.935
12976;176813;34.40;743;03.11.18.935
12924;176814;34.40;744;03.11.18.935
12968;176813;34.40;745;03.11.18.935
12944;176813;34.40;746;03.11.18.935
12984;176821;34.40;747;03.11.18.935
12948;176820;34.40;748;03.11.18.935
12936;176809;34.40;749;03.11.18.946
12948;176804;34.40;750;03.11.19.056
12960;176817;34.40;751;03.11.19.056
12960;176822;34.40;752;03.11.19.056
12948;176810;34.40;753;03.11.19.056
12936;176817;34.40;754;03.11.19.056
12944;176815;34.40;755;03.11.19.056
12968;176812;34.40;756;03.11.19.056
12924;176809;34.40;757;03.11.19.056
12976;176800;34.40;758;03.11.19.067
12972;176809;34.40;759;03.11.19.067
12964;176814;34.40;760;03.11.19.067
12964;176809;34.40;761;03.11.19.067
12952;176809;34.40;762;03.11.19.067
12960;176814;34.40;763;03.11.19.067
12936;176819;34.40;764;03.11.19.067
12960;176805;34.40;765;03.11.19.067
12964;176810;34.40;766;03.11.19.067
12948;176810;34.40;767;03.11.19.067
12948;176814;34.40;768;03.11.19.067
12964;176819;34.40;769;03.11.19.067
12956;176813;34.40;770;03.11.19.067
12924;176810;34.40;771;03.11.19.078
12944;176808;34.40;772;03.11.19.078
12948;176810;34.40;773;03.11.19.078
12984;176816;34.40;774;03.11.19.078
12948;176813;34.40;775;03.11.19.154
12932;176816;34.40;776;03.11.19.154
12960;176812;34.40;777;03.11.19.154
12940;176811;34.40;778;03.11.19.165
12948;176825;34.40;779;03.11.19.165
12940;176818;34.40;780;03.11.19.165
12976;176814;34.40;781;03.11.19.165
12924;176813;34.40;782;03.11.19.165
12960;176815;34.40;783;03.11.19.165
12952;176826;34.40;784;03.11.19.165
12952;176820;34.40;785;03.11.19.165
12976;176825;34.40;786;03.11.19.165
12924;176823;34.40;787;03.11.19.165
12976;176824;34.40;788;03.11.19.165
12956;176816;34.40;789;03.11.19.165
12968;176823;34.40;790;03.11.19.165
12944;176816;34.40;791;03.11.19.176
12952;176821;34.40;792;03.11.19.176
12948;176821;34.40;793;03.11.19.176
12964;176818;34.40;794;03.11.19.176
12968;176820;34.40;795;03.11.19.176
12952;176828;34.40;796;03.11.19.176
12948;176828;34.40;797;03.11.19.176
12960;176822;34.40;798;03.11.19.176
12956;176828;34.40;799;03.11.19.176
12936;176823;34.40;800;03.11.19.297
12960;176825;34.40;801;03.11.19.297
12952;176821;34.40;802;03.11.19.297
12948;176823;34.40;803;03.11.19.297
12956;176823;34.40;804;03.11.19.297
12948;176808;34.40;805;03.11.19.297
12940;176826;34.40;806;03.11.19.297
12948;176820;34.40;807;03.11.19.297
12964;176820;34.40;808;03.11.19.297
12940;176822;34.40;809;03.11.19.297
12952;176835;34.40;810;03.11.19.297
12968;176833;34.40;811;03.11.19.297
12992;176834;34.40;812;03.11.19.308
12952;176841;34.40;813;03.11.19.308
12928;176840;34.40;814;03.11.19.308
12956;176834;34.40;815;03.11.19.308
12972;176839;34.40;816;03.11.19.308
12968;176835;34.40;817;03.11.19.308
12924;176835;34.40;818;03.11.19.308
12960;176839;34.40;819;03.11.19.308
12976;176829;34.40;820;03.11.19.308
12976;176835;34.40;821;03.11.19.308
12984;176844;34.40;822;03.11.19.308
12944;176833;34.40;823;03.11.19.308
12980;176844;34.40;824;03.11.19.308
12924;176850;34.40;825;03.11.19.417
12948;176847;34.40;826;03.11.19.417
12960;176846;34.40;827;03.11.19.417
12964;176843;34.40;828;03.11.19.417
12968;176845;34.40;829;03.11.19.417
12924;176853;34.40;830;03.11.19.417
12948;176850;34.40;831;03.11.19.417
12968;176853;34.40;832;03.11.19.417
12924;176848;34.40;833;03.11.19.417
12948;176848;34.40;834;03.11.19.428
12960;176838;34.40;835;03.11.19.428
12932;176848;34.40;836;03.11.19.428
12956;176843;34.40;837;03.11.19.428
12952;176841;34.40;838;03.11.19.428
12960;176837;34.40;839;03.11.19.428
12972;176844;34.40;840;03.11.19.428
12944;176840;34.40;841;03.11.19.428
12924;176847;34.40;842;03.11.19.428
12960;176838;34.40;843;03.11.19.428
12956;176836;34.40;844;03.11.19.428
12944;176837;34.40;845;03.11.19.428
12964;176834;34.40;846;03.11.19.428
12964;176821;34.40;847;03.11.19.439
12940;176833;34.40;848;03.11.19.439
12960;176817;34.40;849;03.11.19.439
12960;176820;34.40;850;03.11.19.549
12964;176815;34.40;851;03.11.19.549
12948;176821;34.40;852;03.11.19.549
12948;176817;34.40;853;03.11.19.549
12976;176815;34.40;854;03.11.19.549
12948;176817;34.40;855;03.11.19.560
12968;176819;34.40;856;03.11.19.560
12924;176814;34.40;857;03.11.19.560
12956;176817;34.40;858;03.11.19.560
12964;176819;34.40;859;03.11.19.560
12940;176818;34.40;860;03.11.19.560
12972;176812;34.40;861;03.11.19.560
12972;176810;34.40;862;03.11.19.560
12960;176802;34.40;863;03.11.19.560
12964;176806;34.40;864;03.11.19.571
12976;176805;34.40;865;03.11.19.571
12932;176805;34.40;866;03.11.19.571
12976;176804;34.40;867;03.11.19.571
12928;176803;34.40;868;03.11.19.571
12920;176804;34.40;869;03.11.19.571
12956;176800;34.40;870;03.11.19.571
12952;176802;34.40;871;03.11.19.571
12940;176801;34.40;872;03.11.19.571
12944;176801;34.40;873;03.11.19.571
12964;176799;34.40;874;03.11.19.571
12956;176802;34.40;875;03.11.19.659
12972;176802;34.40;876;03.11.19.670
12948;176805;34.40;877;03.11.19.670
12972;176800;34.40;878;03.11.19.670
12952;176803;34.40;879;03.11.19.670
12960;176805;34.40;880;03.11.19.670
12940;176805;34.40;881;03.11.19.670
12968;176800;34.40;882;03.11.19.670
12920;176802;34.40;883;03.11.19.670
12940;176797;34.40;884;03.11.19.681
12940;176795;34.40;885;03.11.19.681
12948;176802;34.40;886;03.11.19.681
12960;176807;34.40;887;03.11.19.681
12992;176805;34.40;888;03.11.19.681
12944;176801;34.40;889;03.11.19.681
12940;176806;34.40;890;03.11.19.681
12936;176802;34.40;891;03.11.19.681
12968;176797;34.40;892;03.11.19.681
12948;176807;34.40;893;03.11.19.681
12956;176801;34.40;894;03.11.19.681
12960;176804;34.40;895;03.11.19.681
12940;176807;34.40;896;03.11.19.681
12936;176805;34.40;897;03.11.19.692
12968;176810;34.40;898;03.11.19.692
12940;176805;34.40;899;03.11.19.692
12932;176808;34.40;900;03.11.19.790
12940;176805;34.40;901;03.11.19.790
12964;176809;34.40;902;03.11.19.790
12964;176804;34.40;903;03.11.19.790
12944;176799;34.40;904;03.11.19.790
12944;176800;34.40;905;03.11.19.790
12960;176802;34.40;906;03.11.19.790
12948;176806;34.40;907;03.11.19.790
12964;176794;34.40;908;03.11.19.790
12960;176801;34.40;909;03.11.19.790
12968;176801;34.40;910;03.11.19.790
12972;176805;34.40;911;03.11.19.801
12960;176804;34.40;912;03.11.19.801
12976;176804;34.40;913;03.11.19.801
12960;176795;34.40;914;03.11.19.801
12948;176794;34.40;915;03.11.19.801
12936;176802;34.40;916;03.11.19.801
12956;176796;34.40;917;03.11.19.801
12952;176800;34.40;918;03.11.19.801
12984;176797;34.40;919;03.11.19.801
12952;176799;34.40;920;03.11.19.801
12976;176800;34.40;921;03.11.19.801
12932;176797;34.40;922;03.11.19.801
12968;176800;34.40;923;03.11.19.801
12956;176799;34.40;924;03.11.19.812
12936;176804;34.36;925;03.11.19.922
12968;176805;34.36;926;03.11.19.922
12952;176802;34.36;927;03.11.19.922
12952;176810;34.36;928;03.11.19.922
12960;176806;34.36;929;03.11.19.922
12968;176800;34.36;930;03.11.19.922
12964;176811;34.36;931;03.11.19.922
12944;176802;34.36;932;03.11.19.933
12960;176817;34.36;933;03.11.19.933
12964;176807;34.36;934;03.11.19.933
12972;176805;34.36;935;03.11.19.933
12948;176805;34.36;936;03.11.19.933
12960;176807;34.36;937;03.11.19.933
12916;176806;34.36;938;03.11.19.933
12968;176815;34.36;939;03.11.19.933
12940;176821;34.36;940;03.11.19.933
12952;176817;34.36;941;03.11.19.933
12956;176812;34.36;942;03.11.19.933
12976;176809;34.36;943;03.11.19.933
12968;176827;34.36;944;03.11.19.933
12960;176810;34.36;945;03.11.19.944
12960;176815;34.36;946;03.11.19.944
12992;176816;34.36;947;03.11.19.944
12940;176804;34.36;948;03.11.19.944
12956;176819;34.36;949;03.11.19.944
12952;176823;34.36;950;03.11.20.043
12916;176821;34.36;951;03.11.20.043
12980;176805;34.36;952;03.11.20.043
12960;176814;34.36;953;03.11.20.043
12996;176815;34.36;954;03.11.20.054
12928;176824;34.36;955;03.11.20.054
12944;176819;34.36;956;03.11.20.054
12960;176818;34.36;957;03.11.20.054
12956;176821;34.36;958;03.11.20.054
12948;176825;34.36;959;03.11.20.054
12948;176813;34.36;960;03.11.20.054
12948;176824;34.36;961;03.11.20.054
12976;176826;34.36;962;03.11.20.054
12960;176827;34.36;963;03.11.20.054
12948;176826;34.36;964;03.11.20.054
12972;176830;34.36;965;03.11.20.054
12956;176827;34.36;966;03.11.20.054
12948;176823;34.36;967;03.11.20.065
12936;176830;34.36;968;03.11.20.065
12976;176829;34.36;969;03.11.20.065
12940;176828;34.36;970;03.11.20.065
12956;176834;34.36;971;03.11.20.065
12940;176832;34.36;972;03.11.20.065
12932;176835;34.36;973;03.11.20.065
12948;176831;34.36;974;03.11.20.065
12956;176838;34.40;975;03.11.20.163
12952;176837;34.40;976;03.11.20.163
12908;176834;34.40;977;03.11.20.163
12924;176840;34.40;978;03.11.20.163
12968;176829;34.40;979;03.11.20.163
12976;176842;34.40;980;03.11.20.163
12936;176839;34.40;981;03.11.20.163
12956;176839;34.40;982;03.11.20.163
12936;176838;34.40;983;03.11.20.163
12952;176841;34.40;984;03.11.20.163
12944;176841;34.40;985;03.11.20.174
12976;176836;34.40;986;03.11.20.174
12960;176832;34.40;987;03.11.20.174
12960;176838;34.40;988;03.11.20.174
12956;176824;34.40;989;03.11.20.174
12960;176820;34.40;990;03.11.20.174
12924;176830;34.40;991;03.11.20.174
12960;176828;34.40;992;03.11.20.185
12968;176823;34.40;993;03.11.20.185
12944;176821;34.40;994;03.11.20.185
12948;176820;34.40;995;03.11.20.185
12956;176820;34.40;996;03.11.20.185
12932;176808;34.40;997;03.11.20.185
12960;176815;34.40;998;03.11.20.185
12936;176801;34.40;999;03.11.20.185
12952;176807;34.40;000;03.11.20.284
12960;176795;34.40;001;03.11.20.284
12952;176797;34.40;002;03.11.20.284
12940;176792;34.40;003;03.11.20.284
12952;176801;34.40;004;03.11.20.284
12968;176792;34.40;005;03.11.20.284
12940;176791;34.40;006;03.11.20.284
12992;176793;34.40;007;03.11.20.284
12952;176792;34.40;008;03.11.20.284
12944;176788;34.40;009;03.11.20.295
12984;176784;34.40;010;03.11.20.295
12932;176796;34.40;011;03.11.20.295
12928;176784;34.40;012;03.11.20.295
12944;176785;34.40;013;03.11.20.295
12992;176792;34.40;014;03.11.20.295
12996;176788;34.40;015;03.11.20.295
12968;176777;34.40;016;03.11.20.295
12976;176793;34.40;017;03.11.20.295
12960;176784;34.40;018;03.11.20.295
12968;176779;34.40;019;03.11.20.295
12940;176782;34.40;020;03.11.20.295
12968;176786;34.40;021;03.11.20.295
12944;176780;34.40;022;03.11.20.305
12948;176791;34.40;023;03.11.20.305
12956;176787;34.40;024;03.11.20.305
12968;176781;34.40;025;03.11.20.404
12960;176777;34.40;026;03.11.20.404
12948;176786;34.40;027;03.11.20.404
12976;176778;34.40;028;03.11.20.404
12952;176787;34.40;029;03.11.20.404
12944;176779;34.40;030;03.11.20.415
12964;176780;34.40;031;03.11.20.415
12964;176778;34.40;032;03.11.20.415
12948;176773;34.40;033;03.11.20.415
12952;176777;34.40;034;03.11.20.415
12944;176779;34.40;035;03.11.20.415
12952;176783;34.40;036;03.11.20.415
12956;176773;34.40;037;03.11.20.415
12944;176776;34.40;038;03.11.20.415
12944;176773;34.40;039;03.11.20.415
12948;176785;34.40;040;03.11.20.415
12952;176775;34.40;041;03.11.20.415
12960;176777;34.40;042;03.11.20.426
12956;176783;34.40;043;03.11.20.426
12960;176782;34.40;044;03.11.20.426
12956;176777;34.40;045;03.11.20.426
12952;176785;34.40;046;03.11.20.426
12952;176773;34.40;047;03.11.20.426
12960;176777;34.40;048;03.11.20.426
12960;176772;34.40;049;03.11.20.426
12956;176766;34.40;050;03.11.20.536
12968;176768;34.40;051;03.11.20.547
12952;176767;34.40;052;03.11.20.547
12992;176767;34.40;053;03.11.20.547
12960;176768;34.40;054;03.11.20.547
12968;176769;34.40;055;03.11.20.547
12960;176770;34.40;056;03.11.20.547
12968;176765;34.40;057;03.11.20.547
12960;176760;34.40;058;03.11.20.547
12968;176762;34.40;059;03.11.20.547
12948;176767;34.40;060;03.11.20.547
12960;176766;34.40;061;03.11.20.547
12944;176765;34.40;062;03.11.20.547
12948;176765;34.40;063;03.11.20.547
12964;176772;34.40;064;03.11.20.558
12976;176768;34.40;065;03.11.20.558
12964;176770;34.40;066;03.11.20.558
12964;176764;34.40;067;03.11.20.558
12936;176768;34.40;068;03.11.20.558
12956;176773;34.40;069;03.11.20.558
12960;176773;34.40;070;03.11.20.558
12952;176775;34.40;071;03.11.20.558
12948;176771;34.40;072;03.11.20.558
12924;176768;34.40;073;03.11.20.558
12960;176772;34.40;074;03.11.20.558
12948;176767;34.40;075;03.11.20.678
12956;176767;34.40;076;03.11.20.678
12956;176766;34.40;077;03.11.20.678
12944;176768;34.40;078;03.11.20.678
12944;176774;34.40;079;03.11.20.678
12976;176767;34.40;080;03.11.20.678
12960;176770;34.40;081;03.11.20.678
12968;176768;34.40;082;03.11.20.678
12944;176777;34.40;083;03.11.20.689
12976;176780;34.40;084;03.11.20.689
12932;176783;34.40;085;03.11.20.689
12964;176779;34.40;086;03.11.20.689
12968;176783;34.40;087;03.11.20.689
12976;176781;34.40;088;03.11.20.689
12932;176781;34.40;089;03.11.20.689
12916;176772;34.40;090;03.11.20.689
12944;176773;34.40;091;03.11.20.689
12960;176781;34.40;092;03.11.20.689
12964;176778;34.40;093;03.11.20.689
12956;176772;34.40;094;03.11.20.701
12968;176771;34.40;095;03.11.20.701
12960;176777;34.40;096;03.11.20.701
12948;176775;34.40;097;03.11.20.701
12944;176780;34.40;098;03.11.20.701
13000;176782;34.40;099;03.11.20.701
12964;176782;34.40;100;03.11.20.789
12948;176786;34.40;101;03.11.20.789
12948;176783;34.40;102;03.11.20.789
12944;176790;34.40;103;03.11.20.789
12956;176775;34.40;104;03.11.20.789
12952;176790;34.40;105;03.11.20.789
12956;176780;34.40;106;03.11.20.789
12960;176781;34.40;107;03.11.20.789
12948;176783;34.40;108;03.11.20.800
12940;176782;34.40;109;03.11.20.800
12940;176781;34.40;110;03.11.20.800
12948;176791;34.40;111;03.11.20.800
12960;176792;34.40;112;03.11.20.800
12956;176788;34.40;113;03.11.20.800
12964;176786;34.40;114;03.11.20.800
12940;176788;34.40;115;03.11.20.811
12964;176789;34.40;116;03.11.20.811
12936;176792;34.40;117;03.11.20.811
12968;176788;34.40;118;03.11.20.811
12932;176793;34.40;119;03.11.20.811
12928;176792;34.40;120;03.11.20.811
12952;176800;34.40;121;03.11.20.811
12948;176798;34.40;122;03.11.20.811
12948;176799;34.40;123;03.11.20.811
12976;176793;34.40;124;03.11.20.811
12948;176804;34.40;125;03.11.20.909
12944;176802;34.40;126;03.11.20.909
12936;176806;34.40;127;03.11.20.909
12960;176800;34.40;128;03.11.20.909
12952;176808;34.40;129;03.11.20.920
12952;176805;34.40;130;03.11.20.920
12964;176801;34.40;131;03.11.20.920
12968;176800;34.40;132;03.11.20.920
12964;176802;34.40;133;03.11.20.920
12972;176807;34.40;134;03.11.20.920
12956;176810;34.40;135;03.11.20.920
12924;176806;34.40;136;03.11.20.920
12964;176801;34.40;137;03.11.20.920
12960;176806;34.40;138;03.11.20.920
12976;176807;34.40;139;03.11.20.920
12956;176800;34.40;140;03.11.20.920
12944;176805;34.40;141;03.11.20.920
12952;176809;34.40;142;03.11.20.931
13008;176803;34.40;143;03.11.20.931
12968;176806;34.40;144;03.11.20.931
12944;176814;34.40;145;03.11.20.931
12956;176819;34.40;146;03.11.20.931
12928;176814;34.40;147;03.11.20.931
12948;176813;34.40;148;03.11.20.931
12964;176822;34.40;149;03.11.20.931
12928;176805;34.40;150;03.11.21.030
12956;176793;34.40;151;03.11.21.041
12944;176795;34.40;152;03.11.21.041
12944;176804;34.40;153;03.11.21.041
12940;176801;34.40;154;03.11.21.041
12964;176796;34.40;155;03.11.21.041
12940;176802;34.40;156;03.11.21.041
12952;176784;34.40;157;03.11.21.041
12968;176788;34.40;158;03.11.21.041
12944;176791;34.40;159;03.11.21.041
12924;176790;34.40;160;03.11.21.041
12948;176782;34.40;161;03.11.21.041
12992;176778;34.40;162;03.11.21.041
12964;176775;34.40;163;03.11.21.052
12952;176775;34.40;164;03.11.21.052
12964;176770;34.40;165;03.11.21.052
12936;176767;34.40;166;03.11.21.052
12952;176772;34.40;167;03.11.21.052
12940;176771;34.40;168;03.11.21.052
12996;176763;34.40;169;03.11.21.052
12992;176770;34.40;170;03.11.21.052
12968;176766;34.40;171;03.11.21.052
12968;176762;34.40;172;03.11.21.052
12940;176764;34.40;173;03.11.21.052
12976;176763;34.40;174;03.11.21.052
12968;176756;34.40;175;03.11.21.173
12960;176762;34.40;176;03.11.21.173
12960;176761;34.40;177;03.11.21.173
12976;176754;34.40;178;03.11.21.173
12968;176757;34.40;179;03.11.21.173
12964;176752;34.40;180;03.11.21.173
12916;176757;34.40;181;03.11.21.173
12972;176748;34.40;182;03.11.21.173
12952;176754;34.40;183;03.11.21.173
12944;176756;34.40;184;03.11.21.184
12956;176756;34.40;185;03.11.21.184
12924;176756;34.40;186;03.11.21.184
12960;176749;34.40;187;03.11.21.184
12940;176753;34.40;188;03.11.21.184
12956;176759;34.40;189;03.11.21.184
12952;176753;34.40;190;03.11.21.184
12940;176762;34.40;191;03.11.21.184
12924;176761;34.40;192;03.11.21.184
12972;176754;34.40;193;03.11.21.184
12948;176759;34.40;194;03.11.21.184
12948;176761;34.40;195;03.11.21.184
12948;176752;34.40;196;03.11.21.184
12924;176748;34.40;197;03.11.21.195
12924;176744;34.40;198;03.11.21.195
12932;176755;34.40;199;03.11.21.195
12940;176753;34.40;200;03.11.21.282
12960;176758;34.40;201;03.11.21.282
12940;176752;34.40;202;03.11.21.282
12940;176756;34.40;203;03.11.21.282
12956;176749;34.40;204;03.11.21.282
12952;176752;34.40;205;03.11.21.282
12956;176745;34.40;206;03.11.21.293
12960;176756;34.40;207;03.11.21.293
12964;176755;34.40;208;03.11.21.293
12952;176752;34.40;209;03.11.21.293
12940;176741;34.40;210;03.11.21.293
12976;176752;34.40;211;03.11.21.293
12956;176742;34.40;212;03.11.21.293
12964;176748;34.40;213;03.11.21.293
12940;176742;34.40;214;03.11.21.293
12960;176755;34.40;215;03.11.21.293
12960;176750;34.40;216;03.11.21.293
12952;176751;34.40;217;03.11.21.304
12944;176748;34.40;218;03.11.21.304
12968;176750;34.40;219;03.11.21.304
12968;176748;34.40;220;03.11.21.304
12948;176747;34.40;221;03.11.21.304
12940;176746;34.40;222;03.11.21.304
12964;176745;34.40;223;03.11.21.315
12944;176747;34.40;224;03.11.21.315
12936;176752;34.40;225;03.11.21.403
12968;176755;34.40;226;03.11.21.403
12976;176753;34.40;227;03.11.21.414
12956;176751;34.40;228;03.11.21.414
12956;176760;34.40;229;03.11.21.414
12952;176757;34.40;230;03.11.21.414
12940;176762;34.40;231;03.11.21.414
12960;176759;34.40;232;03.11.21.414
12960;176765;34.40;233;03.11.21.414
12932;176757;34.40;234;03.11.21.414
12936;176765;34.40;235;03.11.21.414
12976;176767;34.40;236;03.11.21.414
12944;176761;34.40;237;03.11.21.414
12968;176760;34.40;238;03.11.21.414
12960;176764;34.40;239;03.11.21.414
12952;176770;34.40;240;03.11.21.414
12952;176766;34.40;241;03.11.21.425
12940;176763;34.40;242;03.11.21.425
12932;176765;34.40;243;03.11.21.425
12936;176769;34.40;244;03.11.21.425
12968;176764;34.40;245;03.11.21.425
12936;176771;34.40;246;03.11.21.425
12924;176772;34.40;247;03.11.21.425
12944;176769;34.40;248;03.11.21.425
12936;176770;34.40;249;03.11.21.425
12944;176771;34.40;250;03.11.21.546
12924;176774;34.40;251;03.11.21.546
12944;176774;34.40;252;03.11.21.546
12924;176777;34.40;253;03.11.21.546
12924;176779;34.40;254;03.11.21.546
12944;176770;34.40;255;03.11.21.546
12936;176779;34.40;256;03.11.21.546
12976;176776;34.40;257;03.11.21.546
12964;176785;34.40;258;03.11.21.546
12964;176780;34.40;259;03.11.21.546
12956;176786;34.40;260;03.11.21.546
12924;176780;34.40;261;03.11.21.546
12944;176787;34.40;262;03.11.21.558
12944;176791;34.40;263;03.11.21.558
12944;176780;34.40;264;03.11.21.558
12956;176786;34.40;265;03.11.21.558
12948;176786;34.40;266;03.11.21.558
12960;176784;34.40;267;03.11.21.558
12956;176788;34.40;268;03.11.21.558
12960;176777;34.40;269;03.11.21.558
12968;176789;34.40;270;03.11.21.558
12924;176788;34.40;271;03.11.21.558
12932;176784;34.40;272;03.11.21.558
12944;176789;34.40;273;03.11.21.558
12976;176788;34.40;274;03.11.21.558
12964;176796;34.40;275;03.11.21.679
12948;176790;34.40;276;03.11.21.679
12932;176793;34.40;277;03.11.21.679
12980;176790;34.40;278;03.11.21.679
12960;176795;34.40;279;03.11.21.679
12976;176793;34.40;280;03.11.21.679
12948;176794;34.40;281;03.11.21.679
12948;176795;34.40;282;03.11.21.679
12992;176790;34.40;283;03.11.21.679
12980;176792;34.40;284;03.11.21.679
12968;176789;34.40;285;03.11.21.690
12968;176790;34.40;286;03.11.21.690
12924;176794;34.40;287;03.11.21.690
12956;176798;34.40;288;03.11.21.690
12960;176797;34.40;289;03.11.21.690
12952;176802;34.40;290;03.11.21.690
12956;176790;34.40;291;03.11.21.690
12944;176799;34.40;292;03.11.21.690
12976;176801;34.40;293;03.11.21.690
12956;176795;34.40;294;03.11.21.690
12992;176802;34.40;295;03.11.21.690
12948;176797;34.40;296;03.11.21.690
12948;176807;34.40;297;03.11.21.690
12960;176810;34.40;298;03.11.21.701
12964;176806;34.40;299;03.11.21.701
12944;176807;34.40;300;03.11.21.789
12920;176819;34.40;301;03.11.21.789
12968;176816;34.40;302;03.11.21.789
12964;176819;34.40;303;03.11.21.789
12944;176813;34.40;304;03.11.21.789
12924;176820;34.40;305;03.11.21.799
12956;176825;34.40;306;03.11.21.799
12948;176813;34.40;307;03.11.21.799
12980;176813;34.40;308;03.11.21.799
12968;176819;34.40;309;03.11.21.799
12924;176823;34.40;310;03.11.21.799
12936;176811;34.40;311;03.11.21.799
12956;176816;34.40;312;03.11.21.799
12960;176821;34.40;313;03.11.21.799
12992;176816;34.40;314;03.11.21.799
12952;176817;34.40;315;03.11.21.799
12952;176819;34.40;316;03.11.21.799
12948;176820;34.40;317;03.11.21.810
12964;176822;34.40;318;03.11.21.810
12940;176805;34.40;319;03.11.21.810
12972;176819;34.40;320;03.11.21.810
12952;176800;34.40;321;03.11.21.810
12944;176810;34.40;322;03.11.21.810
12964;176815;34.40;323;03.11.21.821
12964;176811;34.40;324;03.11.21.821
12940;176812;34.40;325;03.11.21.909
12936;176800;34.40;326;03.11.21.909
12944;176795;34.40;327;03.11.21.920
12924;176792;34.40;328;03.11.21.920
12956;176794;34.40;329;03.11.21.920
12940;176790;34.40;330;03.11.21.920
12948;176784;34.40;331;03.11.21.920
12964;176777;34.40;332;03.11.21.920
12944;176783;34.40;333;03.11.21.920
12960;176784;34.40;334;03.11.21.920
12956;176781;34.40;335;03.11.21.920
12952;176783;34.40;336;03.11.21.920
12992;176782;34.40;337;03.11.21.920
12936;176784;34.40;338;03.11.21.920
12948;176788;34.40;339;03.11.21.920
12948;176780;34.40;340;03.11.21.931
12940;176782;34.40;341;03.11.21.931
12956;176781;34.40;342;03.11.21.931
12932;176780;34.40;343;03.11.21.931
12928;176783;34.40;344;03.11.21.942
12948;176782;34.40;345;03.11.21.942
12936;176781;34.40;346;03.11.21.942
12952;176777;34.40;347;03.11.21.942
12948;176779;34.40;348;03.11.21.942
12924;176783;34.40;349;03.11.21.942
12952;176769;34.40;350;03.11.22.040
12936;176780;34.40;351;03.11.22.040
12960;176781;34.40;352;03.11.22.040
12948;176777;34.40;353;03.11.22.040
12952;176777;34.40;354;03.11.22.040
12956;176773;34.40;355;03.11.22.040
12940;176778;34.40;356;03.11.22.040
12952;176778;34.40;357;03.11.22.040
12924;176764;34.40;358;03.11.22.040
12968;176779;34.40;359;03.11.22.040
12960;176774;34.40;360;03.11.22.040
12952;176777;34.40;361;03.11.22.051
12936;176773;34.40;362;03.11.22.051
12948;176777;34.40;363;03.11.22.051
12948;176772;34.40;364;03.11.22.051
12952;176779;34.40;365;03.11.22.051
12948;176771;34.40;366;03.11.22.051
12972;176769;34.40;367;03.11.22.051
12956;176771;34.40;368;03.11.22.051
12952;176771;34.40;369;03.11.22.051
12944;176768;34.40;370;03.11.22.051
12952;176769;34.40;371;03.11.22.051
12952;176768;34.40;372;03.11.22.051
12948;176774;34.40;373;03.11.22.051
12960;176773;34.40;374;03.11.22.062
12948;176773;34.40;375;03.11.22.173
12940;176782;34.40;376;03.11.22.173
12940;176781;34.40;377;03.11.22.173
12944;176772;34.40;378;03.11.22.173
12952;176774;34.40;379;03.11.22.173
12980;176779;34.40;380;03.11.22.173
12944;176774;34.40;381;03.11.22.173
12956;176776;34.40;382;03.11.22.173
12960;176774;34.40;383;03.11.22.184
12952;176771;34.40;384;03.11.22.184
12968;176767;34.40;385;03.11.22.184
12940;176778;34.40;386;03.11.22.184
12964;176774;34.40;387;03.11.22.184
12932;176772;34.40;388;03.11.22.184
12924;176772;34.40;389;03.11.22.184
12964;176777;34.40;390;03.11.22.184
12940;176777;34.40;391;03.11.22.184
12976;176771;34.40;392;03.11.22.184
12964;176781;34.40;393;03.11.22.184
12960;176770;34.40;394;03.11.22.184
12960;176774;34.40;395;03.11.22.184
12948;176773;34.40;396;03.11.22.195
12948;176776;34.40;397;03.11.22.195
12936;176780;34.40;398;03.11.22.195
12964;176780;34.40;399;03.11.22.195
12944;176776;34.40;400;03.11.22.282
12948;176782;34.40;401;03.11.22.282
12936;176785;34.40;402;03.11.22.282
12956;176787;34.40;403;03.11.22.282
12924;176786;34.40;404;03.11.22.282
12964;176789;34.40;405;03.11.22.293
12952;176789;34.40;406;03.11.22.293
12952;176789;34.40;407;03.11.22.293
12964;176784;34.40;408;03.11.22.304
12948;176794;34.40;409;03.11.22.304
12956;176789;34.40;410;03.11.22.304
12960;176791;34.40;411;03.11.22.315
12960;176788;34.40;412;03.11.22.315
12940;176784;34.40;413;03.11.22.315
12960;176787;34.40;414;03.11.22.315
12968;176786;34.40;415;03.11.22.315
12940;176795;34.40;416;03.11.22.315
12968;176792;34.40;417;03.11.22.315
12944;176791;34.40;418;03.11.22.315
12936;176789;34.40;419;03.11.22.315
12968;176790;34.40;420;03.11.22.315
12956;176781;34.40;421;03.11.22.315
12932;176790;34.40;422;03.11.22.315
12944;176795;34.40;423;03.11.22.315
12992;176792;34.40;424;03.11.22.326
12924;176794;34.36;425;03.11.22.402
12936;176797;34.36;426;03.11.22.413
12968;176793;34.36;427;03.11.22.413
12936;176791;34.36;428;03.11.22.413
12960;176794;34.36;429;03.11.22.413
12956;176789;34.36;430;03.11.22.413
12944;176800;34.36;431;03.11.22.413
12924;176796;34.36;432;03.11.22.413
12968;176798;34.36;433;03.11.22.446
12984;176802;34.36;434;03.11.22.446
12956;176804;34.36;435;03.11.22.446
12956;176802;34.36;436;03.11.22.446
12924;176802;34.36;437;03.11.22.446
12964;176808;34.36;438;03.11.22.446
12976;176806;34.36;439;03.11.22.446
12944;176801;34.36;440;03.11.22.446
12948;176797;34.36;441;03.11.22.446
12948;176810;34.36;442;03.11.22.446
12924;176805;34.36;443;03.11.22.446
12960;176813;34.36;444;03.11.22.446
12948;176813;34.36;445;03.11.22.457
12968;176809;34.36;446;03.11.22.457
12952;176815;34.36;447;03.11.22.457
12956;176817;34.36;448;03.11.22.457
12960;176810;34.36;449;03.11.22.457
12944;176826;34.36;450;03.11.22.534
12972;176817;34.36;451;03.11.22.534
12952;176825;34.36;452;03.11.22.534
12948;176820;34.36;453;03.11.22.534
12968;176830;34.36;454;03.11.22.534
12948;176820;34.36;455;03.11.22.534
12948;176813;34.36;456;03.11.22.534
12988;176822;34.36;457;03.11.22.534
12960;176829;34.36;458;03.11.22.534
12944;176827;34.36;459;03.11.22.545
12964;176829;34.36;460;03.11.22.545
12944;176830;34.36;461;03.11.22.545
12964;176829;34.36;462;03.11.22.545
12952;176830;34.36;463;03.11.22.545
12972;176825;34.36;464;03.11.22.545
12964;176835;34.36;465;03.11.22.545
12988;176827;34.36;466;03.11.22.545
12948;176833;34.36;467;03.11.22.545
12936;176830;34.36;468;03.11.22.545
12952;176832;34.36;469;03.11.22.545
12916;176839;34.36;470;03.11.22.545
12948;176836;34.36;471;03.11.22.545
12964;176844;34.36;472;03.11.22.556
12968;176841;34.36;473;03.11.22.556
12960;176843;34.36;474;03.11.22.556
12944;176844;34.36;475;03.11.22.677
12968;176852;34.36;476;03.11.22.677
12948;176849;34.36;477;03.11.22.677
12932;176851;34.36;478;03.11.22.677
12936;176853;34.36;479;03.11.22.677
12944;176846;34.36;480;03.11.22.677
12956;176845;34.36;481;03.11.22.689
12948;176848;34.36;482;03.11.22.689
12960;176843;34.36;483;03.11.22.689
12940;176859;34.36;484;03.11.22.689
12976;176853;34.36;485;03.11.22.689
12956;176854;34.36;486;03.11.22.689
12924;176852;34.36;487;03.11.22.689
12944;176850;34.36;488;03.11.22.689
12976;176855;34.36;489;03.11.22.689
12968;176853;34.36;490;03.11.22.689
12944;176835;34.36;491;03.11.22.701
12976;176837;34.36;492;03.11.22.712
12956;176846;34.36;493;03.11.22.712
12984;176842;34.36;494;03.11.22.712
12940;176842;34.36;495;03.11.22.712
12948;176832;34.36;496;03.11.22.712
12960;176827;34.36;497;03.11.22.712
12956;176822;34.36;498;03.11.22.712
12968;176820;34.36;499;03.11.22.712
12948;176818;34.36;500;03.11.22.810
12948;176830;34.36;501;03.11.22.810
12944;176825;34.36;502;03.11.22.810
12944;176815;34.36;503;03.11.22.810
12964;176816;34.36;504;03.11.22.821
12952;176812;34.36;505;03.11.22.821
12944;176821;34.36;506;03.11.22.821
12944;176812;34.36;507;03.11.22.821
12948;176809;34.36;508;03.11.22.821
12980;176812;34.36;509;03.11.22.821
12936;176813;34.36;510;03.11.22.821
12960;176819;34.36;511;03.11.22.821
12968;176817;34.36;512;03.11.22.821
12940;176803;34.36;513;03.11.22.821
12960;176812;34.36;514;03.11.22.821
12976;176822;34.36;515;03.11.22.821
12944;176813;34.36;516;03.11.22.821
12936;176810;34.36;517;03.11.22.832
12952;176809;34.36;518;03.11.22.832
12976;176810;34.36;519;03.11.22.832
12944;176799;34.36;520;03.11.22.832
12960;176808;34.36;521;03.11.22.832
12952;176800;34.36;522;03.11.22.832
12948;176806;34.36;523;03.11.22.832
12968;176809;34.36;524;03.11.22.832
12936;176807;34.36;525;03.11.22.909
12956;176801;34.36;526;03.11.22.920
12960;176808;34.36;527;03.11.22.920
12944;176809;34.36;528;03.11.22.920
12980;176803;34.36;529;03.11.22.920
12944;176803;34.36;530;03.11.22.920
12992;176803;34.36;531;03.11.22.920
12976;176806;34.36;532;03.11.22.920
12968;176806;34.36;533;03.11.22.931
12948;176803;34.36;534;03.11.22.942
12964;176805;34.36;535;03.11.22.942
12940;176801;34.36;536;03.11.22.942
12940;176814;34.36;537;03.11.22.942
12924;176807;34.36;538;03.11.22.942
12948;176807;34.36;539;03.11.22.942
12948;176804;34.36;540;03.11.22.942
12948;176805;34.36;541;03.11.22.942
12924;176810;34.36;542;03.11.22.942
12944;176814;34.36;543;03.11.22.953
12944;176810;34.36;544;03.11.22.953
12948;176818;34.36;545;03.11.22.953
12980;176813;34.36;546;03.11.22.953
12972;176815;34.36;547;03.11.22.953
12944;176808;34.36;548;03.11.22.953
12960;176815;34.36;549;03.11.22.953
12956;176812;34.36;550;03.11.23.041
12972;176810;34.36;551;03.11.23.041
12948;176818;34.36;552;03.11.23.041
12964;176794;34.36;553;03.11.23.041
12960;176802;34.36;554;03.11.23.041
12960;176801;34.36;555;03.11.23.041
12940;176794;34.36;556;03.11.23.041
12960;176803;34.36;557;03.11.23.041
12964;176800;34.36;558;03.11.23.052
12964;176802;34.36;559;03.11.23.052
12948;176803;34.36;560;03.11.23.052
12940;176802;34.36;561;03.11.23.052
12936;176801;34.36;562;03.11.23.052
12944;176801;34.36;563;03.11.23.052
12948;176793;34.36;564;03.11.23.052
12960;176798;34.36;565;03.11.23.052
12968;176809;34.36;566;03.11.23.052
12952;176802;34.36;567;03.11.23.052
12908;176815;34.36;568;03.11.23.063
12968;176806;34.36;569;03.11.23.063
12976;176811;34.36;570;03.11.23.063
12944;176804;34.36;571;03.11.23.063
12948;176803;34.36;572;03.11.23.063
12976;176807;34.36;573;03.11.23.063
12976;176815;34.36;574;03.11.23.063
12980;176806;34.40;575;03.11.23.161
12940;176804;34.40;576;03.11.23.161
12956;176802;34.40;577;03.11.23.161
12944;176816;34.40;578;03.11.23.161
12968;176814;34.40;579;03.11.23.161
12968;176820;34.40;580;03.11.23.161
12948;176815;34.40;581;03.11.23.172
12992;176810;34.40;582;03.11.23.172
12952;176814;34.40;583;03.11.23.172
12960;176816;34.40;584;03.11.23.172
12948;176823;34.40;585;03.11.23.172
12976;176821;34.40;586;03.11.23.172
12952;176815;34.40;587;03.11.23.172
12940;176816;34.40;588;03.11.23.172
12956;176827;34.40;589;03.11.23.172
12960;176817;34.40;590;03.11.23.172
12960;176820;34.40;591;03.11.23.172
12992;176824;34.40;592;03.11.23.172
12940;176827;34.40;593;03.11.23.172
12976;176816;34.40;594;03.11.23.183
12948;176827;34.40;595;03.11.23.183
12948;176832;34.40;596;03.11.23.183
12948;176825;34.40;597;03.11.23.183
12940;176832;34.40;598;03.11.23.183
12964;176835;34.40;599;03.11.23.183
12936;176825;34.40;600;03.11.23.292
12960;176838;34.40;601;03.11.23.303
12968;176834;34.40;602;03.11.23.303
12940;176821;34.40;603;03.11.23.303
12964;176835;34.40;604;03.11.23.303
12960;176836;34.40;605;03.11.23.303
12972;176832;34.40;606;03.11.23.303
12948;176838;34.40;607;03.11.23.303
12940;176829;34.40;608;03.11.23.303
12940;176837;34.40;609;03.11.23.303
12936;176832;34.40;610;03.11.23.303
12952;176841;34.40;611;03.11.23.303
12936;176839;34.40;612;03.11.23.303
12952;176842;34.40;613;03.11.23.303
12936;176826;34.40;614;03.11.23.314
12952;176836;34.40;615;03.11.23.314
12940;176839;34.40;616;03.11.23.314
12960;176831;34.40;617;03.11.23.314
12936;176838;34.40;618;03.11.23.314
12964;176839;34.40;619;03.11.23.314
12940;176841;34.40;620;03.11.23.314
12928;176848;34.40;621;03.11.23.314
12968;176847;34.40;622;03.11.23.314
12984;176843;34.40;623;03.11.23.314
12944;176844;34.40;624;03.11.23.314
12940;176846;34.40;625;03.11.23.434
12964;176842;34.40;626;03.11.23.434
12940;176851;34.40;627;03.11.23.434
12964;176849;34.40;628;03.11.23.434
12952;176845;34.40;629;03.11.23.434
12960;176846;34.40;630;03.11.23.434
12940;176847;34.40;631;03.11.23.434
12960;176846;34.40;632;03.11.23.434
12952;176848;34.40;633;03.11.23.445
12952;176855;34.40;634;03.11.23.445
12960;176855;34.40;635;03.11.23.445
12940;176849;34.40;636;03.11.23.445
12952;176853;34.40;637;03.11.23.445
12972;176850;34.40;638;03.11.23.445
12956;176853;34.40;639;03.11.23.445
12960;176853;34.40;640;03.11.23.445
12940;176843;34.40;641;03.11.23.445
12976;176843;34.40;642;03.11.23.456
12964;176837;34.40;643;03.11.23.456
12932;176850;34.40;644;03.11.23.456
12924;176844;34.40;645;03.11.23.456
12952;176848;34.40;646;03.11.23.456
12968;176843;34.40;647;03.11.23.456
12928;176845;34.40;648;03.11.23.456
12960;176828;34.40;649;03.11.23.456
12936;176831;34.40;650;03.11.23.533
12932;176833;34.40;651;03.11.23.533
12924;176832;34.40;652;03.11.23.533
12956;176820;34.40;653;03.11.23.533
12952;176832;34.40;654;03.11.23.533
12968;176830;34.40;655;03.11.23.533
12952;176824;34.40;656;03.11.23.544
12960;176822;34.40;657;03.11.23.544
12960;176816;34.40;658;03.11.23.554
12944;176810;34.40;659;03.11.23.554
12956;176808;34.40;660;03.11.23.554
12944;176803;34.40;661;03.11.23.554
12968;176812;34.40;662;03.11.23.554
12964;176810;34.40;663;03.11.23.565
12968;176807;34.40;664;03.11.23.565
12936;176810;34.40;665;03.11.23.565
12972;176811;34.40;666;03.11.23.565
12972;176806;34.40;667;03.11.23.565
12956;176804;34.40;668;03.11.23.565
12956;176807;34.40;669;03.11.23.565
12956;176816;34.40;670;03.11.23.565
12936;176809;34.40;671;03.11.23.565
12968;176800;34.40;672;03.11.23.565
12948;176799;34.40;673;03.11.23.565
12956;176795;34.40;674;03.11.23.565
12932;176803;34.36;675;03.11.23.664
12952;176797;34.36;676;03.11.23.664
12960;176794;34.36;677;03.11.23.675
12968;176799;34.36;678;03.11.23.675
12944;176794;34.36;679;03.11.23.675
12972;176796;34.36;680;03.11.23.675
12964;176795;34.36;681;03.11.23.675
12964;176796;34.36;682;03.11.23.675
12960;176799;34.36;683;03.11.23.675
12968;176803;34.36;684;03.11.23.675
12968;176801;34.36;685;03.11.23.675
12972;176802;34.36;686;03.11.23.675
12968;176793;34.36;687;03.11.23.675
12924;176802;34.36;688;03.11.23.675
12976;176804;34.36;689;03.11.23.675
12952;176793;34.36;690;03.11.23.686
12948;176800;34.36;691;03.11.23.686
12968;176794;34.36;692;03.11.23.686
12956;176800;34.36;693;03.11.23.686
12964;176795;34.36;694;03.11.23.686
12952;176797;34.36;695;03.11.23.686
12944;176796;34.36;696;03.11.23.686
12964;176803;34.36;697;03.11.23.686
12960;176814;34.36;698;03.11.23.686
12956;176801;34.36;699;03.11.23.686
12952;176802;34.36;700;03.11.23.807
12960;176805;34.36;701;03.11.23.807
12960;176806;34.36;702;03.11.23.807
12952;176808;34.36;703;03.11.23.807
12944;176802;34.36;704;03.11.23.807
12968;176794;34.36;705;03.11.23.807
12968;176795;34.36;706;03.11.23.807
12968;176803;34.36;707;03.11.23.807
12940;176795;34.36;708;03.11.23.807
12964;176809;34.36;709;03.11.23.807
12956;176799;34.36;710;03.11.23.807
12956;176799;34.36;711;03.11.23.818
12948;176797;34.36;712;03.11.23.818
12972;176798;34.36;713;03.11.23.818
12956;176804;34.36;714;03.11.23.818
12956;176799;34.36;715;03.11.23.818
12968;176796;34.36;716;03.11.23.818
12948;176806;34.36;717;03.11.23.818
12968;176797;34.36;718;03.11.23.818
12956;176801;34.36;719;03.11.23.818
12956;176809;34.36;720;03.11.23.818
12960;176806;34.36;721;03.11.23.818
12960;176806;34.36;722;03.11.23.818
12948;176803;34.36;723;03.11.23.818
12948;176812;34.36;724;03.11.23.818
12992;176811;34.40;725;03.11.23.927
12948;176814;34.40;726;03.11.23.927
12924;176816;34.40;727;03.11.23.927
12960;176807;34.40;728;03.11.23.927
12948;176814;34.40;729;03.11.23.927
12936;176813;34.40;730;03.11.23.927
12932;176805;34.40;731;03.11.23.927
12964;176805;34.40;732;03.11.23.938
12932;176813;34.40;733;03.11.23.938
12976;176807;34.40;734;03.11.23.938
12960;176812;34.40;735;03.11.23.938
12964;176815;34.40;736;03.11.23.938
12976;176812;34.40;737;03.11.23.938
12952;176812;34.40;738;03.11.23.938
12924;176822;34.40;739;03.11.23.938
12928;176813;34.40;740;03.11.23.938
12924;176816;34.40;741;03.11.23.938
12920;176818;34.40;742;03.11.23.938
12964;176815;34.40;743;03.11.23.938
12936;176824;34.40;744;03.11.23.938
12936;176829;34.40;745;03.11.23.949
12960;176823;34.40;746;03.11.23.949
12952;176826;34.40;747;03.11.23.949
12948;176829;34.40;748;03.11.23.949
12964;176827;34.40;749;03.11.23.949
12940;176821;34.40;750;03.11.24.037
12944;176818;34.40;751;03.11.24.037
12976;176827;34.40;752;03.11.24.037
12940;176829;34.40;753;03.11.24.037
12948;176828;34.40;754;03.11.24.048
12952;176819;34.40;755;03.11.24.048
12964;176829;34.40;756;03.11.24.048
12944;176823;34.40;757;03.11.24.048
12944;176829;34.40;758;03.11.24.048
12964;176828;34.40;759;03.11.24.048
12968;176825;34.40;760;03.11.24.048
12940;176830;34.40;761;03.11.24.059
12956;176827;34.40;762;03.11.24.059
12984;176828;34.40;763;03.11.24.059
12948;176821;34.40;764;03.11.24.059
12960;176827;34.40;765;03.11.24.059
12940;176830;34.40;766;03.11.24.059
12960;176828;34.40;767;03.11.24.059
12940;176837;34.40;768;03.11.24.059
12980;176834;34.40;769;03.11.24.059
12952;176843;34.40;770;03.11.24.059
12944;176831;34.40;771;03.11.24.070
12952;176837;34.40;772;03.11.24.070
12964;176838;34.40;773;03.11.24.070
12956;176835;34.40;774;03.11.24.070
12924;176844;34.40;775;03.11.24.167
12936;176845;34.40;776;03.11.24.167
12960;176842;34.40;777;03.11.24.167
12976;176854;34.40;778;03.11.24.167
12944;176842;34.40;779;03.11.24.167
12964;176848;34.40;780;03.11.24.167
12948;176849;34.40;781;03.11.24.167
12940;176847;34.40;782;03.11.24.167
12968;176845;34.40;783;03.11.24.167
12948;176846;34.40;784;03.11.24.167
12944;176839;34.40;785;03.11.24.167
12984;176840;34.40;786;03.11.24.167
12948;176850;34.40;787;03.11.24.178
12960;176858;34.40;788;03.11.24.178
12964;176857;34.40;789;03.11.24.178
12964;176858;34.40;790;03.11.24.178
12932;176857;34.40;791;03.11.24.178
12948;176864;34.40;792;03.11.24.178
12960;176869;34.40;793;03.11.24.178
12952;176858;34.40;794;03.11.24.178
12964;176865;34.40;795;03.11.24.178
12948;176855;34.40;796;03.11.24.178
12960;176862;34.40;797;03.11.24.178
12960;176861;34.40;798;03.11.24.178
12928;176861;34.40;799;03.11.24.178
12944;176857;34.40;800;03.11.24.288
12964;176854;34.40;801;03.11.24.288
12944;176871;34.40;802;03.11.24.288
12976;176857;34.40;803;03.11.24.288
12944;176860;34.40;804;03.11.24.288
12940;176857;34.40;805;03.11.24.288
12924;176852;34.40;806;03.11.24.288
12960;176857;34.40;807;03.11.24.288
12956;176849;34.40;808;03.11.24.299
12972;176845;34.40;809;03.11.24.299
12968;176846;34.40;810;03.11.24.299
12948;176852;34.40;811;03.11.24.299
12940;176850;34.40;812;03.11.24.299
12952;176840;34.40;813;03.11.24.299
12972;176835;34.40;814;03.11.24.299
12920;176835;34.40;815;03.11.24.299
12940;176835;34.40;816;03.11.24.299
12944;176834;34.40;817;03.11.24.310
12932;176832;34.40;818;03.11.24.310
12980;176830;34.40;819;03.11.24.310
12968;176823;34.40;820;03.11.24.310
12944;176823;34.40;821;03.11.24.310
12940;176827;34.40;822;03.11.24.310
12968;176826;34.40;823;03.11.24.310
12968;176826;34.40;824;03.11.24.310
12944;176825;34.40;825;03.11.24.420
12932;176814;34.40;826;03.11.24.420
12976;176824;34.40;827;03.11.24.420
12948;176825;34.40;828;03.11.24.420
12924;176821;34.40;829;03.11.24.431
12960;176828;34.40;830;03.11.24.431
12928;176819;34.40;831;03.11.24.431
12956;176820;34.40;832;03.11.24.431
12940;176823;34.40;833;03.11.24.431
12924;176818;34.40;834;03.11.24.431
12952;176827;34.40;835;03.11.24.431
12936;176818;34.40;836;03.11.24.431
12968;176814;34.40;837;03.11.24.431
12936;176814;34.40;838;03.11.24.431
12964;176816;34.40;839;03.11.24.431
12920;176819;34.40;840;03.11.24.431
12948;176812;34.40;841;03.11.24.431
12956;176813;34.40;842;03.11.24.442
12940;176814;34.40;843;03.11.24.442
12960;176818;34.40;844;03.11.24.442
12960;176806;34.40;845;03.11.24.442
12924;176811;34.40;846;03.11.24.442
12976;176804;34.40;847;03.11.24.442
12960;176811;34.40;848;03.11.24.442
12944;176800;34.40;849;03.11.24.442
12960;176811;34.40;850;03.11.24.540
12960;176804;34.40;851;03.11.24.540
12936;176803;34.40;852;03.11.24.551
12948;176805;34.40;853;03.11.24.551
12928;176798;34.40;854;03.11.24.551
12944;176808;34.40;855;03.11.24.551
12964;176814;34.40;856;03.11.24.551
12952;176816;34.40;857;03.11.24.551
12980;176809;34.40;858;03.11.24.551
12952;176816;34.40;859;03.11.24.551
12960;176809;34.40;860;03.11.24.562
12976;176813;34.40;861;03.11.24.562
12948;176811;34.40;862;03.11.24.562
12980;176811;34.40;863;03.11.24.562
12940;176801;34.40;864;03.11.24.562
12920;176815;34.40;865;03.11.24.562
12956;176814;34.40;866;03.11.24.562
12952;176807;34.40;867;03.11.24.562
12960;176802;34.40;868;03.11.24.562
12948;176811;34.40;869;03.11.24.562
12968;176806;34.40;870;03.11.24.562
12976;176807;34.40;871;03.11.24.562
12960;176808;34.40;872;03.11.24.573
12952;176806;34.40;873;03.11.24.573
12952;176809;34.40;874;03.11.24.573
12968;176801;34.40;875;03.11.24.661
12960;176811;34.40;876;03.11.24.661
12960;176803;34.40;877;03.11.24.661
12944;176814;34.40;878;03.11.24.661
12968;176799;34.40;879;03.11.24.661
12940;176813;34.40;880;03.11.24.661
12952;176804;34.40;881;03.11.24.661
12956;176801;34.40;882;03.11.24.661
12940;176800;34.40;883;03.11.24.661
12992;176798;34.40;884;03.11.24.661
12932;176808;34.40;885;03.11.24.672
12956;176805;34.40;886;03.11.24.672
12956;176797;34.40;887;03.11.24.672
12956;176812;34.40;888;03.11.24.672
12936;176806;34.40;889;03.11.24.672
12928;176801;34.40;890;03.11.24.672
12924;176800;34.40;891;03.11.24.672
12944;176803;34.40;892;03.11.24.672
12944;176801;34.40;893;03.11.24.672
12960;176798;34.40;894;03.11.24.672
12960;176806;34.40;895;03.11.24.672
12936;176799;34.40;896;03.11.24.672
12948;176805;34.40;897;03.11.24.672
12992;176810;34.40;898;03.11.24.683
12968;176796;34.40;899;03.11.24.683
12944;176801;34.40;900;03.11.24.793
12960;176806;34.40;901;03.11.24.793
12960;176800;34.40;902;03.11.24.793
12952;176805;34.40;903;03.11.24.793
12952;176800;34.40;904;03.11.24.793
12948;176798;34.40;905;03.11.24.793
12960;176807;34.40;906;03.11.24.793
12924;176810;34.40;907;03.11.24.794
12952;176811;34.40;908;03.11.24.794
12940;176808;34.40;909;03.11.24.805
12956;176820;34.40;910;03.11.24.805
12976;176812;34.40;911;03.11.24.805
12944;176822;34.40;912;03.11.24.805
12956;176813;34.40;913;03.11.24.805
12940;176812;34.40;914;03.11.24.805
12960;176821;34.40;915;03.11.24.805
12960;176809;34.40;916;03.11.24.805
12964;176816;34.40;917;03.11.24.805
12944;176816;34.40;918;03.11.24.805
12940;176823;34.40;919;03.11.24.805
12952;176826;34.40;920;03.11.24.805
12948;176818;34.40;921;03.11.24.816
12936;176813;34.40;922;03.11.24.816
12932;176824;34.40;923;03.11.24.816
12964;176824;34.40;924;03.11.24.816
12960;176834;34.40;925;03.11.24.914
12944;176822;34.40;926;03.11.24.914
12956;176825;34.40;927;03.11.24.914
12968;176827;34.40;928;03.11.24.914
12940;176828;34.40;929;03.11.24.925
12964;176833;34.40;930;03.11.24.925
12924;176832;34.40;931;03.11.24.925
12960;176834;34.40;932;03.11.24.925
12964;176841;34.40;933;03.11.24.925
12948;176830;34.40;934;03.11.24.925
12936;176832;34.40;935;03.11.24.925
12936;176841;34.40;936;03.11.24.925
12920;176834;34.40;937;03.11.24.925
12924;176835;34.40;938;03.11.24.925
12936;176841;34.40;939;03.11.24.925
12960;176844;34.40;940;03.11.24.925
12960;176846;34.40;941;03.11.24.925
12948;176850;34.40;942;03.11.24.936
12960;176852;34.40;943;03.11.24.936
12956;176846;34.40;944;03.11.24.936
12924;176851;34.40;945;03.11.24.936
12948;176851;34.40;946;03.11.24.936
12944;176847;34.40;947;03.11.24.936
12960;176853;34.40;948;03.11.24.936
12984;176848;34.40;949;03.11.24.936
12944;176853;34.40;950;03.11.25.057
12960;176855;34.40;951;03.11.25.057
12936;176851;34.40;952;03.11.25.057
12968;176848;34.40;953;03.11.25.057
12948;176857;34.40;954;03.11.25.057
12964;176856;34.40;955;03.11.25.057
12964;176857;34.40;956;03.11.25.057
12960;176868;34.40;957;03.11.25.057
12924;176865;34.40;958;03.11.25.057
12952;176860;34.40;959;03.11.25.057
12952;176870;34.40;960;03.11.25.057
12940;176857;34.40;961;03.11.25.057
12992;176863;34.40;962;03.11.25.057
12948;176859;34.40;963;03.11.25.068
12956;176862;34.40;964;03.11.25.068
12992;176870;34.40;965;03.11.25.068
12924;176867;34.40;966;03.11.25.068
12944;176862;34.40;967;03.11.25.068
12968;176868;34.40;968;03.11.25.068
12948;176854;34.40;969;03.11.25.068
12952;176869;34.40;970;03.11.25.068
12956;176868;34.40;971;03.11.25.068
12956;176867;34.40;972;03.11.25.068
12944;176865;34.40;973;03.11.25.068
12956;176858;34.40;974;03.11.25.068
12968;176862;34.40;975;03.11.25.166
12964;176867;34.40;976;03.11.25.166
12924;176870;34.40;977;03.11.25.166
12944;176869;34.40;978;03.11.25.166
12940;176866;34.40;979;03.11.25.166
12948;176860;34.40;980;03.11.25.166
12924;176855;34.40;981;03.11.25.166
