gsr; bvp; skt; skt2; Cont; time
12896;170636;33.88;475;03.53.01.782
12900;170633;33.88;476;03.53.01.782
12884;170640;33.88;477;03.53.01.782
12904;170647;33.88;478;03.53.01.782
12892;170641;33.88;479;03.53.01.782
12896;170634;33.88;480;03.53.01.782
12900;170644;33.88;481;03.53.01.782
12904;170636;33.88;482;03.53.01.782
12892;170637;33.88;483;03.53.01.793
12892;170632;33.88;484;03.53.01.793
12916;170622;33.88;485;03.53.01.793
12900;170615;33.88;486;03.53.01.793
12924;170615;33.88;487;03.53.01.793
12908;170599;33.88;488;03.53.01.793
12900;170592;33.88;489;03.53.01.793
12892;170577;33.88;490;03.53.01.793
12892;170576;33.88;491;03.53.01.793
12896;170567;33.88;492;03.53.01.804
12912;170555;33.88;493;03.53.01.804
12884;170550;33.88;494;03.53.01.804
12900;170539;33.88;495;03.53.01.804
12888;170534;33.88;496;03.53.01.804
12880;170526;33.88;497;03.53.01.804
12892;170530;33.88;498;03.53.01.804
12888;170518;33.88;499;03.53.01.804
12896;170512;33.88;500;03.53.01.902
12872;170515;33.88;501;03.53.01.902
12928;170514;33.88;502;03.53.01.902
12932;170504;33.88;503;03.53.01.902
12908;170508;33.88;504;03.53.01.902
12892;170513;33.88;505;03.53.01.902
12912;170524;33.88;506;03.53.01.913
12896;170525;33.88;507;03.53.01.913
12912;170524;33.88;508;03.53.01.913
12900;170516;33.88;509;03.53.01.913
12896;170528;33.88;510;03.53.01.913
12896;170531;33.88;511;03.53.01.913
12888;170539;33.88;512;03.53.01.913
12916;170533;33.88;513;03.53.01.913
12888;170538;33.88;514;03.53.01.913
12912;170552;33.88;515;03.53.01.913
12884;170548;33.88;516;03.53.01.913
12904;170555;33.88;517;03.53.01.913
12892;170550;33.88;518;03.53.01.913
12908;170564;33.88;519;03.53.01.924
12888;170561;33.88;520;03.53.01.924
12892;170578;33.88;521;03.53.01.924
12868;170573;33.88;522;03.53.01.924
12876;170580;33.88;523;03.53.01.924
12900;170581;33.88;524;03.53.01.924
12892;170572;33.88;525;03.53.02.001
12888;170587;33.88;526;03.53.02.001
12908;170579;33.88;527;03.53.02.001
12884;170586;33.88;528;03.53.02.012
12896;170587;33.88;529;03.53.02.012
12904;170590;33.88;530;03.53.02.012
12904;170594;33.88;531;03.53.02.012
12916;170594;33.88;532;03.53.02.012
12884;170596;33.88;533;03.53.02.012
12904;170589;33.88;534;03.53.02.012
12876;170600;33.88;535;03.53.02.012
12892;170599;33.88;536;03.53.02.012
12912;170598;33.88;537;03.53.02.013
12872;170599;33.88;538;03.53.02.024
12896;170603;33.88;539;03.53.02.024
12900;170588;33.88;540;03.53.02.024
12916;170596;33.88;541;03.53.02.024
12928;170589;33.88;542;03.53.02.046
12896;170596;33.88;543;03.53.02.046
12908;170603;33.88;544;03.53.02.046
12876;170582;33.88;545;03.53.02.046
12892;170589;33.88;546;03.53.02.057
12892;170588;33.88;547;03.53.02.057
12900;170579;33.88;548;03.53.02.057
12912;170579;33.88;549;03.53.02.057
12892;170573;33.88;550;03.53.02.134
12904;170567;33.88;551;03.53.02.134
12896;170571;33.88;552;03.53.02.134
12888;170572;33.88;553;03.53.02.134
12864;170554;33.88;554;03.53.02.134
12892;170558;33.88;555;03.53.02.134
12904;170563;33.88;556;03.53.02.134
12904;170554;33.88;557;03.53.02.134
12888;170553;33.88;558;03.53.02.134
12888;170560;33.88;559;03.53.02.134
12892;170551;33.88;560;03.53.02.134
12876;170554;33.88;561;03.53.02.134
12916;170553;33.88;562;03.53.02.134
12912;170555;33.88;563;03.53.02.145
12888;170555;33.88;564;03.53.02.145
12904;170552;33.88;565;03.53.02.145
12896;170549;33.88;566;03.53.02.145
12876;170556;33.88;567;03.53.02.145
12872;170551;33.88;568;03.53.02.145
12912;170551;33.88;569;03.53.02.145
12912;170555;33.88;570;03.53.02.145
12924;170563;33.88;571;03.53.02.145
12892;170565;33.88;572;03.53.02.145
12888;170569;33.88;573;03.53.02.145
12928;170565;33.88;574;03.53.02.145
12896;170576;33.88;575;03.53.02.265
12888;170579;33.88;576;03.53.02.265
12904;170583;33.88;577;03.53.02.265
12900;170589;33.88;578;03.53.02.265
12880;170583;33.88;579;03.53.02.265
12884;170582;33.88;580;03.53.02.265
12876;170591;33.88;581;03.53.02.265
12892;170593;33.88;582;03.53.02.265
12920;170590;33.88;583;03.53.02.265
12912;170594;33.88;584;03.53.02.276
12928;170598;33.88;585;03.53.02.276
12896;170604;33.88;586;03.53.02.276
12868;170613;33.88;587;03.53.02.276
12872;170609;33.88;588;03.53.02.276
12892;170616;33.88;589;03.53.02.276
12876;170621;33.88;590;03.53.02.276
12864;170630;33.88;591;03.53.02.276
12876;170621;33.88;592;03.53.02.276
12904;170638;33.88;593;03.53.02.276
12912;170645;33.88;594;03.53.02.276
12904;170654;33.88;595;03.53.02.276
12884;170661;33.88;596;03.53.02.276
12872;170655;33.88;597;03.53.02.287
12896;170669;33.88;598;03.53.02.287
12896;170672;33.88;599;03.53.02.287
12880;170677;33.88;600;03.53.02.375
12892;170675;33.88;601;03.53.02.375
12880;170681;33.88;602;03.53.02.375
12896;170675;33.88;603;03.53.02.375
12860;170677;33.88;604;03.53.02.375
12888;170679;33.88;605;03.53.02.386
12876;170671;33.88;606;03.53.02.386
12872;170674;33.88;607;03.53.02.386
12896;170672;33.88;608;03.53.02.397
12860;170663;33.88;609;03.53.02.397
12904;170657;33.88;610;03.53.02.397
12896;170659;33.88;611;03.53.02.397
12900;170644;33.88;612;03.53.02.397
12896;170625;33.88;613;03.53.02.397
12896;170625;33.88;614;03.53.02.408
12860;170603;33.88;615;03.53.02.408
12884;170592;33.88;616;03.53.02.408
12896;170577;33.88;617;03.53.02.408
12912;170572;33.88;618;03.53.02.408
12892;170559;33.88;619;03.53.02.408
12888;170547;33.88;620;03.53.02.408
12916;170537;33.88;621;03.53.02.408
12884;170522;33.88;622;03.53.02.408
12892;170523;33.88;623;03.53.02.408
12896;170518;33.88;624;03.53.02.408
12892;170519;33.88;625;03.53.02.497
12912;170513;33.88;626;03.53.02.497
12904;170516;33.88;627;03.53.02.497
12892;170523;33.88;628;03.53.02.497
12868;170520;33.88;629;03.53.02.508
12876;170525;33.88;630;03.53.02.508
12888;170529;33.88;631;03.53.02.508
12884;170547;33.88;632;03.53.02.508
12904;170538;33.88;633;03.53.02.508
12888;170539;33.88;634;03.53.02.508
12868;170550;33.88;635;03.53.02.508
12900;170541;33.88;636;03.53.02.508
12892;170547;33.88;637;03.53.02.508
12904;170553;33.88;638;03.53.02.508
12900;170558;33.88;639;03.53.02.508
12884;170549;33.88;640;03.53.02.508
12884;170557;33.88;641;03.53.02.508
12896;170560;33.88;642;03.53.02.519
12896;170552;33.88;643;03.53.02.519
12860;170559;33.88;644;03.53.02.519
12904;170558;33.88;645;03.53.02.519
12904;170563;33.88;646;03.53.02.519
12888;170566;33.88;647;03.53.02.519
12892;170579;33.88;648;03.53.02.519
12892;170589;33.88;649;03.53.02.519
12876;170581;33.88;650;03.53.02.629
12868;170598;33.88;651;03.53.02.629
12912;170606;33.88;652;03.53.02.629
12892;170614;33.88;653;03.53.02.629
12884;170618;33.88;654;03.53.02.629
12912;170628;33.88;655;03.53.02.629
12900;170628;33.88;656;03.53.02.629
12892;170632;33.88;657;03.53.02.629
12892;170635;33.88;658;03.53.02.629
12864;170634;33.88;659;03.53.02.629
12908;170633;33.88;660;03.53.02.629
12904;170645;33.88;661;03.53.02.629
12892;170636;33.88;662;03.53.02.639
12904;170638;33.88;663;03.53.02.639
12900;170633;33.88;664;03.53.02.639
12892;170622;33.88;665;03.53.02.639
12892;170628;33.88;666;03.53.02.639
12884;170619;33.88;667;03.53.02.650
12904;170616;33.88;668;03.53.02.650
12904;170618;33.88;669;03.53.02.650
12904;170608;33.88;670;03.53.02.650
12884;170604;33.88;671;03.53.02.650
12892;170600;33.88;672;03.53.02.650
12888;170588;33.88;673;03.53.02.650
12924;170582;33.88;674;03.53.02.650
12904;170573;33.88;675;03.53.02.760
12892;170571;33.88;676;03.53.02.760
12872;170564;33.88;677;03.53.02.760
12928;170561;33.88;678;03.53.02.760
12892;170559;33.88;679;03.53.02.760
12896;170556;33.88;680;03.53.02.760
12876;170549;33.88;681;03.53.02.760
12896;170556;33.88;682;03.53.02.771
12928;170554;33.88;683;03.53.02.771
12900;170546;33.88;684;03.53.02.771
12884;170557;33.88;685;03.53.02.771
12892;170555;33.88;686;03.53.02.771
12880;170558;33.88;687;03.53.02.771
12864;170559;33.88;688;03.53.02.771
12892;170557;33.88;689;03.53.02.771
12896;170569;33.88;690;03.53.02.771
12876;170574;33.88;691;03.53.02.771
12900;170568;33.88;692;03.53.02.771
12888;170577;33.88;693;03.53.02.771
12912;170579;33.88;694;03.53.02.771
12888;170583;33.88;695;03.53.02.771
12892;170585;33.88;696;03.53.02.782
12896;170605;33.88;697;03.53.02.782
12896;170603;33.88;698;03.53.02.782
12928;170617;33.88;699;03.53.02.782
12900;170612;33.88;700;03.53.02.892
12892;170631;33.88;701;03.53.02.892
12896;170636;33.88;702;03.53.02.892
12884;170637;33.88;703;03.53.02.892
12872;170648;33.88;704;03.53.02.892
12876;170656;33.88;705;03.53.02.903
12904;170661;33.88;706;03.53.02.903
12872;170679;33.88;707;03.53.02.903
12876;170685;33.88;708;03.53.02.903
12876;170687;33.88;709;03.53.02.903
12884;170694;33.88;710;03.53.02.903
12876;170700;33.88;711;03.53.02.903
12900;170696;33.88;712;03.53.02.903
12884;170695;33.88;713;03.53.02.903
12880;170702;33.88;714;03.53.02.903
12892;170695;33.88;715;03.53.02.903
12876;170704;33.88;716;03.53.02.903
12884;170699;33.88;717;03.53.02.914
12888;170699;33.88;718;03.53.02.914
12900;170692;33.88;719;03.53.02.914
12892;170682;33.88;720;03.53.02.914
12892;170674;33.88;721;03.53.02.914
12892;170675;33.88;722;03.53.02.914
12912;170665;33.88;723;03.53.02.914
12876;170660;33.88;724;03.53.02.914
12900;170660;33.88;725;03.53.03.001
12880;170659;33.88;726;03.53.03.012
12880;170648;33.88;727;03.53.03.012
12888;170645;33.88;728;03.53.03.012
12896;170645;33.88;729;03.53.03.012
12904;170642;33.88;730;03.53.03.012
12904;170641;33.88;731;03.53.03.012
12892;170642;33.88;732;03.53.03.012
12908;170635;33.88;733;03.53.03.023
12892;170643;33.88;734;03.53.03.034
12876;170636;33.88;735;03.53.03.034
12884;170625;33.88;736;03.53.03.034
12896;170631;33.88;737;03.53.03.034
12876;170633;33.88;738;03.53.03.034
12892;170632;33.88;739;03.53.03.034
12860;170628;33.88;740;03.53.03.034
12900;170626;33.88;741;03.53.03.034
12888;170623;33.88;742;03.53.03.034
12884;170617;33.88;743;03.53.03.034
12928;170617;33.88;744;03.53.03.034
12892;170622;33.88;745;03.53.03.034
12904;170617;33.88;746;03.53.03.034
12896;170618;33.88;747;03.53.03.045
12900;170610;33.88;748;03.53.03.045
12892;170622;33.88;749;03.53.03.045
12876;170611;33.88;750;03.53.03.143
12916;170617;33.88;751;03.53.03.143
12896;170615;33.88;752;03.53.03.143
12892;170615;33.88;753;03.53.03.143
12900;170619;33.88;754;03.53.03.143
12880;170615;33.88;755;03.53.03.143
12880;170614;33.88;756;03.53.03.143
12888;170612;33.88;757;03.53.03.143
12896;170612;33.88;758;03.53.03.166
12892;170616;33.88;759;03.53.03.166
12900;170619;33.88;760;03.53.03.166
12912;170602;33.88;761;03.53.03.166
12900;170608;33.88;762;03.53.03.166
12892;170600;33.88;763;03.53.03.166
12868;170590;33.88;764;03.53.03.166
12900;170585;33.88;765;03.53.03.166
12880;170581;33.88;766;03.53.03.166
12892;170578;33.88;767;03.53.03.166
12896;170570;33.88;768;03.53.03.166
12864;170573;33.88;769;03.53.03.177
12860;170563;33.88;770;03.53.03.177
12896;170556;33.88;771;03.53.03.177
12896;170551;33.88;772;03.53.03.177
12904;170544;33.88;773;03.53.03.177
12896;170550;33.88;774;03.53.03.177
12904;170541;33.88;775;03.53.03.265
12892;170531;33.88;776;03.53.03.265
12880;170529;33.88;777;03.53.03.265
12904;170527;33.88;778;03.53.03.265
12884;170521;33.88;779;03.53.03.265
12896;170514;33.88;780;03.53.03.265
12908;170520;33.88;781;03.53.03.265
12864;170525;33.88;782;03.53.03.265
12900;170521;33.88;783;03.53.03.276
12896;170524;33.88;784;03.53.03.276
12872;170527;33.88;785;03.53.03.276
12908;170533;33.88;786;03.53.03.276
12916;170536;33.88;787;03.53.03.276
12904;170542;33.88;788;03.53.03.276
12928;170533;33.88;789;03.53.03.276
12904;170543;33.88;790;03.53.03.276
12920;170549;33.88;791;03.53.03.276
12896;170550;33.88;792;03.53.03.276
12876;170544;33.88;793;03.53.03.276
12900;170557;33.88;794;03.53.03.276
12892;170559;33.88;795;03.53.03.287
12868;170557;33.88;796;03.53.03.287
12908;170566;33.88;797;03.53.03.287
12904;170566;33.88;798;03.53.03.287
12904;170565;33.88;799;03.53.03.287
12864;170566;33.88;800;03.53.03.385
12888;170565;33.88;801;03.53.03.385
12884;170571;33.88;802;03.53.03.385
12872;170580;33.88;803;03.53.03.385
12888;170574;33.88;804;03.53.03.396
12888;170570;33.88;805;03.53.03.396
12892;170579;33.88;806;03.53.03.396
12892;170565;33.88;807;03.53.03.396
12892;170571;33.88;808;03.53.03.396
12900;170569;33.88;809;03.53.03.396
12876;170577;33.88;810;03.53.03.396
12900;170576;33.88;811;03.53.03.396
12896;170588;33.88;812;03.53.03.396
12896;170590;33.88;813;03.53.03.396
12888;170603;33.88;814;03.53.03.396
12892;170606;33.88;815;03.53.03.396
12876;170608;33.88;816;03.53.03.407
12888;170618;33.88;817;03.53.03.407
12908;170619;33.88;818;03.53.03.407
12904;170625;33.88;819;03.53.03.407
12920;170627;33.88;820;03.53.03.407
12892;170624;33.88;821;03.53.03.407
12912;170625;33.88;822;03.53.03.407
12900;170615;33.88;823;03.53.03.407
12928;170613;33.88;824;03.53.03.407
12864;170607;33.88;825;03.53.03.496
12872;170604;33.88;826;03.53.03.507
12908;170591;33.88;827;03.53.03.507
12884;170596;33.88;828;03.53.03.507
12912;170586;33.88;829;03.53.03.507
12904;170574;33.88;830;03.53.03.507
12888;170567;33.88;831;03.53.03.507
12872;170554;33.88;832;03.53.03.507
12892;170553;33.88;833;03.53.03.518
12880;170554;33.88;834;03.53.03.518
12912;170546;33.88;835;03.53.03.518
12904;170544;33.88;836;03.53.03.518
12892;170540;33.88;837;03.53.03.518
12856;170540;33.88;838;03.53.03.518
12912;170534;33.88;839;03.53.03.518
12892;170533;33.88;840;03.53.03.518
12880;170545;33.88;841;03.53.03.518
12888;170541;33.88;842;03.53.03.518
12860;170541;33.88;843;03.53.03.518
12892;170535;33.88;844;03.53.03.529
12888;170534;33.88;845;03.53.03.529
12912;170544;33.88;846;03.53.03.529
12884;170541;33.88;847;03.53.03.529
12892;170544;33.88;848;03.53.03.529
12916;170552;33.88;849;03.53.03.529
12888;170555;33.88;850;03.53.03.639
12908;170551;33.88;851;03.53.03.639
12904;170561;33.88;852;03.53.03.639
12904;170556;33.88;853;03.53.03.639
12888;170558;33.88;854;03.53.03.639
12876;170559;33.88;855;03.53.03.639
12892;170562;33.88;856;03.53.03.639
12892;170559;33.88;857;03.53.03.639
12900;170555;33.88;858;03.53.03.650
12904;170544;33.88;859;03.53.03.650
12868;170553;33.88;860;03.53.03.650
12896;170546;33.88;861;03.53.03.650
12892;170545;33.88;862;03.53.03.650
12876;170531;33.88;863;03.53.03.650
12896;170535;33.88;864;03.53.03.650
12876;170527;33.88;865;03.53.03.650
12900;170526;33.88;866;03.53.03.650
12872;170522;33.88;867;03.53.03.672
12896;170519;33.88;868;03.53.03.672
12892;170516;33.88;869;03.53.03.672
12892;170513;33.88;870;03.53.03.672
12932;170519;33.88;871;03.53.03.672
12896;170519;33.88;872;03.53.03.672
12896;170521;33.88;873;03.53.03.672
12892;170523;33.88;874;03.53.03.672
12900;170531;33.92;875;03.53.03.748
12888;170539;33.92;876;03.53.03.748
12900;170530;33.92;877;03.53.03.748
12892;170535;33.92;878;03.53.03.748
12908;170543;33.92;879;03.53.03.748
12884;170534;33.92;880;03.53.03.748
12844;170536;33.92;881;03.53.03.748
12876;170545;33.92;882;03.53.03.759
12900;170543;33.92;883;03.53.03.759
12900;170536;33.92;884;03.53.03.759
12876;170545;33.92;885;03.53.03.759
12892;170533;33.92;886;03.53.03.759
12892;170527;33.92;887;03.53.03.759
12880;170529;33.92;888;03.53.03.759
12900;170525;33.92;889;03.53.03.759
12888;170521;33.92;890;03.53.03.759
12876;170518;33.92;891;03.53.03.759
12896;170513;33.92;892;03.53.03.759
12892;170505;33.92;893;03.53.03.759
12912;170509;33.92;894;03.53.03.759
12880;170502;33.92;895;03.53.03.770
12888;170511;33.92;896;03.53.03.770
12892;170506;33.92;897;03.53.03.770
12896;170509;33.92;898;03.53.03.770
12904;170504;33.92;899;03.53.03.770
12884;170501;33.92;900;03.53.03.880
12888;170504;33.92;901;03.53.03.880
12896;170499;33.92;902;03.53.03.891
12916;170502;33.92;903;03.53.03.891
12876;170511;33.92;904;03.53.03.891
12884;170518;33.92;905;03.53.03.891
12904;170510;33.92;906;03.53.03.891
12896;170518;33.92;907;03.53.03.891
12888;170512;33.92;908;03.53.03.891
12928;170521;33.92;909;03.53.03.891
12892;170519;33.92;910;03.53.03.891
12888;170523;33.92;911;03.53.03.891
12904;170535;33.92;912;03.53.03.891
12892;170523;33.92;913;03.53.03.891
12892;170522;33.92;914;03.53.03.891
12892;170529;33.92;915;03.53.03.891
12916;170524;33.92;916;03.53.03.902
12908;170531;33.92;917;03.53.03.902
12908;170530;33.92;918;03.53.03.902
12928;170531;33.92;919;03.53.03.902
12860;170537;33.92;920;03.53.03.913
12892;170534;33.92;921;03.53.03.913
12912;170536;33.92;922;03.53.03.913
12904;170545;33.92;923;03.53.03.913
12912;170543;33.92;924;03.53.03.913
12908;170547;33.88;925;03.53.04.022
12888;170550;33.88;926;03.53.04.022
12884;170554;33.88;927;03.53.04.022
12880;170547;33.88;928;03.53.04.022
12884;170551;33.88;929;03.53.04.022
12888;170551;33.88;930;03.53.04.022
12928;170557;33.88;931;03.53.04.022
12872;170543;33.88;932;03.53.04.022
12892;170543;33.88;933;03.53.04.022
12912;170541;33.88;934;03.53.04.022
12908;170540;33.88;935;03.53.04.022
12876;170539;33.88;936;03.53.04.033
12896;170539;33.88;937;03.53.04.033
12892;170523;33.88;938;03.53.04.033
12880;170538;33.88;939;03.53.04.033
12900;170520;33.88;940;03.53.04.033
12928;170516;33.88;941;03.53.04.033
12892;170515;33.88;942;03.53.04.033
12912;170504;33.88;943;03.53.04.033
12912;170505;33.88;944;03.53.04.033
12924;170507;33.88;945;03.53.04.033
12944;170504;33.88;946;03.53.04.033
12888;170507;33.88;947;03.53.04.033
12884;170500;33.88;948;03.53.04.033
12928;170502;33.88;949;03.53.04.044
12888;170511;33.88;950;03.53.04.131
12928;170516;33.88;951;03.53.04.131
12928;170510;33.88;952;03.53.04.131
12876;170512;33.88;953;03.53.04.131
12892;170521;33.88;954;03.53.04.131
12888;170519;33.88;955;03.53.04.131
12916;170520;33.88;956;03.53.04.131
12880;170525;33.88;957;03.53.04.131
12888;170534;33.88;958;03.53.04.142
12884;170536;33.88;959;03.53.04.142
12904;170535;33.88;960;03.53.04.142
12896;170541;33.88;961;03.53.04.142
12896;170548;33.88;962;03.53.04.142
12876;170550;33.88;963;03.53.04.142
12888;170559;33.88;964;03.53.04.142
12908;170565;33.88;965;03.53.04.153
12892;170562;33.88;966;03.53.04.153
12892;170563;33.88;967;03.53.04.153
12896;170563;33.88;968;03.53.04.153
12888;170558;33.88;969;03.53.04.153
12912;170560;33.88;970;03.53.04.153
12888;170559;33.88;971;03.53.04.153
12912;170567;33.88;972;03.53.04.153
12892;170562;33.88;973;03.53.04.153
12892;170555;33.88;974;03.53.04.153
12928;170562;33.88;975;03.53.04.263
12868;170567;33.88;976;03.53.04.263
12884;170558;33.88;977;03.53.04.263
12880;170558;33.88;978;03.53.04.263
12912;170551;33.88;979;03.53.04.274
12860;170545;33.88;980;03.53.04.274
12896;170543;33.88;981;03.53.04.274
12880;170534;33.88;982;03.53.04.274
12876;170530;33.88;983;03.53.04.274
12888;170536;33.88;984;03.53.04.274
12912;170522;33.88;985;03.53.04.274
12912;170528;33.88;986;03.53.04.284
12888;170525;33.88;987;03.53.04.284
12912;170523;33.88;988;03.53.04.284
12904;170516;33.88;989;03.53.04.284
12892;170510;33.88;990;03.53.04.284
12888;170508;33.88;991;03.53.04.284
12888;170505;33.88;992;03.53.04.284
12908;170504;33.88;993;03.53.04.284
12904;170503;33.88;994;03.53.04.284
12928;170504;33.88;995;03.53.04.284
12896;170491;33.88;996;03.53.04.284
12888;170510;33.88;997;03.53.04.284
12880;170508;33.88;998;03.53.04.295
12884;170506;33.88;999;03.53.04.295
12884;170506;33.88;000;03.53.04.394
12912;170512;33.88;001;03.53.04.394
12912;170516;33.88;002;03.53.04.394
12928;170509;33.88;003;03.53.04.394
12896;170517;33.88;004;03.53.04.394
12888;170515;33.88;005;03.53.04.394
12888;170513;33.88;006;03.53.04.394
12892;170529;33.88;007;03.53.04.394
12888;170521;33.88;008;03.53.04.394
12884;170531;33.88;009;03.53.04.394
12876;170543;33.88;010;03.53.04.394
12876;170541;33.88;011;03.53.04.394
12924;170542;33.88;012;03.53.04.405
12900;170545;33.88;013;03.53.04.405
12896;170546;33.88;014;03.53.04.405
12900;170545;33.88;015;03.53.04.405
12896;170545;33.88;016;03.53.04.405
12908;170539;33.88;017;03.53.04.405
12888;170540;33.88;018;03.53.04.405
12888;170538;33.88;019;03.53.04.405
12896;170538;33.88;020;03.53.04.405
12900;170529;33.88;021;03.53.04.405
12908;170528;33.88;022;03.53.04.405
12880;170529;33.88;023;03.53.04.405
12936;170525;33.88;024;03.53.04.405
12888;170524;33.92;025;03.53.04.515
12892;170515;33.92;026;03.53.04.515
12904;170508;33.92;027;03.53.04.515
12900;170509;33.92;028;03.53.04.515
12920;170504;33.92;029;03.53.04.515
12936;170506;33.92;030;03.53.04.515
12884;170503;33.92;031;03.53.04.515
12880;170504;33.92;032;03.53.04.515
12876;170495;33.92;033;03.53.04.515
12908;170504;33.92;034;03.53.04.526
12892;170496;33.92;035;03.53.04.526
12892;170497;33.92;036;03.53.04.526
12884;170503;33.92;037;03.53.04.526
12912;170494;33.92;038;03.53.04.526
12900;170499;33.92;039;03.53.04.526
12928;170500;33.92;040;03.53.04.526
12928;170493;33.92;041;03.53.04.526
12900;170496;33.92;042;03.53.04.526
12884;170502;33.92;043;03.53.04.526
12884;170501;33.92;044;03.53.04.526
12872;170508;33.92;045;03.53.04.526
12904;170499;33.92;046;03.53.04.526
12896;170508;33.92;047;03.53.04.537
12900;170506;33.92;048;03.53.04.537
12916;170506;33.92;049;03.53.04.537
12900;170516;33.92;050;03.53.04.624
12864;170512;33.92;051;03.53.04.624
12908;170519;33.92;052;03.53.04.624
12928;170505;33.92;053;03.53.04.624
12912;170510;33.92;054;03.53.04.624
12916;170509;33.92;055;03.53.04.635
12904;170509;33.92;056;03.53.04.635
12908;170507;33.92;057;03.53.04.635
12888;170511;33.92;058;03.53.04.635
12928;170507;33.92;059;03.53.04.635
12896;170513;33.92;060;03.53.04.635
12904;170511;33.92;061;03.53.04.646
12896;170511;33.92;062;03.53.04.646
12864;170511;33.92;063;03.53.04.646
12928;170514;33.92;064;03.53.04.646
12884;170515;33.92;065;03.53.04.646
12860;170520;33.92;066;03.53.04.646
12912;170522;33.92;067;03.53.04.646
12872;170525;33.92;068;03.53.04.646
12892;170528;33.92;069;03.53.04.646
12880;170536;33.92;070;03.53.04.646
12884;170545;33.92;071;03.53.04.646
12892;170549;33.92;072;03.53.04.646
12892;170565;33.92;073;03.53.04.646
12896;170560;33.92;074;03.53.04.657
12880;170567;33.88;075;03.53.04.755
12904;170577;33.88;076;03.53.04.755
12892;170580;33.88;077;03.53.04.755
12892;170582;33.88;078;03.53.04.755
12880;170595;33.88;079;03.53.04.755
12884;170612;33.88;080;03.53.04.755
12896;170610;33.88;081;03.53.04.755
12892;170624;33.88;082;03.53.04.755
12888;170626;33.88;083;03.53.04.755
12884;170644;33.88;084;03.53.04.755
12908;170650;33.88;085;03.53.04.755
12896;170658;33.88;086;03.53.04.755
12884;170671;33.88;087;03.53.04.755
12896;170672;33.88;088;03.53.04.766
12896;170687;33.88;089;03.53.04.766
12912;170702;33.88;090;03.53.04.766
12888;170717;33.88;091;03.53.04.766
12892;170723;33.88;092;03.53.04.766
12896;170733;33.88;093;03.53.04.766
12888;170748;33.88;094;03.53.04.766
12924;170761;33.88;095;03.53.04.766
12904;170759;33.88;096;03.53.04.766
12896;170777;33.88;097;03.53.04.766
12928;170787;33.88;098;03.53.04.766
12896;170779;33.88;099;03.53.04.766
12892;170785;33.88;100;03.53.04.876
12896;170786;33.88;101;03.53.04.876
12896;170788;33.88;102;03.53.04.876
12928;170802;33.88;103;03.53.04.876
12896;170804;33.88;104;03.53.04.876
12884;170821;33.88;105;03.53.04.876
12880;170832;33.88;106;03.53.04.876
12912;170840;33.88;107;03.53.04.876
12888;170839;33.88;108;03.53.04.876
12912;170857;33.88;109;03.53.04.887
12896;170866;33.88;110;03.53.04.887
12904;170875;33.88;111;03.53.04.887
12920;170887;33.88;112;03.53.04.887
12896;170907;33.88;113;03.53.04.887
12888;170912;33.88;114;03.53.04.887
12928;170920;33.88;115;03.53.04.887
12888;170937;33.88;116;03.53.04.887
12884;170949;33.88;117;03.53.04.887
12928;170968;33.88;118;03.53.04.887
12928;170991;33.88;119;03.53.04.887
12908;171000;33.88;120;03.53.04.887
12908;171014;33.88;121;03.53.04.887
12884;171023;33.88;122;03.53.04.897
12900;171034;33.88;123;03.53.04.897
12904;171056;33.88;124;03.53.04.897
12912;171057;33.92;125;03.53.05.018
12900;171069;33.92;126;03.53.05.018
12936;171079;33.92;127;03.53.05.018
12892;171085;33.92;128;03.53.05.018
12900;171092;33.92;129;03.53.05.029
12892;171108;33.92;130;03.53.05.029
12892;171119;33.92;131;03.53.05.029
12884;171123;33.92;132;03.53.05.029
12900;171123;33.92;133;03.53.05.029
12908;171131;33.92;134;03.53.05.029
12892;171134;33.92;135;03.53.05.029
12904;171138;33.92;136;03.53.05.029
12896;171157;33.92;137;03.53.05.029
12920;171160;33.92;138;03.53.05.029
12916;171168;33.92;139;03.53.05.029
12888;171179;33.92;140;03.53.05.029
12912;171184;33.92;141;03.53.05.029
12896;171188;33.92;142;03.53.05.039
12904;171203;33.92;143;03.53.05.039
12928;171202;33.92;144;03.53.05.039
12900;171216;33.92;145;03.53.05.039
12892;171235;33.92;146;03.53.05.039
12892;171230;33.92;147;03.53.05.039
12888;171242;33.92;148;03.53.05.039
12936;171257;33.92;149;03.53.05.039
12888;171261;33.92;150;03.53.05.138
12908;171264;33.92;151;03.53.05.138
12892;171275;33.92;152;03.53.05.138
12896;171278;33.92;153;03.53.05.138
12912;171298;33.92;154;03.53.05.138
12904;171313;33.92;155;03.53.05.138
12904;171327;33.92;156;03.53.05.138
12888;171336;33.92;157;03.53.05.138
12888;171350;33.92;158;03.53.05.138
12888;171372;33.92;159;03.53.05.138
12872;171383;33.92;160;03.53.05.138
12892;171393;33.92;161;03.53.05.138
12888;171406;33.92;162;03.53.05.138
12928;171413;33.92;163;03.53.05.149
12880;171436;33.92;164;03.53.05.149
12908;171450;33.92;165;03.53.05.149
12892;171455;33.92;166;03.53.05.149
12880;171477;33.92;167;03.53.05.149
12892;171487;33.92;168;03.53.05.160
12876;171499;33.92;169;03.53.05.160
12908;171505;33.92;170;03.53.05.160
12860;171514;33.92;171;03.53.05.160
12892;171530;33.92;172;03.53.05.160
12892;171541;33.92;173;03.53.05.160
12940;171551;33.92;174;03.53.05.160
12888;171570;33.92;175;03.53.05.259
12928;171585;33.92;176;03.53.05.259
12908;171584;33.92;177;03.53.05.259
12888;171592;33.92;178;03.53.05.259
12904;171610;33.92;179;03.53.05.259
12892;171613;33.92;180;03.53.05.259
12900;171621;33.92;181;03.53.05.259
12896;171630;33.92;182;03.53.05.259
12896;171625;33.92;183;03.53.05.292
12892;171635;33.92;184;03.53.05.292
12884;171630;33.92;185;03.53.05.292
12880;171639;33.92;186;03.53.05.292
12916;171638;33.92;187;03.53.05.292
12896;171647;33.92;188;03.53.05.292
12888;171643;33.92;189;03.53.05.292
12908;171631;33.92;190;03.53.05.292
12904;171634;33.92;191;03.53.05.292
12888;171623;33.92;192;03.53.05.292
12888;171628;33.92;193;03.53.05.303
12860;171618;33.92;194;03.53.05.303
12912;171624;33.92;195;03.53.05.303
12884;171621;33.92;196;03.53.05.303
12896;171621;33.92;197;03.53.05.303
12892;171632;33.92;198;03.53.05.303
12928;171635;33.92;199;03.53.05.303
12884;171648;33.92;200;03.53.05.380
12888;171651;33.92;201;03.53.05.380
12908;171653;33.92;202;03.53.05.380
12896;171665;33.92;203;03.53.05.380
12900;171660;33.92;204;03.53.05.380
12904;171665;33.92;205;03.53.05.380
12900;171673;33.92;206;03.53.05.380
12900;171677;33.92;207;03.53.05.391
12904;171674;33.92;208;03.53.05.391
12868;171668;33.92;209;03.53.05.391
12860;171673;33.92;210;03.53.05.391
12876;171668;33.92;211;03.53.05.391
12908;171674;33.92;212;03.53.05.391
12884;171672;33.92;213;03.53.05.391
12896;171686;33.92;214;03.53.05.391
12944;171685;33.92;215;03.53.05.391
12908;171695;33.92;216;03.53.05.391
12900;171715;33.92;217;03.53.05.391
12876;171721;33.92;218;03.53.05.391
12888;171731;33.92;219;03.53.05.391
12904;171748;33.92;220;03.53.05.402
12884;171749;33.92;221;03.53.05.402
12896;171765;33.92;222;03.53.05.402
12908;171764;33.92;223;03.53.05.402
12892;171772;33.92;224;03.53.05.402
12912;171783;33.92;225;03.53.05.500
12892;171780;33.92;226;03.53.05.500
12912;171779;33.92;227;03.53.05.500
12908;171783;33.92;228;03.53.05.511
12892;171789;33.92;229;03.53.05.511
12916;171796;33.92;230;03.53.05.511
12884;171800;33.92;231;03.53.05.511
12888;171817;33.92;232;03.53.05.511
12896;171818;33.92;233;03.53.05.511
12928;171822;33.92;234;03.53.05.511
12880;171828;33.92;235;03.53.05.511
12904;171838;33.92;236;03.53.05.511
12884;171837;33.92;237;03.53.05.511
12876;171845;33.92;238;03.53.05.511
12896;171849;33.92;239;03.53.05.511
12896;171850;33.92;240;03.53.05.522
12928;171854;33.92;241;03.53.05.522
12940;171867;33.92;242;03.53.05.522
12888;171888;33.92;243;03.53.05.522
12900;171890;33.92;244;03.53.05.522
12896;171901;33.92;245;03.53.05.533
12888;171911;33.92;246;03.53.05.533
12908;171920;33.92;247;03.53.05.533
12892;171928;33.92;248;03.53.05.533
12896;171936;33.92;249;03.53.05.533
12908;171951;33.92;250;03.53.05.631
12928;171951;33.92;251;03.53.05.631
12912;171959;33.92;252;03.53.05.631
12900;171972;33.92;253;03.53.05.631
12892;171976;33.92;254;03.53.05.631
12936;171983;33.92;255;03.53.05.631
12900;171984;33.92;256;03.53.05.631
12892;171991;33.92;257;03.53.05.631
12904;172003;33.92;258;03.53.05.653
12888;172012;33.92;259;03.53.05.653
12880;172018;33.92;260;03.53.05.653
12904;172018;33.92;261;03.53.05.653
12892;172022;33.92;262;03.53.05.653
12884;172031;33.92;263;03.53.05.653
12888;172035;33.92;264;03.53.05.653
12888;172036;33.92;265;03.53.05.653
12896;172044;33.92;266;03.53.05.653
12916;172049;33.92;267;03.53.05.653
12888;172054;33.92;268;03.53.05.653
12888;172053;33.92;269;03.53.05.653
12888;172057;33.92;270;03.53.05.664
12900;172057;33.92;271;03.53.05.664
12908;172052;33.92;272;03.53.05.664
12896;172063;33.92;273;03.53.05.664
12932;172059;33.92;274;03.53.05.664
12896;172056;33.88;275;03.53.05.750
12928;172066;33.88;276;03.53.05.750
12876;172062;33.88;277;03.53.05.750
12896;172064;33.88;278;03.53.05.750
12912;172058;33.88;279;03.53.05.750
12896;172063;33.88;280;03.53.05.750
12912;172059;33.88;281;03.53.05.761
12920;172059;33.88;282;03.53.05.761
12884;172064;33.88;283;03.53.05.761
12896;172064;33.88;284;03.53.05.761
12912;172067;33.88;285;03.53.05.761
12892;172061;33.88;286;03.53.05.761
12908;172059;33.88;287;03.53.05.761
12896;172053;33.88;288;03.53.05.761
12896;172069;33.88;289;03.53.05.761
12896;172064;33.88;290;03.53.05.761
12888;172059;33.88;291;03.53.05.761
12904;172057;33.88;292;03.53.05.761
12920;172054;33.88;293;03.53.05.761
12876;172049;33.88;294;03.53.05.761
12880;172052;33.88;295;03.53.05.772
12860;172048;33.88;296;03.53.05.772
12912;172044;33.88;297;03.53.05.772
12876;172042;33.88;298;03.53.05.772
12884;172038;33.88;299;03.53.05.772
12900;172033;33.88;300;03.53.05.871
12896;172041;33.88;301;03.53.05.871
12920;172044;33.88;302;03.53.05.871
12884;172041;33.88;303;03.53.05.882
12880;172040;33.88;304;03.53.05.882
12904;172050;33.88;305;03.53.05.882
12912;172048;33.88;306;03.53.05.882
12888;172048;33.88;307;03.53.05.882
12888;172052;33.88;308;03.53.05.882
12904;172048;33.88;309;03.53.05.882
12920;172064;33.88;310;03.53.05.882
12900;172067;33.88;311;03.53.05.882
12888;172078;33.88;312;03.53.05.882
12892;172084;33.88;313;03.53.05.882
12912;172093;33.88;314;03.53.05.882
12912;172102;33.88;315;03.53.05.882
12896;172110;33.88;316;03.53.05.893
12900;172119;33.88;317;03.53.05.893
12860;172128;33.88;318;03.53.05.893
12888;172138;33.88;319;03.53.05.893
12892;172140;33.88;320;03.53.05.893
12912;172136;33.88;321;03.53.05.893
12876;172143;33.88;322;03.53.05.893
12928;172148;33.88;323;03.53.05.893
12892;172139;33.88;324;03.53.05.893
12908;172128;33.92;325;03.53.06.013
12888;172124;33.92;326;03.53.06.013
12896;172114;33.92;327;03.53.06.013
12888;172107;33.92;328;03.53.06.013
12876;172104;33.92;329;03.53.06.013
12892;172101;33.92;330;03.53.06.013
12928;172086;33.92;331;03.53.06.013
12884;172080;33.92;332;03.53.06.013
12892;172073;33.92;333;03.53.06.013
12888;172060;33.92;334;03.53.06.013
12928;172045;33.92;335;03.53.06.013
12896;172044;33.92;336;03.53.06.013
12880;172029;33.92;337;03.53.06.024
12884;172031;33.92;338;03.53.06.024
12904;172020;33.92;339;03.53.06.024
12892;172003;33.92;340;03.53.06.024
12904;172005;33.92;341;03.53.06.024
12892;171992;33.92;342;03.53.06.035
12888;171998;33.92;343;03.53.06.035
12892;171989;33.92;344;03.53.06.035
12928;171987;33.92;345;03.53.06.035
12936;171989;33.92;346;03.53.06.035
12876;171977;33.92;347;03.53.06.035
12884;171975;33.92;348;03.53.06.035
12900;171977;33.92;349;03.53.06.035
12900;171970;33.92;350;03.53.06.156
12928;171970;33.92;351;03.53.06.156
12900;171960;33.92;352;03.53.06.156
12912;171956;33.92;353;03.53.06.156
12900;171944;33.92;354;03.53.06.156
12904;171945;33.92;355;03.53.06.156
12912;171936;33.92;356;03.53.06.156
12916;171934;33.92;357;03.53.06.167
12904;171931;33.92;358;03.53.06.167
12916;171923;33.92;359;03.53.06.167
12928;171913;33.92;360;03.53.06.167
12904;171903;33.92;361;03.53.06.167
12892;171896;33.92;362;03.53.06.167
12892;171895;33.92;363;03.53.06.167
12912;171881;33.92;364;03.53.06.167
12912;171879;33.92;365;03.53.06.167
12928;171878;33.92;366;03.53.06.178
12924;171881;33.92;367;03.53.06.189
12892;171884;33.92;368;03.53.06.189
12900;171900;33.92;369;03.53.06.189
12860;171896;33.92;370;03.53.06.189
12912;171909;33.92;371;03.53.06.189
12928;171919;33.92;372;03.53.06.189
12900;171926;33.92;373;03.53.06.189
12892;171935;33.92;374;03.53.06.199
12908;171933;33.92;375;03.53.06.276
12876;171941;33.92;376;03.53.06.276
12916;171942;33.92;377;03.53.06.276
12916;171952;33.92;378;03.53.06.287
12880;171949;33.92;379;03.53.06.287
12888;171957;33.92;380;03.53.06.287
12892;171954;33.92;381;03.53.06.287
12912;171946;33.92;382;03.53.06.287
12928;171952;33.92;383;03.53.06.287
12888;171941;33.92;384;03.53.06.287
12912;171937;33.92;385;03.53.06.287
12900;171930;33.92;386;03.53.06.287
12900;171926;33.92;387;03.53.06.287
12936;171923;33.92;388;03.53.06.287
12892;171912;33.92;389;03.53.06.287
12924;171919;33.92;390;03.53.06.287
12904;171908;33.92;391;03.53.06.298
12928;171905;33.92;392;03.53.06.298
12896;171910;33.92;393;03.53.06.298
12928;171913;33.92;394;03.53.06.298
12900;171902;33.92;395;03.53.06.298
12892;171912;33.92;396;03.53.06.298
12884;171900;33.92;397;03.53.06.298
12896;171893;33.92;398;03.53.06.298
12880;171886;33.92;399;03.53.06.298
12884;171886;33.92;400;03.53.06.386
12900;171880;33.92;401;03.53.06.386
12900;171877;33.92;402;03.53.06.386
12880;171873;33.92;403;03.53.06.386
12916;171875;33.92;404;03.53.06.386
12896;171870;33.92;405;03.53.06.386
12904;171877;33.92;406;03.53.06.386
12888;171876;33.92;407;03.53.06.386
12912;171884;33.92;408;03.53.06.397
12900;171875;33.92;409;03.53.06.397
12892;171889;33.92;410;03.53.06.397
12892;171878;33.92;411;03.53.06.397
12892;171888;33.92;412;03.53.06.397
12888;171893;33.92;413;03.53.06.397
12892;171891;33.92;414;03.53.06.397
12924;171894;33.92;415;03.53.06.397
12912;171894;33.92;416;03.53.06.397
12884;171905;33.92;417;03.53.06.397
12904;171902;33.92;418;03.53.06.397
12888;171904;33.92;419;03.53.06.397
12888;171904;33.92;420;03.53.06.408
12888;171899;33.92;421;03.53.06.408
12900;171898;33.92;422;03.53.06.408
12888;171897;33.92;423;03.53.06.408
12908;171899;33.92;424;03.53.06.408
12924;171893;33.88;425;03.53.06.551
12884;171894;33.88;426;03.53.06.551
12908;171906;33.88;427;03.53.06.551
12908;171904;33.88;428;03.53.06.551
12920;171909;33.88;429;03.53.06.551
12860;171916;33.88;430;03.53.06.551
12912;171907;33.88;431;03.53.06.551
12888;171918;33.88;432;03.53.06.551
12900;171918;33.88;433;03.53.06.551
12908;171916;33.88;434;03.53.06.562
12892;171936;33.88;435;03.53.06.562
12888;171931;33.88;436;03.53.06.562
12884;171927;33.88;437;03.53.06.562
12912;171935;33.88;438;03.53.06.562
12900;171944;33.88;439;03.53.06.562
12916;171945;33.88;440;03.53.06.562
12904;171944;33.88;441;03.53.06.562
12900;171943;33.88;442;03.53.06.562
12896;171937;33.88;443;03.53.06.562
12896;171934;33.88;444;03.53.06.562
12892;171927;33.88;445;03.53.06.562
12888;171922;33.88;446;03.53.06.562
12860;171916;33.88;447;03.53.06.573
12908;171903;33.88;448;03.53.06.573
12908;171898;33.88;449;03.53.06.573
12884;171891;33.88;450;03.53.06.639
12896;171882;33.88;451;03.53.06.639
12916;171871;33.88;452;03.53.06.639
12928;171866;33.88;453;03.53.06.639
12920;171850;33.88;454;03.53.06.639
12900;171846;33.88;455;03.53.06.639
12900;171839;33.88;456;03.53.06.650
12904;171826;33.88;457;03.53.06.650
12888;171806;33.88;458;03.53.06.650
12876;171804;33.88;459;03.53.06.650
12936;171795;33.88;460;03.53.06.650
12928;171786;33.88;461;03.53.06.650
12916;171784;33.88;462;03.53.06.650
12908;171794;33.88;463;03.53.06.650
12888;171771;33.88;464;03.53.06.650
12892;171770;33.88;465;03.53.06.650
12892;171777;33.88;466;03.53.06.650
12896;171776;33.88;467;03.53.06.650
12932;171771;33.88;468;03.53.06.650
12900;171772;33.88;469;03.53.06.650
12880;171767;33.88;470;03.53.06.661
12884;171761;33.88;471;03.53.06.661
12892;171764;33.88;472;03.53.06.661
12888;171763;33.88;473;03.53.06.661
12920;171772;33.88;474;03.53.06.661
12892;171766;33.92;475;03.53.06.749
12892;171776;33.92;476;03.53.06.749
12892;171767;33.92;477;03.53.06.760
12892;171772;33.92;478;03.53.06.760
12896;171772;33.92;479;03.53.06.760
12888;171771;33.92;480;03.53.06.760
12932;171775;33.92;481;03.53.06.760
12908;171777;33.92;482;03.53.06.760
12928;171762;33.92;483;03.53.06.760
12884;171766;33.92;484;03.53.06.760
12920;171767;33.92;485;03.53.06.760
12904;171770;33.92;486;03.53.06.760
12916;171754;33.92;487;03.53.06.760
12928;171756;33.92;488;03.53.06.760
12892;171743;33.92;489;03.53.06.760
12904;171750;33.92;490;03.53.06.760
12928;171745;33.92;491;03.53.06.771
12860;171742;33.92;492;03.53.06.771
12928;171743;33.92;493;03.53.06.771
12892;171736;33.92;494;03.53.06.771
12892;171740;33.92;495;03.53.06.782
12892;171732;33.92;496;03.53.06.782
12900;171721;33.92;497;03.53.06.782
12900;171715;33.92;498;03.53.06.782
12908;171709;33.92;499;03.53.06.782
12884;171718;33.92;500;03.53.06.880
12888;171714;33.92;501;03.53.06.880
12888;171704;33.92;502;03.53.06.880
12896;171696;33.92;503;03.53.06.880
12896;171689;33.92;504;03.53.06.880
12888;171676;33.92;505;03.53.06.880
12904;171682;33.92;506;03.53.06.880
12896;171671;33.92;507;03.53.06.880
12912;171682;33.92;508;03.53.06.891
12892;171672;33.92;509;03.53.06.891
12908;171668;33.92;510;03.53.06.891
12888;171664;33.92;511;03.53.06.891
12888;171658;33.92;512;03.53.06.891
12892;171661;33.92;513;03.53.06.891
12900;171650;33.92;514;03.53.06.891
12880;171664;33.92;515;03.53.06.891
12868;171661;33.92;516;03.53.06.891
12880;171659;33.92;517;03.53.06.913
12896;171654;33.92;518;03.53.06.913
12888;171661;33.92;519;03.53.06.913
12904;171664;33.92;520;03.53.06.913
12916;171673;33.92;521;03.53.06.913
12884;171674;33.92;522;03.53.06.913
12884;171674;33.92;523;03.53.06.913
12924;171672;33.92;524;03.53.06.913
12896;171674;33.92;525;03.53.07.001
12896;171670;33.92;526;03.53.07.001
12888;171671;33.92;527;03.53.07.001
12876;171676;33.92;528;03.53.07.001
12896;171678;33.92;529;03.53.07.001
12872;171668;33.92;530;03.53.07.001
12904;171676;33.92;531;03.53.07.001
12916;171678;33.92;532;03.53.07.001
12904;171681;33.92;533;03.53.07.001
12904;171672;33.92;534;03.53.07.012
12904;171671;33.92;535;03.53.07.012
12884;171667;33.92;536;03.53.07.012
12932;171675;33.92;537;03.53.07.012
12888;171662;33.92;538;03.53.07.012
12888;171670;33.92;539;03.53.07.012
12888;171670;33.92;540;03.53.07.012
12888;171668;33.92;541;03.53.07.012
12892;171672;33.92;542;03.53.07.023
12884;171674;33.92;543;03.53.07.023
12900;171665;33.92;544;03.53.07.023
12892;171662;33.92;545;03.53.07.023
12908;171665;33.92;546;03.53.07.023
12884;171664;33.92;547;03.53.07.023
12908;171662;33.92;548;03.53.07.023
12936;171660;33.92;549;03.53.07.023
12912;171661;33.92;550;03.53.07.132
12896;171658;33.92;551;03.53.07.132
12904;171670;33.92;552;03.53.07.132
12884;171660;33.92;553;03.53.07.132
12908;171651;33.92;554;03.53.07.143
12876;171656;33.92;555;03.53.07.143
12888;171658;33.92;556;03.53.07.143
12860;171651;33.92;557;03.53.07.143
12904;171658;33.92;558;03.53.07.143
12892;171647;33.92;559;03.53.07.143
12904;171633;33.92;560;03.53.07.143
12916;171633;33.92;561;03.53.07.143
12904;171629;33.92;562;03.53.07.143
12884;171621;33.92;563;03.53.07.143
12896;171614;33.92;564;03.53.07.143
12872;171603;33.92;565;03.53.07.154
12888;171599;33.92;566;03.53.07.154
12908;171592;33.92;567;03.53.07.154
12864;171592;33.92;568;03.53.07.154
12892;171581;33.92;569;03.53.07.154
12876;171574;33.92;570;03.53.07.154
12892;171571;33.92;571;03.53.07.154
12888;171556;33.92;572;03.53.07.154
12860;171547;33.92;573;03.53.07.154
12916;171548;33.92;574;03.53.07.154
12900;171530;33.88;575;03.53.07.275
12872;171530;33.88;576;03.53.07.275
12912;171526;33.88;577;03.53.07.275
12892;171522;33.88;578;03.53.07.275
12876;171515;33.88;579;03.53.07.275
12896;171500;33.88;580;03.53.07.275
12900;171502;33.88;581;03.53.07.275
12896;171497;33.88;582;03.53.07.275
12884;171496;33.88;583;03.53.07.286
12872;171497;33.88;584;03.53.07.286
12880;171490;33.88;585;03.53.07.286
12888;171494;33.88;586;03.53.07.286
12884;171489;33.88;587;03.53.07.286
12868;171496;33.88;588;03.53.07.286
12892;171489;33.88;589;03.53.07.286
12888;171489;33.88;590;03.53.07.286
12888;171503;33.88;591;03.53.07.286
12860;171496;33.88;592;03.53.07.286
12884;171496;33.88;593;03.53.07.286
12916;171501;33.88;594;03.53.07.286
12904;171501;33.88;595;03.53.07.286
12900;171503;33.88;596;03.53.07.286
12896;171510;33.88;597;03.53.07.297
12916;171508;33.88;598;03.53.07.297
12904;171519;33.88;599;03.53.07.297
12892;171517;33.88;600;03.53.07.384
12888;171526;33.88;601;03.53.07.384
12884;171522;33.88;602;03.53.07.384
12864;171519;33.88;603;03.53.07.384
12872;171528;33.88;604;03.53.07.384
12908;171525;33.88;605;03.53.07.384
12884;171535;33.88;606;03.53.07.384
12860;171533;33.88;607;03.53.07.384
12912;171533;33.88;608;03.53.07.395
12864;171536;33.88;609;03.53.07.395
12892;171532;33.88;610;03.53.07.395
12884;171537;33.88;611;03.53.07.395
12912;171541;33.88;612;03.53.07.395
12884;171539;33.88;613;03.53.07.395
12872;171536;33.88;614;03.53.07.395
12908;171544;33.88;615;03.53.07.395
12908;171540;33.88;616;03.53.07.395
12892;171550;33.88;617;03.53.07.406
12852;171542;33.88;618;03.53.07.406
12876;171534;33.88;619;03.53.07.406
12908;171545;33.88;620;03.53.07.406
12896;171542;33.88;621;03.53.07.406
12892;171544;33.88;622;03.53.07.406
12892;171546;33.88;623;03.53.07.406
12928;171544;33.88;624;03.53.07.406
12904;171546;33.92;625;03.53.07.505
12892;171548;33.92;626;03.53.07.505
12908;171545;33.92;627;03.53.07.505
12880;171543;33.92;628;03.53.07.505
12904;171536;33.92;629;03.53.07.505
12884;171535;33.92;630;03.53.07.505
12888;171530;33.92;631;03.53.07.516
12860;171532;33.92;632;03.53.07.516
12892;171534;33.92;633;03.53.07.516
12860;171525;33.92;634;03.53.07.516
12912;171534;33.92;635;03.53.07.516
12908;171527;33.92;636;03.53.07.516
12904;171524;33.92;637;03.53.07.516
12928;171531;33.92;638;03.53.07.516
12888;171525;33.92;639;03.53.07.516
12908;171533;33.92;640;03.53.07.516
12900;171536;33.92;641;03.53.07.516
12892;171535;33.92;642;03.53.07.516
12876;171540;33.92;643;03.53.07.516
12872;171540;33.92;644;03.53.07.527
12888;171539;33.92;645;03.53.07.527
12900;171540;33.92;646;03.53.07.527
12876;171535;33.92;647;03.53.07.527
12888;171535;33.92;648;03.53.07.527
12900;171534;33.92;649;03.53.07.527
12892;171529;33.92;650;03.53.07.625
12856;171536;33.92;651;03.53.07.636
12900;171527;33.92;652;03.53.07.636
12896;171532;33.92;653;03.53.07.636
12896;171523;33.92;654;03.53.07.636
12880;171520;33.92;655;03.53.07.636
12892;171524;33.92;656;03.53.07.636
12888;171517;33.92;657;03.53.07.636
12892;171512;33.92;658;03.53.07.636
12872;171506;33.92;659;03.53.07.636
12908;171501;33.92;660;03.53.07.636
12896;171503;33.92;661;03.53.07.636
12872;171496;33.92;662;03.53.07.636
12896;171505;33.92;663;03.53.07.636
12876;171490;33.92;664;03.53.07.647
12892;171492;33.92;665;03.53.07.647
12884;171491;33.92;666;03.53.07.647
12920;171490;33.92;667;03.53.07.647
12892;171482;33.92;668;03.53.07.647
12888;171473;33.92;669;03.53.07.647
12916;171486;33.92;670;03.53.07.647
12888;171474;33.92;671;03.53.07.647
12908;171468;33.92;672;03.53.07.647
12912;171467;33.92;673;03.53.07.647
12908;171467;33.92;674;03.53.07.647
12908;171463;33.92;675;03.53.07.767
12900;171445;33.92;676;03.53.07.767
12912;171437;33.92;677;03.53.07.767
12900;171434;33.92;678;03.53.07.767
12868;171431;33.92;679;03.53.07.767
12888;171429;33.92;680;03.53.07.767
12912;171413;33.92;681;03.53.07.767
12888;171415;33.92;682;03.53.07.767
12888;171409;33.92;683;03.53.07.767
12884;171407;33.92;684;03.53.07.778
12900;171411;33.92;685;03.53.07.778
12896;171405;33.92;686;03.53.07.778
12860;171398;33.92;687;03.53.07.778
12904;171405;33.92;688;03.53.07.778
12896;171389;33.92;689;03.53.07.778
12888;171398;33.92;690;03.53.07.778
12860;171401;33.92;691;03.53.07.778
12884;171392;33.92;692;03.53.07.778
12888;171399;33.92;693;03.53.07.778
12904;171395;33.92;694;03.53.07.778
12884;171405;33.92;695;03.53.07.778
12892;171400;33.92;696;03.53.07.778
12928;171399;33.92;697;03.53.07.789
12888;171397;33.92;698;03.53.07.789
12896;171409;33.92;699;03.53.07.789
12880;171404;33.92;700;03.53.07.877
12856;171404;33.92;701;03.53.07.877
12884;171407;33.92;702;03.53.07.877
12884;171399;33.92;703;03.53.07.877
12908;171396;33.92;704;03.53.07.877
12904;171400;33.92;705;03.53.07.877
12876;171406;33.92;706;03.53.07.877
12900;171390;33.92;707;03.53.07.888
12864;171396;33.92;708;03.53.07.888
12900;171399;33.92;709;03.53.07.888
12908;171406;33.92;710;03.53.07.888
12876;171400;33.92;711;03.53.07.888
12904;171400;33.92;712;03.53.07.888
12860;171402;33.92;713;03.53.07.888
12888;171405;33.92;714;03.53.07.899
12892;171410;33.92;715;03.53.07.899
12908;171412;33.92;716;03.53.07.899
12916;171409;33.92;717;03.53.07.899
12928;171416;33.92;718;03.53.07.899
12896;171414;33.92;719;03.53.07.899
12884;171417;33.92;720;03.53.07.899
12900;171415;33.92;721;03.53.07.899
12888;171416;33.92;722;03.53.07.899
12884;171407;33.92;723;03.53.07.899
12912;171408;33.92;724;03.53.07.899
12888;171409;33.92;725;03.53.08.008
12888;171398;33.92;726;03.53.08.008
12912;171400;33.92;727;03.53.08.019
12884;171401;33.92;728;03.53.08.019
12908;171403;33.92;729;03.53.08.019
12900;171402;33.92;730;03.53.08.019
12888;171392;33.92;731;03.53.08.019
12880;171401;33.92;732;03.53.08.019
12892;171408;33.92;733;03.53.08.019
12908;171408;33.92;734;03.53.08.030
12896;171403;33.92;735;03.53.08.030
12876;171395;33.92;736;03.53.08.030
12892;171403;33.92;737;03.53.08.030
12916;171407;33.92;738;03.53.08.030
12860;171405;33.92;739;03.53.08.030
12920;171398;33.92;740;03.53.08.030
12904;171396;33.92;741;03.53.08.030
12884;171405;33.92;742;03.53.08.030
12912;171405;33.92;743;03.53.08.030
12904;171399;33.92;744;03.53.08.030
12904;171406;33.92;745;03.53.08.030
12892;171404;33.92;746;03.53.08.030
12904;171411;33.92;747;03.53.08.041
12928;171414;33.92;748;03.53.08.041
12912;171413;33.92;749;03.53.08.041
12856;171412;33.92;750;03.53.08.140
12892;171410;33.92;751;03.53.08.140
12860;171413;33.92;752;03.53.08.140
12876;171410;33.92;753;03.53.08.140
12892;171390;33.92;754;03.53.08.140
12892;171400;33.92;755;03.53.08.140
12872;171390;33.92;756;03.53.08.140
12916;171388;33.92;757;03.53.08.140
12892;171377;33.92;758;03.53.08.140
12904;171378;33.92;759;03.53.08.140
12896;171371;33.92;760;03.53.08.140
12888;171370;33.92;761;03.53.08.150
12908;171352;33.92;762;03.53.08.150
12880;171356;33.92;763;03.53.08.150
12856;171353;33.92;764;03.53.08.150
12864;171357;33.92;765;03.53.08.150
12908;171363;33.92;766;03.53.08.150
12884;171362;33.92;767;03.53.08.150
12900;171356;33.92;768;03.53.08.150
12884;171353;33.92;769;03.53.08.150
12892;171356;33.92;770;03.53.08.150
12876;171359;33.92;771;03.53.08.150
12896;171346;33.92;772;03.53.08.150
12876;171357;33.92;773;03.53.08.161
12920;171357;33.92;774;03.53.08.161
12896;171365;33.92;775;03.53.08.260
12920;171367;33.92;776;03.53.08.260
12892;171366;33.92;777;03.53.08.260
12876;171383;33.92;778;03.53.08.260
12900;171380;33.92;779;03.53.08.260
12876;171386;33.92;780;03.53.08.260
12896;171388;33.92;781;03.53.08.260
12864;171385;33.92;782;03.53.08.271
12900;171396;33.92;783;03.53.08.271
12904;171397;33.92;784;03.53.08.271
12884;171391;33.92;785;03.53.08.271
12928;171391;33.92;786;03.53.08.271
12892;171387;33.92;787;03.53.08.271
12928;171386;33.92;788;03.53.08.271
12868;171391;33.92;789;03.53.08.271
12900;171390;33.92;790;03.53.08.271
12896;171388;33.92;791;03.53.08.271
12884;171389;33.92;792;03.53.08.282
12912;171385;33.92;793;03.53.08.282
12880;171381;33.92;794;03.53.08.282
12868;171388;33.92;795;03.53.08.282
12884;171390;33.92;796;03.53.08.282
12876;171382;33.92;797;03.53.08.282
12892;171382;33.92;798;03.53.08.282
12904;171377;33.92;799;03.53.08.282
12880;171382;33.92;800;03.53.08.391
12872;171380;33.92;801;03.53.08.391
12928;171376;33.92;802;03.53.08.391
12888;171374;33.92;803;03.53.08.402
12860;171376;33.92;804;03.53.08.402
12888;171361;33.92;805;03.53.08.402
12884;171368;33.92;806;03.53.08.402
12876;171364;33.92;807;03.53.08.402
12892;171363;33.92;808;03.53.08.402
12892;171365;33.92;809;03.53.08.402
12860;171365;33.92;810;03.53.08.402
12884;171361;33.92;811;03.53.08.402
12880;171359;33.92;812;03.53.08.402
12900;171357;33.92;813;03.53.08.402
12900;171357;33.92;814;03.53.08.402
12876;171361;33.92;815;03.53.08.402
12876;171357;33.92;816;03.53.08.402
12904;171357;33.92;817;03.53.08.413
12900;171350;33.92;818;03.53.08.413
12892;171350;33.92;819;03.53.08.413
12876;171348;33.92;820;03.53.08.424
12904;171345;33.92;821;03.53.08.424
12900;171343;33.92;822;03.53.08.424
12904;171346;33.92;823;03.53.08.424
12900;171344;33.92;824;03.53.08.424
12892;171352;33.88;825;03.53.08.512
12888;171345;33.88;826;03.53.08.512
12896;171344;33.88;827;03.53.08.512
12912;171344;33.88;828;03.53.08.512
12892;171342;33.88;829;03.53.08.512
12912;171351;33.88;830;03.53.08.512
12908;171345;33.88;831;03.53.08.512
12892;171350;33.88;832;03.53.08.512
12904;171349;33.88;833;03.53.08.523
12888;171352;33.88;834;03.53.08.523
12884;171346;33.88;835;03.53.08.523
12880;171351;33.88;836;03.53.08.523
12860;171351;33.88;837;03.53.08.523
12892;171345;33.88;838;03.53.08.523
12896;171347;33.88;839;03.53.08.523
12888;171351;33.88;840;03.53.08.523
12928;171349;33.88;841;03.53.08.523
12904;171356;33.88;842;03.53.08.534
12896;171355;33.88;843;03.53.08.534
12896;171355;33.88;844;03.53.08.534
12920;171350;33.88;845;03.53.08.534
12880;171361;33.88;846;03.53.08.534
12900;171344;33.88;847;03.53.08.534
12892;171355;33.88;848;03.53.08.534
12860;171352;33.88;849;03.53.08.534
12880;171356;33.88;850;03.53.08.633
12892;171353;33.88;851;03.53.08.633
12872;171350;33.88;852;03.53.08.633
12904;171349;33.88;853;03.53.08.633
12888;171350;33.88;854;03.53.08.633
12896;171345;33.88;855;03.53.08.633
12884;171351;33.88;856;03.53.08.633
12860;171354;33.88;857;03.53.08.633
12888;171352;33.88;858;03.53.08.633
12896;171357;33.88;859;03.53.08.644
12904;171353;33.88;860;03.53.08.644
12880;171361;33.88;861;03.53.08.644
12904;171351;33.88;862;03.53.08.644
12904;171351;33.88;863;03.53.08.644
12912;171355;33.88;864;03.53.08.644
12900;171353;33.88;865;03.53.08.644
12868;171356;33.88;866;03.53.08.644
12876;171355;33.88;867;03.53.08.644
12868;171357;33.88;868;03.53.08.644
12884;171356;33.88;869;03.53.08.644
12884;171360;33.88;870;03.53.08.644
12904;171357;33.88;871;03.53.08.644
12888;171361;33.88;872;03.53.08.655
12900;171360;33.88;873;03.53.08.655
12904;171367;33.88;874;03.53.08.655
12900;171364;33.92;875;03.53.08.753
12904;171363;33.92;876;03.53.08.753
12896;171368;33.92;877;03.53.08.753
12880;171376;33.92;878;03.53.08.753
12912;171379;33.92;879;03.53.08.753
12860;171372;33.92;880;03.53.08.753
12920;171380;33.92;881;03.53.08.764
12900;171391;33.92;882;03.53.08.764
12884;171383;33.92;883;03.53.08.764
12900;171379;33.92;884;03.53.08.764
12892;171388;33.92;885;03.53.08.764
12904;171391;33.92;886;03.53.08.764
12872;171388;33.92;887;03.53.08.764
12880;171390;33.92;888;03.53.08.764
12900;171390;33.92;889;03.53.08.764
12904;171393;33.92;890;03.53.08.764
12884;171387;33.92;891;03.53.08.764
12872;171386;33.92;892;03.53.08.764
12904;171383;33.92;893;03.53.08.764
12896;171376;33.92;894;03.53.08.775
12900;171381;33.92;895;03.53.08.775
12900;171370;33.92;896;03.53.08.775
12904;171370;33.92;897;03.53.08.775
12892;171363;33.92;898;03.53.08.775
12904;171368;33.92;899;03.53.08.775
12888;171360;33.92;900;03.53.08.896
12876;171358;33.92;901;03.53.08.907
12916;171346;33.92;902;03.53.08.907
12892;171347;33.92;903;03.53.08.907
12896;171342;33.92;904;03.53.08.907
12880;171333;33.92;905;03.53.08.907
12900;171324;33.92;906;03.53.08.907
12900;171320;33.92;907;03.53.08.907
12880;171320;33.92;908;03.53.08.907
12888;171311;33.92;909;03.53.08.907
12896;171320;33.92;910;03.53.08.907
12880;171307;33.92;911;03.53.08.907
12904;171317;33.92;912;03.53.08.907
12884;171312;33.92;913;03.53.08.907
12872;171304;33.92;914;03.53.08.918
12872;171316;33.92;915;03.53.08.918
12892;171304;33.92;916;03.53.08.918
12892;171295;33.92;917;03.53.08.929
12880;171296;33.92;918;03.53.08.940
12884;171298;33.92;919;03.53.08.940
12904;171299;33.92;920;03.53.08.940
12912;171298;33.92;921;03.53.08.940
12884;171304;33.92;922;03.53.08.940
12900;171297;33.92;923;03.53.08.940
12904;171304;33.92;924;03.53.08.940
12896;171311;33.92;925;03.53.09.006
12912;171309;33.92;926;03.53.09.006
12888;171314;33.92;927;03.53.09.006
12888;171311;33.92;928;03.53.09.006
12892;171301;33.92;929;03.53.09.006
12892;171316;33.92;930;03.53.09.006
12876;171308;33.92;931;03.53.09.006
12892;171314;33.92;932;03.53.09.006
12868;171310;33.92;933;03.53.09.028
12888;171311;33.92;934;03.53.09.028
12904;171295;33.92;935;03.53.09.028
12860;171298;33.92;936;03.53.09.028
12892;171302;33.92;937;03.53.09.028
12876;171302;33.92;938;03.53.09.028
12900;171305;33.92;939;03.53.09.028
12896;171297;33.92;940;03.53.09.028
12876;171283;33.92;941;03.53.09.028
12900;171289;33.92;942;03.53.09.028
12888;171288;33.92;943;03.53.09.028
12888;171289;33.92;944;03.53.09.039
12916;171277;33.92;945;03.53.09.039
12888;171275;33.92;946;03.53.09.039
12904;171270;33.92;947;03.53.09.039
12876;171276;33.92;948;03.53.09.039
12912;171271;33.92;949;03.53.09.039
12852;171268;33.92;950;03.53.09.126
12908;171268;33.92;951;03.53.09.126
12900;171260;33.92;952;03.53.09.126
12928;171273;33.92;953;03.53.09.126
12912;171271;33.92;954;03.53.09.126
12888;171266;33.92;955;03.53.09.126
12920;171272;33.92;956;03.53.09.126
12888;171267;33.92;957;03.53.09.137
12896;171262;33.92;958;03.53.09.137
12884;171261;33.92;959;03.53.09.137
12904;171259;33.92;960;03.53.09.137
12904;171267;33.92;961;03.53.09.137
12900;171260;33.92;962;03.53.09.137
12928;171271;33.92;963;03.53.09.137
12912;171266;33.92;964;03.53.09.137
12888;171272;33.92;965;03.53.09.137
12908;171279;33.92;966;03.53.09.137
12880;171285;33.92;967;03.53.09.137
12884;171285;33.92;968;03.53.09.137
12928;171280;33.92;969;03.53.09.137
12896;171287;33.92;970;03.53.09.148
12904;171290;33.92;971;03.53.09.148
12876;171287;33.92;972;03.53.09.148
12900;171301;33.92;973;03.53.09.148
12904;171296;33.92;974;03.53.09.148
12876;171298;33.92;975;03.53.09.257
12928;171309;33.92;976;03.53.09.257
12896;171310;33.92;977;03.53.09.268
12920;171308;33.92;978;03.53.09.268
12876;171310;33.92;979;03.53.09.268
12868;171306;33.92;980;03.53.09.268
12904;171304;33.92;981;03.53.09.268
12912;171311;33.92;982;03.53.09.268
12876;171308;33.92;983;03.53.09.268
12888;171312;33.92;984;03.53.09.268
12884;171320;33.92;985;03.53.09.268
12904;171322;33.92;986;03.53.09.268
12876;171320;33.92;987;03.53.09.268
12928;171324;33.92;988;03.53.09.268
12904;171330;33.92;989;03.53.09.268
12896;171333;33.92;990;03.53.09.279
12908;171326;33.92;991;03.53.09.279
12928;171331;33.92;992;03.53.09.279
12900;171333;33.92;993;03.53.09.279
12900;171328;33.92;994;03.53.09.279
12900;171325;33.92;995;03.53.09.279
12860;171322;33.92;996;03.53.09.279
12876;171313;33.92;997;03.53.09.279
12892;171312;33.92;998;03.53.09.279
12888;171316;33.92;999;03.53.09.279
12904;171304;33.92;000;03.53.09.399
12892;171304;33.92;001;03.53.09.399
12884;171300;33.92;002;03.53.09.399
12880;171300;33.92;003;03.53.09.399
12888;171290;33.92;004;03.53.09.399
12880;171293;33.92;005;03.53.09.399
12892;171298;33.92;006;03.53.09.399
12908;171297;33.92;007;03.53.09.399
12916;171291;33.92;008;03.53.09.399
12880;171287;33.92;009;03.53.09.399
12892;171287;33.92;010;03.53.09.399
12912;171287;33.92;011;03.53.09.410
12892;171283;33.92;012;03.53.09.410
12884;171290;33.92;013;03.53.09.410
12892;171284;33.92;014;03.53.09.410
12884;171287;33.92;015;03.53.09.410
12896;171291;33.92;016;03.53.09.410
12900;171290;33.92;017;03.53.09.410
12876;171286;33.92;018;03.53.09.410
12912;171289;33.92;019;03.53.09.410
12888;171293;33.92;020;03.53.09.410
12892;171295;33.92;021;03.53.09.410
12904;171295;33.92;022;03.53.09.410
12880;171295;33.92;023;03.53.09.410
12908;171304;33.92;024;03.53.09.421
12892;171299;33.88;025;03.53.09.508
12876;171288;33.88;026;03.53.09.508
12912;171304;33.88;027;03.53.09.508
12908;171294;33.88;028;03.53.09.508
12896;171301;33.88;029;03.53.09.508
12892;171309;33.88;030;03.53.09.508
12888;171303;33.88;031;03.53.09.508
12908;171313;33.88;032;03.53.09.519
12912;171319;33.88;033;03.53.09.519
12896;171310;33.88;034;03.53.09.519
12888;171306;33.88;035;03.53.09.519
12880;171324;33.88;036;03.53.09.519
12892;171313;33.88;037;03.53.09.519
12876;171324;33.88;038;03.53.09.519
12888;171305;33.88;039;03.53.09.519
12892;171307;33.88;040;03.53.09.519
12904;171309;33.88;041;03.53.09.519
12884;171306;33.88;042;03.53.09.530
12908;171302;33.88;043;03.53.09.530
12928;171294;33.88;044;03.53.09.530
12912;171298;33.88;045;03.53.09.530
12860;171289;33.88;046;03.53.09.530
12892;171288;33.88;047;03.53.09.530
12876;171291;33.88;048;03.53.09.541
12916;171283;33.88;049;03.53.09.541
12880;171281;33.88;050;03.53.09.628
12912;171275;33.88;051;03.53.09.628
12904;171271;33.88;052;03.53.09.628
12892;171272;33.88;053;03.53.09.639
12876;171277;33.88;054;03.53.09.639
12888;171284;33.88;055;03.53.09.639
12912;171288;33.88;056;03.53.09.639
12892;171295;33.88;057;03.53.09.639
12896;171302;33.88;058;03.53.09.639
12876;171320;33.88;059;03.53.09.639
12896;171331;33.88;060;03.53.09.650
12932;171362;33.88;061;03.53.09.650
12896;171385;33.88;062;03.53.09.650
12908;171417;33.88;063;03.53.09.650
12896;171448;33.88;064;03.53.09.650
12884;171476;33.88;065;03.53.09.650
12928;171493;33.88;066;03.53.09.650
12888;171519;33.88;067;03.53.09.665
12928;171515;33.88;068;03.53.09.665
12928;171530;33.88;069;03.53.09.665
12896;171538;33.88;070;03.53.09.665
12892;171548;33.88;071;03.53.09.665
12896;171555;33.88;072;03.53.09.665
12900;171561;33.88;073;03.53.09.665
12928;171567;33.88;074;03.53.09.665
12880;171572;33.92;075;03.53.09.765
12868;171571;33.92;076;03.53.09.765
12860;171580;33.92;077;03.53.09.765
12916;171575;33.92;078;03.53.09.765
12892;171585;33.92;079;03.53.09.765
12896;171592;33.92;080;03.53.09.776
12892;171589;33.92;081;03.53.09.776
12900;171601;33.92;082;03.53.09.776
12860;171608;33.92;083;03.53.09.776
12892;171606;33.92;084;03.53.09.776
12928;171605;33.92;085;03.53.09.776
12896;171611;33.92;086;03.53.09.776
12884;171608;33.92;087;03.53.09.776
12864;171610;33.92;088;03.53.09.776
12872;171602;33.92;089;03.53.09.776
12920;171610;33.92;090;03.53.09.776
12888;171612;33.92;091;03.53.09.776
12884;171596;33.92;092;03.53.09.776
12904;171595;33.92;093;03.53.09.787
12896;171603;33.92;094;03.53.09.787
12896;171602;33.92;095;03.53.09.787
12876;171607;33.92;096;03.53.09.787
12892;171605;33.92;097;03.53.09.787
12936;171586;33.92;098;03.53.09.787
12924;171591;33.92;099;03.53.09.787
12904;171585;33.92;100;03.53.09.886
12888;171577;33.92;101;03.53.09.897
12880;171562;33.92;102;03.53.09.897
12884;171554;33.92;103;03.53.09.897
12884;171549;33.92;104;03.53.09.897
12860;171530;33.92;105;03.53.09.897
12900;171531;33.92;106;03.53.09.897
12916;171509;33.92;107;03.53.09.897
12876;171499;33.92;108;03.53.09.897
12924;171496;33.92;109;03.53.09.897
12912;171484;33.92;110;03.53.09.897
12884;171471;33.92;111;03.53.09.897
12880;171464;33.92;112;03.53.09.897
12900;171452;33.92;113;03.53.09.897
12876;171430;33.92;114;03.53.09.908
12884;171419;33.92;115;03.53.09.908
12892;171403;33.92;116;03.53.09.908
12888;171388;33.92;117;03.53.09.908
12876;171378;33.92;118;03.53.09.908
12880;171368;33.92;119;03.53.09.908
12908;171358;33.92;120;03.53.09.908
12888;171335;33.92;121;03.53.09.908
12896;171335;33.92;122;03.53.09.908
12884;171327;33.92;123;03.53.09.908
12892;171314;33.92;124;03.53.09.908
12896;171310;33.92;125;03.53.10.028
12876;171307;33.92;126;03.53.10.028
12888;171311;33.92;127;03.53.10.028
12896;171306;33.92;128;03.53.10.028
12904;171306;33.92;129;03.53.10.028
12916;171304;33.92;130;03.53.10.028
12860;171299;33.92;131;03.53.10.028
12888;171288;33.92;132;03.53.10.028
12884;171283;33.92;133;03.53.10.028
12884;171284;33.92;134;03.53.10.028
12900;171278;33.92;135;03.53.10.028
12904;171277;33.92;136;03.53.10.039
12904;171277;33.92;137;03.53.10.039
12916;171275;33.92;138;03.53.10.039
12876;171275;33.92;139;03.53.10.039
12892;171282;33.92;140;03.53.10.039
12900;171287;33.92;141;03.53.10.039
12904;171287;33.92;142;03.53.10.039
12896;171299;33.92;143;03.53.10.039
12876;171320;33.92;144;03.53.10.039
12904;171334;33.92;145;03.53.10.039
12896;171352;33.92;146;03.53.10.039
12884;171355;33.92;147;03.53.10.050
12896;171375;33.92;148;03.53.10.050
12888;171396;33.92;149;03.53.10.050
12888;171411;33.92;150;03.53.10.138
12888;171424;33.92;151;03.53.10.138
12896;171436;33.92;152;03.53.10.138
12904;171460;33.92;153;03.53.10.138
12884;171470;33.92;154;03.53.10.138
12856;171498;33.92;155;03.53.10.138
12892;171510;33.92;156;03.53.10.149
12904;171532;33.92;157;03.53.10.149
12892;171559;33.92;158;03.53.10.149
12896;171581;33.92;159;03.53.10.149
12892;171599;33.92;160;03.53.10.149
12876;171628;33.92;161;03.53.10.149
12860;171649;33.92;162;03.53.10.149
12900;171661;33.92;163;03.53.10.149
12888;171667;33.92;164;03.53.10.149
12884;171692;33.92;165;03.53.10.149
12912;171724;33.92;166;03.53.10.149
12924;171733;33.92;167;03.53.10.160
12888;171745;33.92;168;03.53.10.160
12944;171765;33.92;169;03.53.10.160
12900;171770;33.92;170;03.53.10.160
12896;171778;33.92;171;03.53.10.160
12880;171789;33.92;172;03.53.10.160
12892;171800;33.92;173;03.53.10.160
12896;171808;33.92;174;03.53.10.171
12888;171823;33.92;175;03.53.10.248
12892;171835;33.92;176;03.53.10.248
12896;171834;33.92;177;03.53.10.248
12904;171850;33.92;178;03.53.10.259
12892;171861;33.92;179;03.53.10.259
12904;171864;33.92;180;03.53.10.259
12928;171871;33.92;181;03.53.10.259
12904;171885;33.92;182;03.53.10.259
12896;171896;33.92;183;03.53.10.259
12892;171907;33.92;184;03.53.10.259
12896;171910;33.92;185;03.53.10.259
12884;171921;33.92;186;03.53.10.259
12860;171938;33.92;187;03.53.10.259
12908;171938;33.92;188;03.53.10.259
12884;171938;33.92;189;03.53.10.259
12892;171945;33.92;190;03.53.10.270
12928;171950;33.92;191;03.53.10.270
12908;171944;33.92;192;03.53.10.270
12876;171949;33.92;193;03.53.10.270
12884;171945;33.92;194;03.53.10.270
12904;171938;33.92;195;03.53.10.270
12896;171937;33.92;196;03.53.10.270
12892;171933;33.92;197;03.53.10.270
12892;171926;33.92;198;03.53.10.270
12892;171920;33.92;199;03.53.10.270
12884;171914;33.92;200;03.53.10.390
12900;171909;33.92;201;03.53.10.390
12896;171895;33.92;202;03.53.10.390
12896;171883;33.92;203;03.53.10.390
12888;171876;33.92;204;03.53.10.390
12876;171872;33.92;205;03.53.10.390
12892;171872;33.92;206;03.53.10.390
12928;171879;33.92;207;03.53.10.390
12904;171872;33.92;208;03.53.10.390
12872;171870;33.92;209;03.53.10.390
12908;171861;33.92;210;03.53.10.390
12888;171868;33.92;211;03.53.10.390
12880;171871;33.92;212;03.53.10.401
12912;171869;33.92;213;03.53.10.401
12884;171867;33.92;214;03.53.10.401
12904;171864;33.92;215;03.53.10.401
12896;171868;33.92;216;03.53.10.401
12896;171865;33.92;217;03.53.10.401
12900;171860;33.92;218;03.53.10.401
12864;171873;33.92;219;03.53.10.401
12880;171861;33.92;220;03.53.10.401
12916;171865;33.92;221;03.53.10.401
12896;171876;33.92;222;03.53.10.401
12904;171888;33.92;223;03.53.10.401
12912;171883;33.92;224;03.53.10.401
12896;171889;33.92;225;03.53.10.522
12888;171903;33.92;226;03.53.10.522
12876;171904;33.92;227;03.53.10.522
12912;171904;33.92;228;03.53.10.522
12880;171901;33.92;229;03.53.10.522
12884;171919;33.92;230;03.53.10.522
12904;171915;33.92;231;03.53.10.522
12912;171923;33.92;232;03.53.10.522
12908;171918;33.92;233;03.53.10.533
12928;171925;33.92;234;03.53.10.533
12904;171914;33.92;235;03.53.10.533
12896;171918;33.92;236;03.53.10.533
12912;171913;33.92;237;03.53.10.533
12876;171918;33.92;238;03.53.10.533
12876;171915;33.92;239;03.53.10.533
12900;171918;33.92;240;03.53.10.533
12876;171923;33.92;241;03.53.10.533
12916;171913;33.92;242;03.53.10.533
12904;171910;33.92;243;03.53.10.533
12892;171915;33.92;244;03.53.10.533
12868;171910;33.92;245;03.53.10.533
12896;171912;33.92;246;03.53.10.544
12888;171909;33.92;247;03.53.10.544
12876;171896;33.92;248;03.53.10.544
12912;171898;33.92;249;03.53.10.544
12888;171891;33.92;250;03.53.10.633
12860;171895;33.92;251;03.53.10.633
12912;171875;33.92;252;03.53.10.633
12896;171882;33.92;253;03.53.10.633
12884;171875;33.92;254;03.53.10.633
12880;171872;33.92;255;03.53.10.633
12876;171870;33.92;256;03.53.10.633
12900;171860;33.92;257;03.53.10.644
12928;171858;33.92;258;03.53.10.655
12900;171856;33.92;259;03.53.10.655
12912;171860;33.92;260;03.53.10.655
12916;171852;33.92;261;03.53.10.655
12904;171852;33.92;262;03.53.10.655
12860;171855;33.92;263;03.53.10.655
12896;171855;33.92;264;03.53.10.665
12896;171851;33.92;265;03.53.10.665
12888;171848;33.92;266;03.53.10.665
12912;171849;33.92;267;03.53.10.665
12876;171845;33.92;268;03.53.10.665
12904;171841;33.92;269;03.53.10.665
12876;171846;33.92;270;03.53.10.665
12908;171849;33.92;271;03.53.10.665
12892;171851;33.92;272;03.53.10.665
12888;171843;33.92;273;03.53.10.665
12872;171841;33.92;274;03.53.10.665
12868;171852;33.92;275;03.53.10.752
12892;171852;33.92;276;03.53.10.763
12884;171846;33.92;277;03.53.10.763
12880;171840;33.92;278;03.53.10.763
12892;171836;33.92;279;03.53.10.763
12880;171844;33.92;280;03.53.10.763
12928;171842;33.92;281;03.53.10.763
12908;171840;33.92;282;03.53.10.763
12860;171843;33.92;283;03.53.10.763
12884;171842;33.92;284;03.53.10.763
12912;171843;33.92;285;03.53.10.774
12888;171836;33.92;286;03.53.10.774
12932;171835;33.92;287;03.53.10.774
12884;171846;33.92;288;03.53.10.774
12888;171834;33.92;289;03.53.10.774
12884;171838;33.92;290;03.53.10.774
12900;171840;33.92;291;03.53.10.774
12916;171838;33.92;292;03.53.10.796
12892;171833;33.92;293;03.53.10.796
12896;171836;33.92;294;03.53.10.796
12912;171836;33.92;295;03.53.10.796
12904;171839;33.92;296;03.53.10.796
12924;171841;33.92;297;03.53.10.796
12900;171834;33.92;298;03.53.10.796
12936;171835;33.92;299;03.53.10.796
12912;171837;33.92;300;03.53.10.883
12904;171837;33.92;301;03.53.10.883
12884;171834;33.92;302;03.53.10.883
12884;171822;33.92;303;03.53.10.883
12912;171825;33.92;304;03.53.10.883
12900;171828;33.92;305;03.53.10.883
12896;171817;33.92;306;03.53.10.883
12876;171812;33.92;307;03.53.10.883
12900;171803;33.92;308;03.53.10.883
12892;171807;33.92;309;03.53.10.894
12936;171807;33.92;310;03.53.10.894
12876;171807;33.92;311;03.53.10.894
12872;171809;33.92;312;03.53.10.894
12868;171804;33.92;313;03.53.10.894
12888;171806;33.92;314;03.53.10.894
12868;171807;33.92;315;03.53.10.894
12880;171794;33.92;316;03.53.10.894
12900;171785;33.92;317;03.53.10.894
12888;171773;33.92;318;03.53.10.894
12872;171768;33.92;319;03.53.10.894
12920;171763;33.92;320;03.53.10.894
12928;171750;33.92;321;03.53.10.894
12892;171752;33.92;322;03.53.10.905
12896;171735;33.92;323;03.53.10.905
12912;171732;33.92;324;03.53.10.905
12892;171717;33.92;325;03.53.11.026
12944;171709;33.92;326;03.53.11.026
12904;171700;33.92;327;03.53.11.026
12908;171690;33.92;328;03.53.11.026
12908;171689;33.92;329;03.53.11.026
12880;171689;33.92;330;03.53.11.037
12892;171681;33.92;331;03.53.11.037
12880;171676;33.92;332;03.53.11.037
12876;171688;33.92;333;03.53.11.037
12892;171683;33.92;334;03.53.11.037
12884;171683;33.92;335;03.53.11.037
12900;171684;33.92;336;03.53.11.037
12868;171683;33.92;337;03.53.11.037
12892;171685;33.92;338;03.53.11.037
12880;171682;33.92;339;03.53.11.037
12888;171690;33.92;340;03.53.11.037
12900;171685;33.92;341;03.53.11.037
12904;171691;33.92;342;03.53.11.037
12892;171688;33.92;343;03.53.11.048
12900;171680;33.92;344;03.53.11.048
12892;171682;33.92;345;03.53.11.048
12884;171680;33.92;346;03.53.11.048
12884;171673;33.92;347;03.53.11.048
12884;171666;33.92;348;03.53.11.048
12876;171662;33.92;349;03.53.11.048
12876;171662;33.92;350;03.53.11.123
12900;171653;33.92;351;03.53.11.134
12892;171655;33.92;352;03.53.11.134
12892;171645;33.92;353;03.53.11.134
12928;171642;33.92;354;03.53.11.134
12900;171636;33.92;355;03.53.11.134
12892;171629;33.92;356;03.53.11.134
12884;171624;33.92;357;03.53.11.134
12884;171622;33.92;358;03.53.11.145
12876;171607;33.92;359;03.53.11.156
12896;171605;33.92;360;03.53.11.156
12892;171599;33.92;361;03.53.11.156
12888;171590;33.92;362;03.53.11.156
12884;171584;33.92;363;03.53.11.156
12892;171579;33.92;364;03.53.11.156
12880;171569;33.92;365;03.53.11.156
12860;171568;33.92;366;03.53.11.156
12888;171568;33.92;367;03.53.11.156
12904;171568;33.92;368;03.53.11.167
12892;171568;33.92;369;03.53.11.167
12864;171561;33.92;370;03.53.11.167
12884;171564;33.92;371;03.53.11.167
12900;171568;33.92;372;03.53.11.167
12888;171557;33.92;373;03.53.11.167
12888;171559;33.92;374;03.53.11.167
12884;171554;33.92;375;03.53.11.255
12896;171564;33.92;376;03.53.11.255
12916;171544;33.92;377;03.53.11.255
12892;171550;33.92;378;03.53.11.255
12876;171544;33.92;379;03.53.11.255
12884;171543;33.92;380;03.53.11.255
12880;171531;33.92;381;03.53.11.255
12860;171527;33.92;382;03.53.11.255
12888;171536;33.92;383;03.53.11.255
12888;171533;33.92;384;03.53.11.255
12884;171527;33.92;385;03.53.11.255
12900;171522;33.92;386;03.53.11.266
12908;171521;33.92;387;03.53.11.266
12904;171509;33.92;388;03.53.11.266
12896;171513;33.92;389;03.53.11.266
12908;171507;33.92;390;03.53.11.266
12880;171497;33.92;391;03.53.11.266
12876;171500;33.92;392;03.53.11.266
12860;171494;33.92;393;03.53.11.266
12924;171489;33.92;394;03.53.11.266
12908;171495;33.92;395;03.53.11.266
12912;171485;33.92;396;03.53.11.266
12860;171492;33.92;397;03.53.11.266
12904;171482;33.92;398;03.53.11.277
12876;171482;33.92;399;03.53.11.277
12868;171484;33.92;400;03.53.11.376
12876;171473;33.92;401;03.53.11.376
12876;171470;33.92;402;03.53.11.376
12892;171465;33.92;403;03.53.11.376
12884;171460;33.92;404;03.53.11.376
12904;171452;33.92;405;03.53.11.376
12892;171444;33.92;406;03.53.11.376
12860;171433;33.92;407;03.53.11.387
12892;171426;33.92;408;03.53.11.387
12884;171413;33.92;409;03.53.11.387
12900;171413;33.92;410;03.53.11.387
12888;171397;33.92;411;03.53.11.387
12892;171388;33.92;412;03.53.11.387
12884;171380;33.92;413;03.53.11.387
12892;171370;33.92;414;03.53.11.387
12884;171357;33.92;415;03.53.11.387
12868;171343;33.92;416;03.53.11.387
12888;171334;33.92;417;03.53.11.398
12904;171332;33.92;418;03.53.11.398
12896;171321;33.92;419;03.53.11.398
12916;171311;33.92;420;03.53.11.398
12884;171304;33.92;421;03.53.11.398
12892;171298;33.92;422;03.53.11.398
12888;171291;33.92;423;03.53.11.409
12920;171280;33.92;424;03.53.11.409
12944;171282;33.92;425;03.53.11.507
12888;171281;33.92;426;03.53.11.507
12896;171263;33.92;427;03.53.11.507
12892;171259;33.92;428;03.53.11.518
12908;171243;33.92;429;03.53.11.518
12884;171236;33.92;430;03.53.11.518
12900;171229;33.92;431;03.53.11.518
12864;171225;33.92;432;03.53.11.518
12884;171225;33.92;433;03.53.11.518
12884;171222;33.92;434;03.53.11.518
12884;171219;33.92;435;03.53.11.518
12912;171204;33.92;436;03.53.11.518
12892;171198;33.92;437;03.53.11.518
12908;171205;33.92;438;03.53.11.518
12884;171198;33.92;439;03.53.11.518
12920;171190;33.92;440;03.53.11.518
12884;171184;33.92;441;03.53.11.529
12912;171186;33.92;442;03.53.11.529
12888;171184;33.92;443;03.53.11.529
12896;171188;33.92;444;03.53.11.529
12920;171188;33.92;445;03.53.11.540
12908;171188;33.92;446;03.53.11.540
12904;171191;33.92;447;03.53.11.540
12908;171198;33.92;448;03.53.11.540
12936;171192;33.92;449;03.53.11.540
12888;171194;33.92;450;03.53.11.661
12884;171192;33.92;451;03.53.11.661
12928;171188;33.92;452;03.53.11.661
12900;171186;33.92;453;03.53.11.661
12880;171189;33.92;454;03.53.11.661
12872;171198;33.92;455;03.53.11.661
12872;171198;33.92;456;03.53.11.661
12896;171188;33.92;457;03.53.11.661
12924;171184;33.92;458;03.53.11.661
12904;171191;33.92;459;03.53.11.661
12888;171184;33.92;460;03.53.11.661
12912;171187;33.92;461;03.53.11.672
12880;171185;33.92;462;03.53.11.672
12860;171186;33.92;463;03.53.11.672
12896;171179;33.92;464;03.53.11.672
12860;171182;33.92;465;03.53.11.672
12892;171183;33.92;466;03.53.11.672
12928;171183;33.92;467;03.53.11.694
12888;171177;33.92;468;03.53.11.694
12880;171182;33.92;469;03.53.11.694
12912;171180;33.92;470;03.53.11.694
12888;171178;33.92;471;03.53.11.694
12912;171175;33.92;472;03.53.11.694
12900;171167;33.92;473;03.53.11.694
12912;171165;33.92;474;03.53.11.694
12904;171164;33.92;475;03.53.11.760
12892;171157;33.92;476;03.53.11.760
12916;171160;33.92;477;03.53.11.760
12912;171153;33.92;478;03.53.11.760
12908;171147;33.92;479;03.53.11.760
12904;171132;33.92;480;03.53.11.760
12888;171136;33.92;481;03.53.11.760
12880;171132;33.92;482;03.53.11.760
12892;171130;33.92;483;03.53.11.771
12860;171114;33.92;484;03.53.11.771
12888;171120;33.92;485;03.53.11.771
12896;171112;33.92;486;03.53.11.771
12908;171107;33.92;487;03.53.11.771
12876;171110;33.92;488;03.53.11.771
12888;171105;33.92;489;03.53.11.771
12892;171113;33.92;490;03.53.11.771
12860;171108;33.92;491;03.53.11.771
12920;171112;33.92;492;03.53.11.782
12868;171104;33.92;493;03.53.11.782
12912;171102;33.92;494;03.53.11.782
12876;171107;33.92;495;03.53.11.782
12900;171112;33.92;496;03.53.11.782
12880;171112;33.92;497;03.53.11.782
12876;171107;33.92;498;03.53.11.782
12900;171108;33.92;499;03.53.11.782
12904;171108;33.92;500;03.53.11.880
12896;171111;33.92;501;03.53.11.880
12904;171102;33.92;502;03.53.11.880
12892;171112;33.92;503;03.53.11.880
12900;171113;33.92;504;03.53.11.880
12912;171112;33.92;505;03.53.11.891
12892;171113;33.92;506;03.53.11.891
12892;171122;33.92;507;03.53.11.891
12880;171119;33.92;508;03.53.11.891
12920;171127;33.92;509;03.53.11.891
12900;171122;33.92;510;03.53.11.891
12920;171129;33.92;511;03.53.11.891
12892;171135;33.92;512;03.53.11.891
12928;171139;33.92;513;03.53.11.891
12888;171150;33.92;514;03.53.11.891
12888;171151;33.92;515;03.53.11.891
12888;171148;33.92;516;03.53.11.891
12928;171151;33.92;517;03.53.11.891
12892;171156;33.92;518;03.53.11.902
12884;171156;33.92;519;03.53.11.902
12912;171157;33.92;520;03.53.11.902
12884;171159;33.92;521;03.53.11.902
12872;171169;33.92;522;03.53.11.902
12884;171159;33.92;523;03.53.11.902
12884;171175;33.92;524;03.53.11.902
12844;171168;33.92;525;03.53.12.001
12896;171179;33.92;526;03.53.12.012
12928;171174;33.92;527;03.53.12.012
12876;171183;33.92;528;03.53.12.012
12912;171180;33.92;529;03.53.12.012
12892;171186;33.92;530;03.53.12.012
12916;171189;33.92;531;03.53.12.012
12892;171188;33.92;532;03.53.12.012
12908;171186;33.92;533;03.53.12.012
12920;171181;33.92;534;03.53.12.012
12920;171179;33.92;535;03.53.12.012
12904;171180;33.92;536;03.53.12.012
12904;171183;33.92;537;03.53.12.012
12904;171180;33.92;538;03.53.12.012
12932;171163;33.92;539;03.53.12.023
12900;171159;33.92;540;03.53.12.023
12884;171154;33.92;541;03.53.12.023
12892;171153;33.92;542;03.53.12.023
12912;171151;33.92;543;03.53.12.023
12904;171150;33.92;544;03.53.12.023
12900;171145;33.92;545;03.53.12.023
12876;171140;33.92;546;03.53.12.023
12912;171134;33.92;547;03.53.12.023
12900;171131;33.92;548;03.53.12.023
12904;171125;33.92;549;03.53.12.023
12900;171118;33.92;550;03.53.12.143
12884;171112;33.92;551;03.53.12.143
12900;171103;33.92;552;03.53.12.143
12912;171087;33.92;553;03.53.12.143
12872;171098;33.92;554;03.53.12.143
12904;171086;33.92;555;03.53.12.143
12896;171088;33.92;556;03.53.12.143
12876;171084;33.92;557;03.53.12.143
12904;171070;33.92;558;03.53.12.143
12852;171061;33.92;559;03.53.12.154
12888;171074;33.92;560;03.53.12.154
12892;171070;33.92;561;03.53.12.154
12912;171071;33.92;562;03.53.12.154
12884;171067;33.92;563;03.53.12.154
12888;171055;33.92;564;03.53.12.154
12904;171063;33.92;565;03.53.12.154
12928;171057;33.92;566;03.53.12.154
12892;171070;33.92;567;03.53.12.154
12896;171063;33.92;568;03.53.12.154
12888;171063;33.92;569;03.53.12.154
12884;171061;33.92;570;03.53.12.154
12896;171061;33.92;571;03.53.12.154
12900;171070;33.92;572;03.53.12.154
12892;171074;33.92;573;03.53.12.165
12892;171083;33.92;574;03.53.12.165
12892;171074;33.88;575;03.53.12.253
12896;171088;33.88;576;03.53.12.253
12904;171094;33.88;577;03.53.12.253
12896;171105;33.88;578;03.53.12.253
12860;171102;33.88;579;03.53.12.253
12884;171107;33.88;580;03.53.12.253
12860;171117;33.88;581;03.53.12.264
12892;171126;33.88;582;03.53.12.264
12908;171134;33.88;583;03.53.12.264
12900;171131;33.88;584;03.53.12.264
12896;171135;33.88;585;03.53.12.264
12920;171138;33.88;586;03.53.12.264
12896;171148;33.88;587;03.53.12.264
12888;171143;33.88;588;03.53.12.264
12888;171150;33.88;589;03.53.12.275
12884;171150;33.88;590;03.53.12.275
12876;171144;33.88;591;03.53.12.275
12904;171148;33.88;592;03.53.12.275
12896;171159;33.88;593;03.53.12.275
12876;171157;33.88;594;03.53.12.275
12904;171148;33.88;595;03.53.12.275
12904;171151;33.88;596;03.53.12.275
12896;171143;33.88;597;03.53.12.275
12888;171145;33.88;598;03.53.12.275
12876;171138;33.88;599;03.53.12.275
12872;171134;33.88;600;03.53.12.384
12892;171124;33.88;601;03.53.12.395
12900;171123;33.88;602;03.53.12.395
12908;171122;33.88;603;03.53.12.395
12884;171109;33.88;604;03.53.12.395
12920;171110;33.88;605;03.53.12.395
12860;171104;33.88;606;03.53.12.395
12896;171099;33.88;607;03.53.12.395
12912;171089;33.88;608;03.53.12.395
12888;171079;33.88;609;03.53.12.405
12904;171084;33.88;610;03.53.12.405
12860;171075;33.88;611;03.53.12.405
12892;171067;33.88;612;03.53.12.405
12860;171077;33.88;613;03.53.12.405
12876;171076;33.88;614;03.53.12.405
12860;171074;33.88;615;03.53.12.405
12896;171073;33.88;616;03.53.12.405
12912;171078;33.88;617;03.53.12.405
12892;171085;33.88;618;03.53.12.405
12896;171074;33.88;619;03.53.12.416
12880;171080;33.88;620;03.53.12.416
12876;171089;33.88;621;03.53.12.416
12876;171085;33.88;622;03.53.12.416
12868;171092;33.88;623;03.53.12.416
12912;171091;33.88;624;03.53.12.416
12892;171092;33.88;625;03.53.12.504
12896;171088;33.88;626;03.53.12.504
12896;171105;33.88;627;03.53.12.504
12920;171098;33.88;628;03.53.12.504
12908;171100;33.88;629;03.53.12.504
12860;171102;33.88;630;03.53.12.504
12868;171105;33.88;631;03.53.12.504
12916;171108;33.88;632;03.53.12.504
12888;171111;33.88;633;03.53.12.504
12912;171113;33.88;634;03.53.12.504
12904;171113;33.88;635;03.53.12.504
12904;171118;33.88;636;03.53.12.515
12880;171112;33.88;637;03.53.12.515
12896;171109;33.88;638;03.53.12.515
12888;171115;33.88;639;03.53.12.515
12888;171115;33.88;640;03.53.12.515
12904;171115;33.88;641;03.53.12.515
12888;171116;33.88;642;03.53.12.515
12884;171116;33.88;643;03.53.12.515
12904;171117;33.88;644;03.53.12.515
12888;171102;33.88;645;03.53.12.515
12900;171112;33.88;646;03.53.12.515
12896;171110;33.88;647;03.53.12.515
12860;171106;33.88;648;03.53.12.515
12908;171097;33.88;649;03.53.12.526
12888;171096;33.88;650;03.53.12.634
12884;171087;33.88;651;03.53.12.634
12888;171090;33.88;652;03.53.12.634
12868;171085;33.88;653;03.53.12.634
12876;171082;33.88;654;03.53.12.645
12888;171081;33.88;655;03.53.12.645
12852;171086;33.88;656;03.53.12.645
12900;171087;33.88;657;03.53.12.645
12884;171078;33.88;658;03.53.12.645
12896;171077;33.88;659;03.53.12.645
12896;171069;33.88;660;03.53.12.645
12884;171067;33.88;661;03.53.12.645
12896;171064;33.88;662;03.53.12.645
12900;171063;33.88;663;03.53.12.645
12904;171069;33.88;664;03.53.12.645
12896;171073;33.88;665;03.53.12.645
12876;171083;33.88;666;03.53.12.645
12900;171084;33.88;667;03.53.12.656
12900;171106;33.88;668;03.53.12.656
12904;171136;33.88;669;03.53.12.656
12904;171135;33.88;670;03.53.12.656
12896;171157;33.88;671;03.53.12.656
12892;171175;33.88;672;03.53.12.656
12884;171193;33.88;673;03.53.12.656
12944;171205;33.88;674;03.53.12.656
12912;171228;33.88;675;03.53.12.776
12908;171249;33.88;676;03.53.12.776
12896;171270;33.88;677;03.53.12.776
12908;171286;33.88;678;03.53.12.776
12896;171316;33.88;679;03.53.12.776
12904;171340;33.88;680;03.53.12.776
12888;171366;33.88;681;03.53.12.776
12900;171408;33.88;682;03.53.12.776
12876;171429;33.88;683;03.53.12.776
12916;171467;33.88;684;03.53.12.776
12912;171512;33.88;685;03.53.12.776
12892;171539;33.88;686;03.53.12.776
12880;171578;33.88;687;03.53.12.776
12888;171599;33.88;688;03.53.12.787
12924;171626;33.88;689;03.53.12.787
12848;171646;33.88;690;03.53.12.787
12888;171657;33.88;691;03.53.12.787
12884;171678;33.88;692;03.53.12.787
12884;171707;33.88;693;03.53.12.787
12920;171728;33.88;694;03.53.12.787
12928;171749;33.88;695;03.53.12.787
12868;171765;33.88;696;03.53.12.787
12892;171779;33.88;697;03.53.12.787
12896;171793;33.88;698;03.53.12.787
12896;171815;33.88;699;03.53.12.787
12884;171820;33.88;700;03.53.12.886
12892;171833;33.88;701;03.53.12.886
12872;171843;33.88;702;03.53.12.886
12876;171850;33.88;703;03.53.12.886
12920;171867;33.88;704;03.53.12.886
12872;171873;33.88;705;03.53.12.886
12884;171883;33.88;706;03.53.12.886
12900;171882;33.88;707;03.53.12.886
12928;171895;33.88;708;03.53.12.907
12928;171906;33.88;709;03.53.12.907
12900;171905;33.88;710;03.53.12.907
12912;171904;33.88;711;03.53.12.907
12908;171900;33.88;712;03.53.12.907
12912;171910;33.88;713;03.53.12.907
12892;171904;33.88;714;03.53.12.907
12868;171894;33.88;715;03.53.12.907
12888;171897;33.88;716;03.53.12.907
12916;171888;33.88;717;03.53.12.918
12880;171874;33.88;718;03.53.12.918
12888;171873;33.88;719;03.53.12.918
12892;171864;33.88;720;03.53.12.918
12872;171862;33.88;721;03.53.12.918
12896;171835;33.88;722;03.53.12.918
12872;171834;33.88;723;03.53.12.918
12900;171824;33.88;724;03.53.12.918
12888;171815;33.88;725;03.53.13.017
12884;171804;33.88;726;03.53.13.017
12884;171811;33.88;727;03.53.13.017
12884;171814;33.88;728;03.53.13.017
12876;171813;33.88;729;03.53.13.017
12892;171818;33.88;730;03.53.13.017
12900;171821;33.88;731;03.53.13.028
12900;171829;33.88;732;03.53.13.028
12892;171832;33.88;733;03.53.13.028
12896;171829;33.88;734;03.53.13.028
12884;171836;33.88;735;03.53.13.028
12876;171833;33.88;736;03.53.13.028
12888;171838;33.88;737;03.53.13.028
12892;171839;33.88;738;03.53.13.039
12888;171840;33.88;739;03.53.13.039
12888;171842;33.88;740;03.53.13.039
12896;171846;33.88;741;03.53.13.039
12896;171848;33.88;742;03.53.13.039
12884;171859;33.88;743;03.53.13.039
12880;171846;33.88;744;03.53.13.039
12884;171855;33.88;745;03.53.13.039
12880;171850;33.88;746;03.53.13.039
12880;171848;33.88;747;03.53.13.039
12892;171848;33.88;748;03.53.13.050
12904;171847;33.88;749;03.53.13.050
12884;171846;33.88;750;03.53.13.127
12928;171844;33.88;751;03.53.13.138
12928;171846;33.88;752;03.53.13.138
12888;171840;33.88;753;03.53.13.138
12916;171837;33.88;754;03.53.13.138
12888;171828;33.88;755;03.53.13.138
12892;171833;33.88;756;03.53.13.138
12860;171825;33.88;757;03.53.13.138
12876;171822;33.88;758;03.53.13.138
12912;171818;33.88;759;03.53.13.138
12896;171811;33.88;760;03.53.13.138
12884;171809;33.88;761;03.53.13.138
12892;171796;33.88;762;03.53.13.138
12904;171789;33.88;763;03.53.13.138
12888;171781;33.88;764;03.53.13.138
12880;171772;33.88;765;03.53.13.149
12912;171765;33.88;766;03.53.13.149
12884;171755;33.88;767;03.53.13.149
12912;171752;33.88;768;03.53.13.149
12892;171750;33.88;769;03.53.13.149
12916;171750;33.88;770;03.53.13.149
12904;171744;33.88;771;03.53.13.149
12884;171750;33.88;772;03.53.13.149
12900;171739;33.88;773;03.53.13.149
12924;171748;33.88;774;03.53.13.149
12880;171750;33.92;775;03.53.13.259
12876;171754;33.92;776;03.53.13.259
12884;171762;33.92;777;03.53.13.259
12904;171763;33.92;778;03.53.13.259
12896;171760;33.92;779;03.53.13.259
12892;171772;33.92;780;03.53.13.259
12904;171769;33.92;781;03.53.13.259
12880;171766;33.92;782;03.53.13.259
12872;171766;33.92;783;03.53.13.269
12896;171756;33.92;784;03.53.13.269
12876;171761;33.92;785;03.53.13.269
12868;171768;33.92;786;03.53.13.269
12900;171768;33.92;787;03.53.13.269
12892;171762;33.92;788;03.53.13.269
12880;171763;33.92;789;03.53.13.269
12884;171767;33.92;790;03.53.13.269
12888;171762;33.92;791;03.53.13.269
12912;171766;33.92;792;03.53.13.269
12876;171760;33.92;793;03.53.13.269
12932;171768;33.92;794;03.53.13.269
12896;171760;33.92;795;03.53.13.280
12888;171758;33.92;796;03.53.13.280
12896;171751;33.92;797;03.53.13.280
12916;171745;33.92;798;03.53.13.280
12896;171739;33.92;799;03.53.13.280
12880;171742;33.92;800;03.53.13.379
12876;171730;33.92;801;03.53.13.379
12900;171735;33.92;802;03.53.13.379
12904;171718;33.92;803;03.53.13.379
12860;171724;33.92;804;03.53.13.379
12900;171717;33.92;805;03.53.13.379
12884;171724;33.92;806;03.53.13.379
12900;171705;33.92;807;03.53.13.379
12912;171706;33.92;808;03.53.13.401
12876;171699;33.92;809;03.53.13.401
12872;171693;33.92;810;03.53.13.401
12908;171693;33.92;811;03.53.13.401
12872;171689;33.92;812;03.53.13.401
12892;171684;33.92;813;03.53.13.401
12888;171684;33.92;814;03.53.13.401
12880;171663;33.92;815;03.53.13.401
12904;171665;33.92;816;03.53.13.412
12876;171673;33.92;817;03.53.13.412
12900;171664;33.92;818;03.53.13.412
12916;171655;33.92;819;03.53.13.412
12900;171660;33.92;820;03.53.13.412
12880;171656;33.92;821;03.53.13.412
12908;171662;33.92;822;03.53.13.412
12920;171665;33.92;823;03.53.13.412
12876;171665;33.92;824;03.53.13.412
12880;171673;33.92;825;03.53.13.511
12912;171673;33.92;826;03.53.13.511
12884;171676;33.92;827;03.53.13.511
12888;171675;33.92;828;03.53.13.511
12904;171681;33.92;829;03.53.13.522
12892;171680;33.92;830;03.53.13.522
12892;171682;33.92;831;03.53.13.522
12896;171694;33.92;832;03.53.13.522
12904;171696;33.92;833;03.53.13.544
12896;171715;33.92;834;03.53.13.544
12908;171714;33.92;835;03.53.13.544
12928;171711;33.92;836;03.53.13.544
12920;171714;33.92;837;03.53.13.555
12880;171712;33.92;838;03.53.13.555
12896;171711;33.92;839;03.53.13.555
12892;171722;33.92;840;03.53.13.555
12888;171714;33.92;841;03.53.13.555
12900;171719;33.92;842;03.53.13.555
12904;171716;33.92;843;03.53.13.555
12896;171723;33.92;844;03.53.13.555
12904;171720;33.92;845;03.53.13.555
12900;171711;33.92;846;03.53.13.555
12904;171707;33.92;847;03.53.13.555
12900;171706;33.92;848;03.53.13.555
12916;171707;33.92;849;03.53.13.555
12896;171694;33.92;850;03.53.13.642
12864;171704;33.92;851;03.53.13.642
12916;171704;33.92;852;03.53.13.642
12892;171697;33.92;853;03.53.13.642
12900;171705;33.92;854;03.53.13.642
12916;171692;33.92;855;03.53.13.642
12900;171695;33.92;856;03.53.13.642
12916;171695;33.92;857;03.53.13.642
12864;171683;33.92;858;03.53.13.642
12884;171687;33.92;859;03.53.13.642
12892;171686;33.92;860;03.53.13.642
12884;171677;33.92;861;03.53.13.642
12912;171671;33.92;862;03.53.13.642
12880;171670;33.92;863;03.53.13.653
12900;171662;33.92;864;03.53.13.653
12912;171667;33.92;865;03.53.13.653
12892;171658;33.92;866;03.53.13.653
12880;171650;33.92;867;03.53.13.653
12892;171648;33.92;868;03.53.13.653
12876;171647;33.92;869;03.53.13.653
12904;171645;33.92;870;03.53.13.653
12888;171646;33.92;871;03.53.13.653
12888;171662;33.92;872;03.53.13.653
12896;171664;33.92;873;03.53.13.653
12884;171665;33.92;874;03.53.13.653
12892;171668;33.92;875;03.53.13.774
12872;171675;33.92;876;03.53.13.774
12900;171682;33.92;877;03.53.13.774
12892;171694;33.92;878;03.53.13.774
12892;171685;33.92;879;03.53.13.774
12912;171700;33.92;880;03.53.13.774
12880;171706;33.92;881;03.53.13.774
12904;171702;33.92;882;03.53.13.774
12900;171704;33.92;883;03.53.13.774
12904;171709;33.92;884;03.53.13.785
12904;171699;33.92;885;03.53.13.785
12888;171707;33.92;886;03.53.13.785
12892;171709;33.92;887;03.53.13.785
12888;171700;33.92;888;03.53.13.785
12892;171707;33.92;889;03.53.13.785
12912;171715;33.92;890;03.53.13.785
12884;171713;33.92;891;03.53.13.785
12892;171715;33.92;892;03.53.13.785
12900;171726;33.92;893;03.53.13.785
12928;171725;33.92;894;03.53.13.785
12884;171733;33.92;895;03.53.13.785
12912;171731;33.92;896;03.53.13.785
12920;171731;33.92;897;03.53.13.796
12888;171741;33.92;898;03.53.13.796
12920;171741;33.92;899;03.53.13.796
12892;171731;33.92;900;03.53.13.884
12896;171746;33.92;901;03.53.13.884
12868;171749;33.92;902;03.53.13.884
12892;171755;33.92;903;03.53.13.884
12888;171764;33.92;904;03.53.13.884
12892;171771;33.92;905;03.53.13.884
12912;171765;33.92;906;03.53.13.895
12876;171771;33.92;907;03.53.13.895
12892;171775;33.92;908;03.53.13.906
12888;171776;33.92;909;03.53.13.906
12884;171783;33.92;910;03.53.13.906
12904;171787;33.92;911;03.53.13.906
12896;171779;33.92;912;03.53.13.906
12888;171781;33.92;913;03.53.13.906
12892;171778;33.92;914;03.53.13.906
12928;171784;33.92;915;03.53.13.918
12888;171779;33.92;916;03.53.13.918
12908;171773;33.92;917;03.53.13.918
12908;171767;33.92;918;03.53.13.918
12912;171774;33.92;919;03.53.13.918
12872;171760;33.92;920;03.53.13.918
12912;171761;33.92;921;03.53.13.918
12892;171753;33.92;922;03.53.13.918
12896;171754;33.92;923;03.53.13.918
12928;171745;33.92;924;03.53.13.918
12888;171731;33.88;925;03.53.14.006
12896;171734;33.88;926;03.53.14.006
12860;171721;33.88;927;03.53.14.006
12892;171722;33.88;928;03.53.14.016
12892;171713;33.88;929;03.53.14.016
12892;171714;33.88;930;03.53.14.016
12872;171709;33.88;931;03.53.14.016
12900;171710;33.88;932;03.53.14.016
12912;171710;33.88;933;03.53.14.016
12892;171704;33.88;934;03.53.14.016
12912;171704;33.88;935;03.53.14.016
12888;171709;33.88;936;03.53.14.016
12896;171705;33.88;937;03.53.14.027
12896;171710;33.88;938;03.53.14.027
12896;171698;33.88;939;03.53.14.027
12904;171700;33.88;940;03.53.14.027
12900;171709;33.88;941;03.53.14.027
12892;171711;33.88;942;03.53.14.038
12896;171714;33.88;943;03.53.14.038
12912;171719;33.88;944;03.53.14.038
12880;171722;33.88;945;03.53.14.049
12888;171729;33.88;946;03.53.14.049
12884;171725;33.88;947;03.53.14.049
12860;171725;33.88;948;03.53.14.049
12900;171723;33.88;949;03.53.14.049
12860;171723;33.88;950;03.53.14.137
12916;171734;33.88;951;03.53.14.137
12892;171737;33.88;952;03.53.14.137
12900;171730;33.88;953;03.53.14.137
12904;171746;33.88;954;03.53.14.137
12900;171746;33.88;955;03.53.14.137
12884;171743;33.88;956;03.53.14.137
12872;171742;33.88;957;03.53.14.137
12896;171748;33.88;958;03.53.14.137
12880;171753;33.88;959;03.53.14.137
12880;171746;33.88;960;03.53.14.137
12896;171760;33.88;961;03.53.14.137
12884;171760;33.88;962;03.53.14.148
12896;171759;33.88;963;03.53.14.148
12908;171762;33.88;964;03.53.14.148
12920;171763;33.88;965;03.53.14.148
12892;171765;33.88;966;03.53.14.148
12912;171775;33.88;967;03.53.14.148
12900;171766;33.88;968;03.53.14.148
12888;171771;33.88;969;03.53.14.148
12900;171776;33.88;970;03.53.14.148
12880;171768;33.88;971;03.53.14.148
12884;171768;33.88;972;03.53.14.148
12924;171767;33.88;973;03.53.14.148
12924;171762;33.88;974;03.53.14.158
12912;171768;33.92;975;03.53.14.267
12876;171755;33.92;976;03.53.14.267
12892;171759;33.92;977;03.53.14.267
12888;171760;33.92;978;03.53.14.267
12928;171757;33.92;979;03.53.14.267
12904;171745;33.92;980;03.53.14.267
12904;171740;33.92;981;03.53.14.267
12860;171730;33.92;982;03.53.14.278
12912;171741;33.92;983;03.53.14.278
12912;171723;33.92;984;03.53.14.278
12908;171724;33.92;985;03.53.14.278
12896;171726;33.92;986;03.53.14.278
12880;171722;33.92;987;03.53.14.278
12916;171729;33.92;988;03.53.14.278
12912;171724;33.92;989;03.53.14.278
12904;171730;33.92;990;03.53.14.278
12892;171726;33.92;991;03.53.14.278
12892;171729;33.92;992;03.53.14.278
12928;171734;33.92;993;03.53.14.278
12904;171734;33.92;994;03.53.14.278
12880;171720;33.92;995;03.53.14.289
12904;171738;33.92;996;03.53.14.289
12900;171738;33.92;997;03.53.14.289
12888;171736;33.92;998;03.53.14.289
12884;171736;33.92;999;03.53.14.289
12888;171745;33.92;000;03.53.14.376
12876;171748;33.92;001;03.53.14.376
12896;171750;33.92;002;03.53.14.376
12876;171760;33.92;003;03.53.14.387
12920;171761;33.92;004;03.53.14.387
12896;171770;33.92;005;03.53.14.387
12892;171773;33.92;006;03.53.14.387
12892;171769;33.92;007;03.53.14.387
12912;171776;33.92;008;03.53.14.398
12936;171772;33.92;009;03.53.14.398
12860;171776;33.92;010;03.53.14.398
12908;171779;33.92;011;03.53.14.409
12904;171781;33.92;012;03.53.14.409
12872;171784;33.92;013;03.53.14.409
12860;171788;33.92;014;03.53.14.409
12900;171787;33.92;015;03.53.14.409
12900;171787;33.92;016;03.53.14.409
12896;171799;33.92;017;03.53.14.409
12900;171806;33.92;018;03.53.14.409
12928;171801;33.92;019;03.53.14.420
12896;171813;33.92;020;03.53.14.420
12908;171806;33.92;021;03.53.14.420
12900;171815;33.92;022;03.53.14.420
12900;171810;33.92;023;03.53.14.420
12912;171818;33.92;024;03.53.14.420
12872;171809;33.92;025;03.53.14.508
12868;171815;33.92;026;03.53.14.508
12884;171823;33.92;027;03.53.14.508
12876;171828;33.92;028;03.53.14.508
12900;171829;33.92;029;03.53.14.508
12900;171837;33.92;030;03.53.14.508
12888;171840;33.92;031;03.53.14.508
12912;171838;33.92;032;03.53.14.508
12896;171851;33.92;033;03.53.14.508
12876;171843;33.92;034;03.53.14.508
12876;171838;33.92;035;03.53.14.508
12884;171846;33.92;036;03.53.14.508
12912;171838;33.92;037;03.53.14.519
12884;171835;33.92;038;03.53.14.519
12892;171851;33.92;039;03.53.14.519
12912;171847;33.92;040;03.53.14.519
12892;171849;33.92;041;03.53.14.519
12908;171852;33.92;042;03.53.14.541
12900;171854;33.92;043;03.53.14.541
12884;171852;33.92;044;03.53.14.541
12896;171850;33.92;045;03.53.14.541
12892;171857;33.92;046;03.53.14.541
12904;171852;33.92;047;03.53.14.541
12928;171862;33.92;048;03.53.14.541
12892;171848;33.92;049;03.53.14.541
12896;171861;33.92;050;03.53.14.629
12892;171858;33.92;051;03.53.14.629
12912;171859;33.92;052;03.53.14.629
12884;171864;33.92;053;03.53.14.629
12896;171860;33.92;054;03.53.14.629
12888;171860;33.92;055;03.53.14.629
12904;171854;33.92;056;03.53.14.629
12896;171859;33.92;057;03.53.14.629
12908;171852;33.92;058;03.53.14.639
12880;171854;33.92;059;03.53.14.639
12904;171843;33.92;060;03.53.14.639
12880;171850;33.92;061;03.53.14.639
12904;171847;33.92;062;03.53.14.639
12896;171847;33.92;063;03.53.14.639
12904;171841;33.92;064;03.53.14.639
12888;171847;33.92;065;03.53.14.639
12896;171844;33.92;066;03.53.14.639
12908;171851;33.92;067;03.53.14.639
12892;171857;33.92;068;03.53.14.639
12884;171846;33.92;069;03.53.14.639
12900;171854;33.92;070;03.53.14.639
12896;171860;33.92;071;03.53.14.650
12900;171856;33.92;072;03.53.14.650
12892;171845;33.92;073;03.53.14.650
12928;171851;33.92;074;03.53.14.650
12896;171847;33.92;075;03.53.14.760
12880;171846;33.92;076;03.53.14.760
12916;171854;33.92;077;03.53.14.760
12904;171849;33.92;078;03.53.14.760
12900;171857;33.92;079;03.53.14.771
12892;171855;33.92;080;03.53.14.771
12892;171854;33.92;081;03.53.14.771
12916;171857;33.92;082;03.53.14.771
12896;171855;33.92;083;03.53.14.771
12900;171857;33.92;084;03.53.14.771
12884;171847;33.92;085;03.53.14.771
12904;171854;33.92;086;03.53.14.771
12856;171847;33.92;087;03.53.14.771
12888;171844;33.92;088;03.53.14.771
12880;171843;33.92;089;03.53.14.771
12908;171845;33.92;090;03.53.14.771
12884;171841;33.92;091;03.53.14.771
12900;171838;33.92;092;03.53.14.782
12904;171830;33.92;093;03.53.14.782
12888;171837;33.92;094;03.53.14.782
12892;171832;33.92;095;03.53.14.782
12904;171836;33.92;096;03.53.14.782
12864;171835;33.92;097;03.53.14.782
12904;171842;33.92;098;03.53.14.782
12912;171842;33.92;099;03.53.14.782
12888;171839;33.92;100;03.53.14.902
12892;171845;33.92;101;03.53.14.902
12880;171846;33.92;102;03.53.14.902
12868;171853;33.92;103;03.53.14.902
12912;171860;33.92;104;03.53.14.902
12904;171858;33.92;105;03.53.14.902
12904;171871;33.92;106;03.53.14.902
12872;171882;33.92;107;03.53.14.902
12876;171873;33.92;108;03.53.14.902
12880;171892;33.92;109;03.53.14.902
12892;171896;33.92;110;03.53.14.902
12908;171897;33.92;111;03.53.14.902
12892;171910;33.92;112;03.53.14.913
12872;171921;33.92;113;03.53.14.913
12880;171915;33.92;114;03.53.14.913
12888;171925;33.92;115;03.53.14.913
12872;171936;33.92;116;03.53.14.913
12884;171938;33.92;117;03.53.14.913
12928;171943;33.92;118;03.53.14.913
12884;171941;33.92;119;03.53.14.913
12892;171943;33.92;120;03.53.14.913
12892;171938;33.92;121;03.53.14.913
12888;171945;33.92;122;03.53.14.913
12904;171945;33.92;123;03.53.14.913
12904;171937;33.92;124;03.53.14.913
12888;171935;33.92;125;03.53.15.033
12888;171939;33.92;126;03.53.15.033
12896;171935;33.92;127;03.53.15.033
12896;171931;33.92;128;03.53.15.033
12892;171928;33.92;129;03.53.15.033
12852;171925;33.92;130;03.53.15.033
12928;171924;33.92;131;03.53.15.033
12904;171924;33.92;132;03.53.15.033
12904;171925;33.92;133;03.53.15.033
12912;171927;33.92;134;03.53.15.033
12888;171927;33.92;135;03.53.15.044
12876;171922;33.92;136;03.53.15.044
12888;171935;33.92;137;03.53.15.044
12896;171931;33.92;138;03.53.15.044
12900;171926;33.92;139;03.53.15.044
12896;171926;33.92;140;03.53.15.044
12900;171929;33.92;141;03.53.15.044
12844;171942;33.92;142;03.53.15.044
12900;171933;33.92;143;03.53.15.044
12904;171934;33.92;144;03.53.15.044
12892;171941;33.92;145;03.53.15.044
12908;171942;33.92;146;03.53.15.044
12888;171945;33.92;147;03.53.15.044
12916;171945;33.92;148;03.53.15.055
12900;171945;33.92;149;03.53.15.055
12896;171947;33.92;150;03.53.15.132
12904;171955;33.92;151;03.53.15.132
12916;171961;33.92;152;03.53.15.132
12928;171965;33.92;153;03.53.15.132
12888;171964;33.92;154;03.53.15.132
12928;171968;33.92;155;03.53.15.143
12860;171964;33.92;156;03.53.15.143
12876;171975;33.92;157;03.53.15.143
12896;171965;33.92;158;03.53.15.143
12900;171968;33.92;159;03.53.15.143
12888;171977;33.92;160;03.53.15.143
12872;171970;33.92;161;03.53.15.143
12872;171973;33.92;162;03.53.15.143
12912;171973;33.92;163;03.53.15.143
12860;171974;33.92;164;03.53.15.154
12904;171967;33.92;165;03.53.15.154
12892;171974;33.92;166;03.53.15.154
12904;171988;33.92;167;03.53.15.165
12916;171982;33.92;168;03.53.15.165
12896;171992;33.92;169;03.53.15.165
12912;171990;33.92;170;03.53.15.165
12912;171992;33.92;171;03.53.15.165
12872;171989;33.92;172;03.53.15.176
12888;171989;33.92;173;03.53.15.176
12900;171986;33.92;174;03.53.15.176
12876;171988;33.92;175;03.53.15.253
12888;171979;33.92;176;03.53.15.264
12904;171971;33.92;177;03.53.15.264
12900;171966;33.92;178;03.53.15.264
12916;171962;33.92;179;03.53.15.264
12908;171954;33.92;180;03.53.15.264
12880;171958;33.92;181;03.53.15.264
12900;171954;33.92;182;03.53.15.264
12900;171956;33.92;183;03.53.15.264
12908;171944;33.92;184;03.53.15.264
12868;171951;33.92;185;03.53.15.264
12868;171934;33.92;186;03.53.15.264
12884;171941;33.92;187;03.53.15.264
12892;171940;33.92;188;03.53.15.264
12884;171935;33.92;189;03.53.15.275
12860;171935;33.92;190;03.53.15.275
12900;171930;33.92;191;03.53.15.275
12904;171928;33.92;192;03.53.15.275
12896;171933;33.92;193;03.53.15.275
12888;171928;33.92;194;03.53.15.275
12880;171921;33.92;195;03.53.15.275
12904;171929;33.92;196;03.53.15.275
12896;171934;33.92;197;03.53.15.275
12904;171930;33.92;198;03.53.15.275
12900;171924;33.92;199;03.53.15.275
12884;171916;33.92;200;03.53.15.395
12884;171917;33.92;201;03.53.15.395
12892;171912;33.92;202;03.53.15.395
12884;171913;33.92;203;03.53.15.395
12912;171916;33.92;204;03.53.15.395
12900;171899;33.92;205;03.53.15.395
12912;171904;33.92;206;03.53.15.395
12904;171904;33.92;207;03.53.15.395
12876;171905;33.92;208;03.53.15.395
12876;171907;33.92;209;03.53.15.395
12912;171900;33.92;210;03.53.15.395
12884;171897;33.92;211;03.53.15.406
12880;171889;33.92;212;03.53.15.406
12888;171890;33.92;213;03.53.15.406
12896;171886;33.92;214;03.53.15.406
12888;171888;33.92;215;03.53.15.406
12884;171878;33.92;216;03.53.15.406
12872;171879;33.92;217;03.53.15.417
12880;171864;33.92;218;03.53.15.417
12880;171863;33.92;219;03.53.15.417
12892;171848;33.92;220;03.53.15.417
12892;171828;33.92;221;03.53.15.417
12876;171810;33.92;222;03.53.15.417
12884;171796;33.92;223;03.53.15.417
12916;171786;33.92;224;03.53.15.417
12896;171762;33.92;225;03.53.15.505
12880;171746;33.92;226;03.53.15.505
12880;171730;33.92;227;03.53.15.505
12928;171714;33.92;228;03.53.15.505
12884;171694;33.92;229;03.53.15.505
12880;171689;33.92;230;03.53.15.505
12884;171670;33.92;231;03.53.15.505
12860;171650;33.92;232;03.53.15.505
12876;171635;33.92;233;03.53.15.516
12892;171629;33.92;234;03.53.15.516
12896;171614;33.92;235;03.53.15.516
12896;171616;33.92;236;03.53.15.516
12896;171596;33.92;237;03.53.15.516
12884;171590;33.92;238;03.53.15.516
12884;171570;33.92;239;03.53.15.516
12904;171569;33.92;240;03.53.15.527
12896;171560;33.92;241;03.53.15.527
12928;171554;33.92;242;03.53.15.527
12884;171537;33.92;243;03.53.15.527
12928;171530;33.92;244;03.53.15.527
12868;171534;33.92;245;03.53.15.527
12892;171530;33.92;246;03.53.15.527
12880;171525;33.92;247;03.53.15.527
12896;171518;33.92;248;03.53.15.527
12900;171520;33.92;249;03.53.15.527
12864;171515;33.92;250;03.53.15.625
12880;171515;33.92;251;03.53.15.625
12868;171516;33.92;252;03.53.15.625
12880;171518;33.92;253;03.53.15.636
12872;171514;33.92;254;03.53.15.636
12896;171515;33.92;255;03.53.15.636
12876;171512;33.92;256;03.53.15.636
12888;171522;33.92;257;03.53.15.636
12876;171524;33.92;258;03.53.15.636
12892;171519;33.92;259;03.53.15.636
12876;171520;33.92;260;03.53.15.636
12896;171523;33.92;261;03.53.15.636
12864;171523;33.92;262;03.53.15.636
12904;171519;33.92;263;03.53.15.636
12880;171530;33.92;264;03.53.15.636
12880;171520;33.92;265;03.53.15.636
12916;171532;33.92;266;03.53.15.647
12916;171528;33.92;267;03.53.15.647
12912;171521;33.92;268;03.53.15.647
12904;171517;33.92;269;03.53.15.647
12892;171520;33.92;270;03.53.15.647
12900;171522;33.92;271;03.53.15.647
12892;171520;33.92;272;03.53.15.647
12904;171519;33.92;273;03.53.15.647
12912;171515;33.92;274;03.53.15.647
12880;171513;33.88;275;03.53.15.755
12892;171522;33.88;276;03.53.15.755
12860;171523;33.88;277;03.53.15.755
12888;171526;33.88;278;03.53.15.755
12900;171516;33.88;279;03.53.15.755
12900;171516;33.88;280;03.53.15.755
12884;171520;33.88;281;03.53.15.755
12892;171520;33.88;282;03.53.15.755
12892;171525;33.88;283;03.53.15.755
12900;171520;33.88;284;03.53.15.755
12872;171515;33.88;285;03.53.15.755
12880;171521;33.88;286;03.53.15.766
12924;171515;33.88;287;03.53.15.766
12896;171518;33.88;288;03.53.15.766
12904;171515;33.88;289;03.53.15.766
12872;171517;33.88;290;03.53.15.766
12860;171510;33.88;291;03.53.15.766
12872;171510;33.88;292;03.53.15.766
12896;171497;33.88;293;03.53.15.766
12920;171498;33.88;294;03.53.15.766
12892;171502;33.88;295;03.53.15.766
12892;171501;33.88;296;03.53.15.766
12880;171498;33.88;297;03.53.15.766
12876;171490;33.88;298;03.53.15.777
12916;171495;33.88;299;03.53.15.777
12888;171496;33.88;300;03.53.15.886
12840;171488;33.88;301;03.53.15.886
12868;171490;33.88;302;03.53.15.886
12928;171486;33.88;303;03.53.15.886
12860;171487;33.88;304;03.53.15.886
12868;171486;33.88;305;03.53.15.886
12912;171486;33.88;306;03.53.15.897
12900;171492;33.88;307;03.53.15.897
12860;171488;33.88;308;03.53.15.897
12896;171494;33.88;309;03.53.15.897
12912;171500;33.88;310;03.53.15.897
12896;171501;33.88;311;03.53.15.897
12896;171510;33.88;312;03.53.15.897
12892;171508;33.88;313;03.53.15.897
12904;171498;33.88;314;03.53.15.897
12892;171510;33.88;315;03.53.15.897
12868;171513;33.88;316;03.53.15.897
12876;171519;33.88;317;03.53.15.897
12908;171521;33.88;318;03.53.15.897
12928;171527;33.88;319;03.53.15.908
12884;171528;33.88;320;03.53.15.908
12904;171536;33.88;321;03.53.15.908
12848;171545;33.88;322;03.53.15.908
12892;171541;33.88;323;03.53.15.908
12876;171540;33.88;324;03.53.15.908
12888;171538;33.92;325;03.53.16.018
12884;171533;33.92;326;03.53.16.018
12892;171529;33.92;327;03.53.16.029
12908;171528;33.92;328;03.53.16.029
12876;171526;33.92;329;03.53.16.029
12896;171529;33.92;330;03.53.16.029
12872;171520;33.92;331;03.53.16.029
12880;171524;33.92;332;03.53.16.029
12884;171523;33.92;333;03.53.16.029
12904;171522;33.92;334;03.53.16.029
12900;171518;33.92;335;03.53.16.029
12904;171519;33.92;336;03.53.16.029
12908;171515;33.92;337;03.53.16.029
12896;171524;33.92;338;03.53.16.029
12900;171511;33.92;339;03.53.16.029
12900;171506;33.92;340;03.53.16.040
12884;171506;33.92;341;03.53.16.040
12884;171499;33.92;342;03.53.16.040
12904;171498;33.92;343;03.53.16.040
12900;171497;33.92;344;03.53.16.040
12888;171485;33.92;345;03.53.16.040
12888;171500;33.92;346;03.53.16.040
12912;171492;33.92;347;03.53.16.040
12896;171485;33.92;348;03.53.16.040
12904;171477;33.92;349;03.53.16.040
12880;171484;33.92;350;03.53.16.139
12916;171476;33.92;351;03.53.16.139
12892;171467;33.92;352;03.53.16.139
12880;171471;33.92;353;03.53.16.139
12892;171487;33.92;354;03.53.16.139
12900;171472;33.92;355;03.53.16.139
12904;171469;33.92;356;03.53.16.139
12888;171467;33.92;357;03.53.16.139
12880;171463;33.92;358;03.53.16.160
12892;171475;33.92;359;03.53.16.160
12896;171474;33.92;360;03.53.16.160
12876;171468;33.92;361;03.53.16.160
12888;171471;33.92;362;03.53.16.160
12896;171473;33.92;363;03.53.16.160
12884;171474;33.92;364;03.53.16.160
12884;171477;33.92;365;03.53.16.160
12900;171475;33.92;366;03.53.16.160
12872;171473;33.92;367;03.53.16.160
12912;171474;33.92;368;03.53.16.160
12876;171478;33.92;369;03.53.16.160
12900;171479;33.92;370;03.53.16.171
12880;171473;33.92;371;03.53.16.171
12904;171463;33.92;372;03.53.16.171
12896;171460;33.92;373;03.53.16.171
12888;171471;33.92;374;03.53.16.171
12896;171481;33.92;375;03.53.16.259
12904;171475;33.92;376;03.53.16.259
12900;171473;33.92;377;03.53.16.259
12904;171470;33.92;378;03.53.16.259
12892;171462;33.92;379;03.53.16.259
12928;171474;33.92;380;03.53.16.259
12908;171466;33.92;381;03.53.16.259
12900;171470;33.92;382;03.53.16.259
12904;171463;33.92;383;03.53.16.270
12880;171475;33.92;384;03.53.16.270
12892;171459;33.92;385;03.53.16.270
12888;171462;33.92;386;03.53.16.270
12884;171469;33.92;387;03.53.16.270
12928;171462;33.92;388;03.53.16.270
12880;171467;33.92;389;03.53.16.270
12892;171464;33.92;390;03.53.16.270
12884;171464;33.92;391;03.53.16.270
12912;171464;33.92;392;03.53.16.270
12892;171467;33.92;393;03.53.16.270
12888;171471;33.92;394;03.53.16.270
12888;171466;33.92;395;03.53.16.270
12888;171468;33.92;396;03.53.16.281
12920;171469;33.92;397;03.53.16.281
12892;171459;33.92;398;03.53.16.281
12908;171463;33.92;399;03.53.16.281
12904;171454;33.92;400;03.53.16.380
12896;171463;33.92;401;03.53.16.380
12900;171458;33.92;402;03.53.16.380
12876;171466;33.92;403;03.53.16.380
12896;171460;33.92;404;03.53.16.380
12892;171460;33.92;405;03.53.16.391
12884;171462;33.92;406;03.53.16.391
12896;171463;33.92;407;03.53.16.391
12900;171464;33.92;408;03.53.16.391
12904;171465;33.92;409;03.53.16.391
12920;171468;33.92;410;03.53.16.391
12888;171473;33.92;411;03.53.16.391
12876;171468;33.92;412;03.53.16.391
12916;171467;33.92;413;03.53.16.391
12872;171477;33.92;414;03.53.16.391
12896;171471;33.92;415;03.53.16.391
12904;171479;33.92;416;03.53.16.391
12876;171463;33.92;417;03.53.16.402
12908;171479;33.92;418;03.53.16.402
12896;171481;33.92;419;03.53.16.402
12888;171467;33.92;420;03.53.16.402
12908;171465;33.92;421;03.53.16.413
12860;171470;33.92;422;03.53.16.413
12880;171478;33.92;423;03.53.16.413
12904;171478;33.92;424;03.53.16.413
12928;171478;33.92;425;03.53.16.512
12876;171473;33.92;426;03.53.16.523
12888;171480;33.92;427;03.53.16.523
12920;171477;33.92;428;03.53.16.523
12888;171482;33.92;429;03.53.16.523
12884;171477;33.92;430;03.53.16.523
12880;171475;33.92;431;03.53.16.523
12876;171480;33.92;432;03.53.16.523
12896;171482;33.92;433;03.53.16.523
12896;171480;33.92;434;03.53.16.523
12904;171475;33.92;435;03.53.16.523
12916;171479;33.92;436;03.53.16.523
12900;171477;33.92;437;03.53.16.523
12900;171479;33.92;438;03.53.16.533
12904;171483;33.92;439;03.53.16.533
12892;171466;33.92;440;03.53.16.533
12896;171473;33.92;441;03.53.16.533
12912;171467;33.92;442;03.53.16.533
12892;171458;33.92;443;03.53.16.533
12908;171460;33.92;444;03.53.16.533
12900;171460;33.92;445;03.53.16.533
12904;171457;33.92;446;03.53.16.533
12896;171450;33.92;447;03.53.16.533
12892;171448;33.92;448;03.53.16.533
12876;171437;33.92;449;03.53.16.533
12856;171440;33.92;450;03.53.16.632
12904;171425;33.92;451;03.53.16.632
12884;171423;33.92;452;03.53.16.632
12900;171420;33.92;453;03.53.16.632
12860;171418;33.92;454;03.53.16.632
12884;171406;33.92;455;03.53.16.632
12896;171414;33.92;456;03.53.16.632
12884;171406;33.92;457;03.53.16.632
12872;171392;33.92;458;03.53.16.643
12892;171391;33.92;459;03.53.16.643
12900;171388;33.92;460;03.53.16.643
12892;171394;33.92;461;03.53.16.643
12888;171390;33.92;462;03.53.16.643
12916;171390;33.92;463;03.53.16.643
12884;171383;33.92;464;03.53.16.643
12928;171383;33.92;465;03.53.16.643
12884;171381;33.92;466;03.53.16.643
12876;171387;33.92;467;03.53.16.654
12876;171384;33.92;468;03.53.16.654
12900;171388;33.92;469;03.53.16.654
12892;171394;33.92;470;03.53.16.654
12900;171395;33.92;471;03.53.16.654
12888;171383;33.92;472;03.53.16.654
12888;171388;33.92;473;03.53.16.654
12888;171388;33.92;474;03.53.16.654
12896;171397;33.92;475;03.53.16.763
12892;171398;33.92;476;03.53.16.763
12892;171400;33.92;477;03.53.16.763
12900;171402;33.92;478;03.53.16.763
12876;171407;33.92;479;03.53.16.763
12892;171407;33.92;480;03.53.16.763
12912;171405;33.92;481;03.53.16.774
12904;171409;33.92;482;03.53.16.774
12896;171414;33.92;483;03.53.16.785
12892;171413;33.92;484;03.53.16.785
12880;171413;33.92;485;03.53.16.785
12896;171415;33.92;486;03.53.16.785
12884;171411;33.92;487;03.53.16.785
12896;171416;33.92;488;03.53.16.796
12896;171410;33.92;489;03.53.16.796
12876;171415;33.92;490;03.53.16.796
12888;171425;33.92;491;03.53.16.796
12876;171422;33.92;492;03.53.16.796
12888;171423;33.92;493;03.53.16.796
12900;171428;33.92;494;03.53.16.796
12888;171424;33.92;495;03.53.16.796
12876;171423;33.92;496;03.53.16.796
12892;171417;33.92;497;03.53.16.796
12856;171423;33.92;498;03.53.16.796
12884;171414;33.92;499;03.53.16.796
12900;171420;33.92;500;03.53.16.873
12876;171424;33.92;501;03.53.16.873
12868;171417;33.92;502;03.53.16.884
12912;171406;33.92;503;03.53.16.884
12896;171413;33.92;504;03.53.16.884
12884;171411;33.92;505;03.53.16.884
12904;171409;33.92;506;03.53.16.884
12872;171404;33.92;507;03.53.16.884
12892;171392;33.92;508;03.53.16.884
12876;171389;33.92;509;03.53.16.884
12912;171386;33.92;510;03.53.16.884
12884;171394;33.92;511;03.53.16.884
12896;171385;33.92;512;03.53.16.884
12904;171392;33.92;513;03.53.16.884
12876;171377;33.92;514;03.53.16.884
12872;171375;33.92;515;03.53.16.884
12896;171365;33.92;516;03.53.16.895
12896;171379;33.92;517;03.53.16.895
12888;171375;33.92;518;03.53.16.895
12884;171373;33.92;519;03.53.16.895
12828;171366;33.92;520;03.53.16.895
12896;171380;33.92;521;03.53.16.895
12860;171373;33.92;522;03.53.16.895
12904;171380;33.92;523;03.53.16.895
12876;171380;33.92;524;03.53.16.895
12852;171381;33.92;525;03.53.17.015
12876;171389;33.92;526;03.53.17.015
12904;171392;33.92;527;03.53.17.015
12908;171393;33.92;528;03.53.17.015
12904;171394;33.92;529;03.53.17.015
12880;171394;33.92;530;03.53.17.015
12884;171398;33.92;531;03.53.17.015
12876;171393;33.92;532;03.53.17.015
12888;171409;33.92;533;03.53.17.015
12872;171413;33.92;534;03.53.17.015
12896;171411;33.92;535;03.53.17.026
12876;171411;33.92;536;03.53.17.026
12900;171412;33.92;537;03.53.17.026
12876;171422;33.92;538;03.53.17.026
12900;171415;33.92;539;03.53.17.026
12860;171423;33.92;540;03.53.17.026
12936;171430;33.92;541;03.53.17.026
12900;171431;33.92;542;03.53.17.026
12884;171427;33.92;543;03.53.17.026
12904;171426;33.92;544;03.53.17.026
12892;171425;33.92;545;03.53.17.026
12860;171435;33.92;546;03.53.17.026
12896;171423;33.92;547;03.53.17.026
12908;171434;33.92;548;03.53.17.037
12920;171429;33.92;549;03.53.17.037
12884;171428;33.92;550;03.53.17.146
12860;171432;33.92;551;03.53.17.146
12888;171434;33.92;552;03.53.17.146
12932;171432;33.92;553;03.53.17.146
12900;171435;33.92;554;03.53.17.146
12876;171436;33.92;555;03.53.17.146
12896;171427;33.92;556;03.53.17.160
12904;171421;33.92;557;03.53.17.160
12876;171428;33.92;558;03.53.17.160
12888;171421;33.92;559;03.53.17.160
12896;171425;33.92;560;03.53.17.160
12928;171422;33.92;561;03.53.17.160
12900;171424;33.92;562;03.53.17.160
12912;171420;33.92;563;03.53.17.160
12896;171407;33.92;564;03.53.17.160
12900;171404;33.92;565;03.53.17.160
12904;171402;33.92;566;03.53.17.160
12892;171393;33.92;567;03.53.17.160
12896;171388;33.92;568;03.53.17.160
12896;171393;33.92;569;03.53.17.160
12928;171388;33.92;570;03.53.17.160
12880;171382;33.92;571;03.53.17.160
12892;171385;33.92;572;03.53.17.160
12900;171372;33.92;573;03.53.17.171
12904;171372;33.92;574;03.53.17.171
12900;171368;33.92;575;03.53.17.258
12884;171367;33.92;576;03.53.17.258
12908;171356;33.92;577;03.53.17.258
12892;171363;33.92;578;03.53.17.258
12868;171349;33.92;579;03.53.17.258
12912;171343;33.92;580;03.53.17.269
12916;171345;33.92;581;03.53.17.269
12884;171335;33.92;582;03.53.17.269
12896;171336;33.92;583;03.53.17.269
12876;171334;33.92;584;03.53.17.269
12884;171338;33.92;585;03.53.17.269
12872;171341;33.92;586;03.53.17.269
12900;171341;33.92;587;03.53.17.269
12888;171351;33.92;588;03.53.17.280
12876;171357;33.92;589;03.53.17.280
12928;171354;33.92;590;03.53.17.280
12860;171359;33.92;591;03.53.17.280
12892;171375;33.92;592;03.53.17.280
12868;171383;33.92;593;03.53.17.280
12904;171366;33.92;594;03.53.17.280
12884;171378;33.92;595;03.53.17.280
12892;171384;33.92;596;03.53.17.280
12888;171384;33.92;597;03.53.17.280
12888;171389;33.92;598;03.53.17.280
12904;171394;33.92;599;03.53.17.280
12904;171398;33.92;600;03.53.17.379
12888;171398;33.92;601;03.53.17.379
12888;171407;33.92;602;03.53.17.379
12884;171417;33.92;603;03.53.17.390
12928;171421;33.92;604;03.53.17.390
12896;171430;33.92;605;03.53.17.390
12896;171434;33.92;606;03.53.17.390
12912;171439;33.92;607;03.53.17.390
12916;171442;33.92;608;03.53.17.390
12888;171450;33.92;609;03.53.17.390
12892;171453;33.92;610;03.53.17.390
12888;171454;33.92;611;03.53.17.390
12892;171457;33.92;612;03.53.17.390
12912;171461;33.92;613;03.53.17.390
12904;171468;33.92;614;03.53.17.390
12904;171461;33.92;615;03.53.17.401
12912;171477;33.92;616;03.53.17.401
12888;171483;33.92;617;03.53.17.401
12880;171480;33.92;618;03.53.17.401
12892;171485;33.92;619;03.53.17.401
12912;171482;33.92;620;03.53.17.401
12888;171495;33.92;621;03.53.17.401
12892;171493;33.92;622;03.53.17.401
12884;171492;33.92;623;03.53.17.401
12900;171496;33.92;624;03.53.17.401
12908;171499;33.88;625;03.53.17.511
12884;171504;33.88;626;03.53.17.511
12912;171508;33.88;627;03.53.17.511
12916;171506;33.88;628;03.53.17.511
12888;171515;33.88;629;03.53.17.511
12876;171514;33.88;630;03.53.17.511
12880;171524;33.88;631;03.53.17.511
12888;171522;33.88;632;03.53.17.511
12872;171529;33.88;633;03.53.17.511
12896;171530;33.88;634;03.53.17.511
12928;171538;33.88;635;03.53.17.511
12896;171533;33.88;636;03.53.17.522
12912;171533;33.88;637;03.53.17.522
12884;171539;33.88;638;03.53.17.522
12880;171528;33.88;639;03.53.17.522
12884;171532;33.88;640;03.53.17.522
12884;171533;33.88;641;03.53.17.522
12932;171535;33.88;642;03.53.17.522
12876;171531;33.88;643;03.53.17.522
12904;171524;33.88;644;03.53.17.522
12892;171530;33.88;645;03.53.17.522
12908;171537;33.88;646;03.53.17.522
12880;171534;33.88;647;03.53.17.522
12884;171537;33.88;648;03.53.17.522
12888;171531;33.88;649;03.53.17.533
12892;171527;33.88;650;03.53.17.653
12908;171540;33.88;651;03.53.17.653
12888;171532;33.88;652;03.53.17.653
12904;171526;33.88;653;03.53.17.653
12876;171531;33.88;654;03.53.17.653
12884;171526;33.88;655;03.53.17.653
12884;171519;33.88;656;03.53.17.653
12896;171522;33.88;657;03.53.17.664
12876;171522;33.88;658;03.53.17.664
12904;171519;33.88;659;03.53.17.664
12904;171525;33.88;660;03.53.17.664
12872;171524;33.88;661;03.53.17.664
12908;171520;33.88;662;03.53.17.664
12876;171526;33.88;663;03.53.17.664
12916;171521;33.88;664;03.53.17.664
12912;171518;33.88;665;03.53.17.664
12912;171520;33.88;666;03.53.17.664
12936;171535;33.88;667;03.53.17.664
12872;171526;33.88;668;03.53.17.664
12900;171530;33.88;669;03.53.17.664
12888;171532;33.88;670;03.53.17.675
12928;171542;33.88;671;03.53.17.675
12928;171549;33.88;672;03.53.17.675
12876;171543;33.88;673;03.53.17.675
12936;171550;33.88;674;03.53.17.675
12888;171548;33.88;675;03.53.17.752
12884;171544;33.88;676;03.53.17.752
12860;171549;33.88;677;03.53.17.752
12900;171549;33.88;678;03.53.17.752
12928;171555;33.88;679;03.53.17.763
12896;171564;33.88;680;03.53.17.763
12888;171558;33.88;681;03.53.17.763
12900;171558;33.88;682;03.53.17.763
12888;171561;33.88;683;03.53.17.763
12892;171562;33.88;684;03.53.17.763
12896;171562;33.88;685;03.53.17.763
12896;171555;33.88;686;03.53.17.763
12908;171556;33.88;687;03.53.17.763
12896;171543;33.88;688;03.53.17.763
12884;171542;33.88;689;03.53.17.763
12888;171541;33.88;690;03.53.17.763
12876;171531;33.88;691;03.53.17.763
12896;171526;33.88;692;03.53.17.774
12884;171523;33.88;693;03.53.17.774
12900;171533;33.88;694;03.53.17.774
12884;171521;33.88;695;03.53.17.774
12896;171530;33.88;696;03.53.17.774
12884;171520;33.88;697;03.53.17.774
12880;171522;33.88;698;03.53.17.774
12920;171521;33.88;699;03.53.17.774
12912;171523;33.88;700;03.53.17.884
12876;171518;33.88;701;03.53.17.884
12880;171512;33.88;702;03.53.17.884
12912;171519;33.88;703;03.53.17.884
12912;171505;33.88;704;03.53.17.884
12924;171513;33.88;705;03.53.17.884
12888;171511;33.88;706;03.53.17.884
12884;171505;33.88;707;03.53.17.884
12908;171498;33.88;708;03.53.17.884
12896;171497;33.88;709;03.53.17.884
12880;171499;33.88;710;03.53.17.884
12884;171501;33.88;711;03.53.17.884
12904;171501;33.88;712;03.53.17.884
12880;171500;33.88;713;03.53.17.895
12928;171497;33.88;714;03.53.17.895
12892;171503;33.88;715;03.53.17.895
12884;171497;33.88;716;03.53.17.895
12876;171502;33.88;717;03.53.17.895
12884;171502;33.88;718;03.53.17.895
12908;171504;33.88;719;03.53.17.895
12884;171501;33.88;720;03.53.17.895
12880;171493;33.88;721;03.53.17.895
12900;171498;33.88;722;03.53.17.895
12896;171501;33.88;723;03.53.17.895
12928;171499;33.88;724;03.53.17.895
12884;171504;33.92;725;03.53.18.015
12896;171495;33.92;726;03.53.18.015
12912;171503;33.92;727;03.53.18.015
12904;171502;33.92;728;03.53.18.015
12900;171500;33.92;729;03.53.18.015
12904;171495;33.92;730;03.53.18.015
12896;171497;33.92;731;03.53.18.015
12904;171508;33.92;732;03.53.18.015
12904;171501;33.92;733;03.53.18.015
12892;171488;33.92;734;03.53.18.026
12884;171490;33.92;735;03.53.18.026
12892;171493;33.92;736;03.53.18.026
12876;171488;33.92;737;03.53.18.026
12880;171482;33.92;738;03.53.18.026
12900;171487;33.92;739;03.53.18.026
12884;171486;33.92;740;03.53.18.026
12860;171482;33.92;741;03.53.18.026
12892;171486;33.92;742;03.53.18.026
12884;171488;33.92;743;03.53.18.026
12884;171487;33.92;744;03.53.18.026
12904;171482;33.92;745;03.53.18.026
12892;171486;33.92;746;03.53.18.026
12900;171487;33.92;747;03.53.18.037
12904;171483;33.92;748;03.53.18.037
12916;171482;33.92;749;03.53.18.037
12896;171478;33.92;750;03.53.18.147
12900;171479;33.92;751;03.53.18.147
12896;171479;33.92;752;03.53.18.147
12928;171486;33.92;753;03.53.18.147
12892;171489;33.92;754;03.53.18.147
12904;171494;33.92;755;03.53.18.158
12876;171489;33.92;756;03.53.18.158
12868;171495;33.92;757;03.53.18.158
12900;171486;33.92;758;03.53.18.158
12892;171486;33.92;759;03.53.18.158
12896;171493;33.92;760;03.53.18.158
12908;171490;33.92;761;03.53.18.158
12884;171491;33.92;762;03.53.18.158
12904;171494;33.92;763;03.53.18.158
12876;171500;33.92;764;03.53.18.158
12904;171497;33.92;765;03.53.18.158
12888;171495;33.92;766;03.53.18.158
12912;171502;33.92;767;03.53.18.158
12892;171512;33.92;768;03.53.18.169
12928;171513;33.92;769;03.53.18.169
12892;171507;33.92;770;03.53.18.169
12888;171511;33.92;771;03.53.18.169
12860;171503;33.92;772;03.53.18.169
12880;171502;33.92;773;03.53.18.169
12920;171511;33.92;774;03.53.18.169
12872;171512;33.88;775;03.53.18.257
12900;171510;33.88;776;03.53.18.268
12900;171513;33.88;777;03.53.18.268
12872;171503;33.88;778;03.53.18.268
12908;171509;33.88;779;03.53.18.268
12876;171503;33.88;780;03.53.18.268
12908;171507;33.88;781;03.53.18.268
12884;171515;33.88;782;03.53.18.268
12892;171521;33.88;783;03.53.18.268
12896;171521;33.88;784;03.53.18.268
12900;171525;33.88;785;03.53.18.268
12928;171531;33.88;786;03.53.18.268
12884;171523;33.88;787;03.53.18.268
12904;171523;33.88;788;03.53.18.268
12908;171534;33.88;789;03.53.18.279
12892;171535;33.88;790;03.53.18.279
12872;171525;33.88;791;03.53.18.279
12904;171526;33.88;792;03.53.18.279
12896;171539;33.88;793;03.53.18.290
12888;171529;33.88;794;03.53.18.290
12876;171533;33.88;795;03.53.18.290
12924;171540;33.88;796;03.53.18.290
12916;171533;33.88;797;03.53.18.290
12896;171530;33.88;798;03.53.18.290
12924;171520;33.88;799;03.53.18.290
12896;171532;33.88;800;03.53.18.388
12904;171527;33.88;801;03.53.18.388
12900;171541;33.88;802;03.53.18.388
12892;171527;33.88;803;03.53.18.388
12860;171524;33.88;804;03.53.18.388
12884;171529;33.88;805;03.53.18.388
12896;171517;33.88;806;03.53.18.388
