Time,B_BVP,E_Skin_Cond
0.00048828125,0.000,6.683
0.00097656250,0.000,6.683
0.00146484375,0.000,6.683
0.00195312500,0.000,6.683
0.00244140625,0.001,6.683
0.00292968750,0.001,6.683
0.00341796875,0.002,6.683
0.00390625000,0.004,6.683
0.00439453125,0.006,6.683
0.00488281250,0.010,6.683
0.00537109375,0.014,6.683
0.00585937500,0.020,6.683
0.00634765625,0.027,6.683
0.00683593750,0.036,6.683
0.00732421875,0.047,6.683
0.00781250000,0.060,6.683
0.00830078125,0.075,6.683
0.00878906250,0.094,6.683
0.00927734375,0.115,6.683
0.00976562500,0.139,6.683
0.01025390625,0.167,6.683
0.01074218750,0.199,6.683
0.01123046875,0.235,6.683
0.01171875000,0.274,6.683
0.01220703125,0.319,6.683
0.01269531250,0.367,6.683
0.01318359375,0.421,6.683
0.01367187500,0.480,6.683
0.01416015625,0.544,6.683
0.01464843750,0.614,6.683
0.01513671875,0.690,6.683
0.01562500000,0.771,6.683
0.01611328125,0.859,6.683
0.01660156250,0.953,6.683
0.01708984375,1.053,6.683
0.01757812500,1.160,6.683
0.01806640625,1.274,6.683
0.01855468750,1.394,6.683
0.01904296875,1.522,6.683
0.01953125000,1.657,6.683
0.02001953125,1.799,6.683
0.02050781250,1.949,6.683
0.02099609375,2.106,6.683
0.02148437500,2.270,6.683
0.02197265625,2.442,6.683
0.02246093750,2.622,6.683
0.02294921875,2.809,6.683
0.02343750000,3.004,6.683
0.02392578125,3.207,6.683
0.02441406250,3.418,6.683
0.02490234375,3.636,6.683
0.02539062500,3.862,6.683
0.02587890625,4.095,6.683
0.02636718750,4.336,6.683
0.02685546875,4.585,6.683
0.02734375000,4.842,6.683
0.02783203125,5.105,6.683
0.02832031250,5.376,6.683
0.02880859375,5.655,6.683
0.02929687500,5.941,6.683
0.02978515625,6.233,6.683
0.03027343750,6.533,6.683
0.03076171875,6.840,6.683
0.03125000000,7.153,6.683
0.03173828125,7.473,6.683
0.03222656250,7.800,6.683
0.03271484375,8.132,6.683
0.03320312500,8.471,6.683
0.03369140625,8.816,6.683
0.03417968750,9.167,6.683
0.03466796875,9.523,6.683
0.03515625000,9.885,6.683
0.03564453125,10.252,6.684
0.03613281250,10.624,6.684
0.03662109375,11.001,6.684
0.03710937500,11.383,6.684
0.03759765625,11.769,6.684
0.03808593750,12.159,6.684
0.03857421875,12.554,6.684
0.03906250000,12.952,6.684
0.03955078125,13.354,6.684
0.04003906250,13.759,6.684
0.04052734375,14.167,6.684
0.04101562500,14.578,6.684
0.04150390625,14.992,6.684
0.04199218750,15.408,6.684
0.04248046875,15.827,6.684
0.04296875000,16.247,6.684
0.04345703125,16.670,6.684
0.04394531250,17.093,6.684
0.04443359375,17.518,6.684
0.04492187500,17.944,6.684
0.04541015625,18.371,6.684
0.04589843750,18.798,6.684
0.04638671875,19.226,6.684
0.04687500000,19.654,6.684
0.04736328125,20.081,6.684
0.04785156250,20.509,6.684
0.04833984375,20.935,6.684
0.04882812500,21.361,6.684
0.04931640625,21.786,6.684
0.04980468750,22.209,6.684
0.05029296875,22.631,6.684
0.05078125000,23.052,6.684
0.05126953125,23.470,6.685
0.05175781250,23.886,6.685
0.05224609375,24.300,6.685
0.05273437500,24.712,6.685
0.05322265625,25.121,6.685
0.05371093750,25.526,6.685
0.05419921875,25.929,6.685
0.05468750000,26.329,6.685
0.05517578125,26.725,6.685
0.05566406250,27.117,6.685
0.05615234375,27.505,6.685
0.05664062500,27.890,6.685
0.05712890625,28.270,6.685
0.05761718750,28.646,6.685
0.05810546875,29.018,6.685
0.05859375000,29.385,6.685
0.05908203125,29.747,6.685
0.05957031250,30.105,6.685
0.06005859375,30.457,6.685
0.06054687500,30.804,6.685
0.06103515625,31.146,6.685
0.06152343750,31.483,6.685
0.06201171875,31.814,6.685
0.06250000000,32.139,6.685
0.06298828125,32.459,6.685
0.06347656250,32.773,6.685
0.06396484375,33.081,6.685
0.06445312500,33.383,6.685
0.06494140625,33.680,6.685
0.06542968750,33.970,6.685
0.06591796875,34.253,6.685
0.06640625000,34.531,6.685
0.06689453125,34.802,6.686
0.06738281250,35.067,6.686
0.06787109375,35.325,6.686
0.06835937500,35.577,6.686
0.06884765625,35.823,6.686
0.06933593750,36.062,6.686
0.06982421875,36.294,6.686
0.07031250000,36.520,6.686
0.07080078125,36.739,6.686
0.07128906250,36.952,6.686
0.07177734375,37.158,6.686
0.07226562500,37.357,6.686
0.07275390625,37.550,6.686
0.07324218750,37.736,6.686
0.07373046875,37.916,6.686
0.07421875000,38.089,6.686
0.07470703125,38.256,6.686
0.07519531250,38.416,6.686
0.07568359375,38.569,6.686
0.07617187500,38.716,6.686
0.07666015625,38.857,6.686
0.07714843750,38.991,6.686
0.07763671875,39.119,6.686
0.07812500000,39.241,6.686
0.07861328125,39.356,6.687
0.07910156250,39.465,6.687
0.07958984375,39.569,6.687
0.08007812500,39.666,6.687
0.08056640625,39.757,6.687
0.08105468750,39.842,6.687
0.08154296875,39.921,6.687
0.08203125000,39.995,6.687
0.08251953125,40.063,6.687
0.08300781250,40.125,6.687
0.08349609375,40.182,6.687
0.08398437500,40.234,6.687
0.08447265625,40.280,6.687
0.08496093750,40.320,6.687
0.08544921875,40.356,6.687
0.08593750000,40.387,6.687
0.08642578125,40.412,6.688
0.08691406250,40.433,6.688
0.08740234375,40.449,6.688
0.08789062500,40.460,6.688
0.08837890625,40.467,6.688
0.08886718750,40.469,6.688
0.08935546875,40.467,6.688
0.08984375000,40.461,6.688
0.09033203125,40.451,6.688
0.09082031250,40.436,6.688
0.09130859375,40.418,6.688
0.09179687500,40.396,6.688
0.09228515625,40.370,6.688
0.09277343750,40.340,6.688
0.09326171875,40.307,6.688
0.09375000000,40.271,6.688
0.09423828125,40.231,6.688
0.09472656250,40.189,6.688
0.09521484375,40.143,6.688
0.09570312500,40.094,6.688
0.09619140625,40.043,6.688
0.09667968750,39.988,6.688
0.09716796875,39.932,6.688
0.09765625000,39.872,6.688
0.09814453125,39.811,6.689
0.09863281250,39.747,6.689
0.09912109375,39.681,6.689
0.09960937500,39.613,6.689
0.10009765625,39.543,6.689
0.10058593750,39.471,6.689
0.10107421875,39.398,6.689
0.10156250000,39.323,6.689
0.10205078125,39.246,6.689
0.10253906250,39.168,6.689
0.10302734375,39.089,6.689
0.10351562500,39.008,6.689
0.10400390625,38.926,6.689
0.10449218750,38.844,6.689
0.10498046875,38.760,6.689
0.10546875000,38.675,6.689
0.10595703125,38.590,6.690
0.10644531250,38.504,6.690
0.10693359375,38.418,6.690
0.10742187500,38.331,6.690
0.10791015625,38.243,6.690
0.10839843750,38.156,6.690
0.10888671875,38.068,6.690
0.10937500000,37.980,6.690
0.10986328125,37.892,6.690
0.11035156250,37.804,6.690
0.11083984375,37.716,6.690
0.11132812500,37.628,6.690
0.11181640625,37.540,6.690
0.11230468750,37.453,6.690
0.11279296875,37.365,6.690
0.11328125000,37.279,6.690
0.11376953125,37.193,6.691
0.11425781250,37.107,6.691
0.11474609375,37.022,6.691
0.11523437500,36.937,6.691
0.11572265625,36.854,6.691
0.11621093750,36.771,6.691
0.11669921875,36.689,6.691
0.11718750000,36.607,6.691
0.11767578125,36.527,6.691
0.11816406250,36.447,6.691
0.11865234375,36.369,6.691
0.11914062500,36.291,6.691
0.11962890625,36.215,6.691
0.12011718750,36.140,6.691
0.12060546875,36.065,6.691
0.12109375000,35.992,6.691
0.12158203125,35.921,6.692
0.12207031250,35.850,6.692
0.12255859375,35.780,6.692
0.12304687500,35.712,6.692
0.12353515625,35.646,6.692
0.12402343750,35.580,6.692
0.12451171875,35.516,6.692
0.12500000000,35.453,6.692
0.12548828125,35.391,6.692
0.12597656250,35.331,6.692
0.12646484375,35.273,6.692
0.12695312500,35.215,6.692
0.12744140625,35.159,6.692
0.12792968750,35.105,6.692
0.12841796875,35.052,6.692
0.12890625000,35.000,6.692
0.12939453125,34.950,6.693
0.12988281250,34.901,6.693
0.13037109375,34.854,6.693
0.13085937500,34.808,6.693
0.13134765625,34.764,6.693
0.13183593750,34.721,6.693
0.13232421875,34.679,6.693
0.13281250000,34.639,6.693
0.13330078125,34.600,6.694
0.13378906250,34.562,6.694
0.13427734375,34.526,6.694
0.13476562500,34.492,6.694
0.13525390625,34.458,6.694
0.13574218750,34.426,6.694
0.13623046875,34.396,6.694
0.13671875000,34.366,6.694
0.13720703125,34.338,6.694
0.13769531250,34.312,6.694
0.13818359375,34.286,6.694
0.13867187500,34.262,6.694
0.13916015625,34.239,6.694
0.13964843750,34.217,6.694
0.14013671875,34.197,6.694
0.14062500000,34.177,6.694
0.14111328125,34.159,6.694
0.14160156250,34.142,6.694
0.14208984375,34.126,6.694
0.14257812500,34.111,6.694
0.14306640625,34.097,6.694
0.14355468750,34.084,6.694
0.14404296875,34.072,6.694
0.14453125000,34.061,6.694
0.14501953125,34.051,6.695
0.14550781250,34.042,6.695
0.14599609375,34.034,6.695
0.14648437500,34.026,6.695
0.14697265625,34.020,6.695
0.14746093750,34.014,6.695
0.14794921875,34.009,6.695
0.14843750000,34.005,6.695
0.14892578125,34.002,6.696
0.14941406250,33.999,6.696
0.14990234375,33.997,6.696
0.15039062500,33.996,6.696
0.15087890625,33.995,6.696
0.15136718750,33.995,6.696
0.15185546875,33.996,6.696
0.15234375000,33.997,6.696
0.15283203125,33.998,6.696
0.15332031250,34.001,6.696
0.15380859375,34.003,6.696
0.15429687500,34.006,6.696
0.15478515625,34.010,6.696
0.15527343750,34.013,6.696
0.15576171875,34.018,6.696
0.15625000000,34.022,6.696
0.15673828125,34.027,6.697
0.15722656250,34.032,6.697
0.15771484375,34.038,6.697
0.15820312500,34.043,6.697
0.15869140625,34.049,6.697
0.15917968750,34.056,6.697
0.15966796875,34.062,6.697
0.16015625000,34.068,6.697
0.16064453125,34.075,6.697
0.16113281250,34.082,6.697
0.16162109375,34.089,6.697
0.16210937500,34.095,6.697
0.16259765625,34.102,6.697
0.16308593750,34.109,6.697
0.16357421875,34.116,6.697
0.16406250000,34.123,6.697
0.16455078125,34.130,6.698
0.16503906250,34.137,6.698
0.16552734375,34.144,6.698
0.16601562500,34.151,6.698
0.16650390625,34.157,6.698
0.16699218750,34.164,6.698
0.16748046875,34.170,6.698
0.16796875000,34.176,6.698
0.16845703125,34.182,6.699
0.16894531250,34.188,6.699
0.16943359375,34.194,6.699
0.16992187500,34.199,6.699
0.17041015625,34.205,6.699
0.17089843750,34.210,6.699
0.17138671875,34.214,6.699
0.17187500000,34.219,6.699
0.17236328125,34.223,6.699
0.17285156250,34.227,6.699
0.17333984375,34.231,6.699
0.17382812500,34.234,6.699
0.17431640625,34.237,6.699
0.17480468750,34.240,6.699
0.17529296875,34.242,6.699
0.17578125000,34.244,6.699
0.17626953125,34.246,6.700
0.17675781250,34.247,6.700
0.17724609375,34.248,6.700
0.17773437500,34.249,6.700
0.17822265625,34.249,6.700
0.17871093750,34.249,6.700
0.17919921875,34.248,6.700
0.17968750000,34.247,6.700
0.18017578125,34.246,6.700
0.18066406250,34.244,6.700
0.18115234375,34.242,6.700
0.18164062500,34.239,6.700
0.18212890625,34.236,6.700
0.18261718750,34.233,6.700
0.18310546875,34.229,6.700
0.18359375000,34.225,6.700
0.18408203125,34.220,6.701
0.18457031250,34.215,6.701
0.18505859375,34.210,6.701
0.18554687500,34.204,6.701
0.18603515625,34.198,6.701
0.18652343750,34.191,6.701
0.18701171875,34.184,6.701
0.18750000000,34.177,6.701
0.18798828125,34.169,6.702
0.18847656250,34.161,6.702
0.18896484375,34.152,6.702
0.18945312500,34.143,6.702
0.18994140625,34.134,6.702
0.19042968750,34.124,6.702
0.19091796875,34.114,6.702
0.19140625000,34.104,6.702
0.19189453125,34.093,6.703
0.19238281250,34.082,6.703
0.19287109375,34.070,6.703
0.19335937500,34.058,6.703
0.19384765625,34.046,6.703
0.19433593750,34.034,6.703
0.19482421875,34.021,6.703
0.19531250000,34.008,6.703
0.19580078125,33.994,6.703
0.19628906250,33.981,6.703
0.19677734375,33.967,6.703
0.19726562500,33.952,6.703
0.19775390625,33.938,6.703
0.19824218750,33.923,6.703
0.19873046875,33.908,6.703
0.19921875000,33.892,6.703
0.19970703125,33.877,6.704
0.20019531250,33.861,6.704
0.20068359375,33.845,6.704
0.20117187500,33.829,6.704
0.20166015625,33.812,6.704
0.20214843750,33.795,6.704
0.20263671875,33.779,6.704
0.20312500000,33.761,6.704
0.20361328125,33.744,6.705
0.20410156250,33.727,6.705
0.20458984375,33.709,6.705
0.20507812500,33.692,6.705
0.20556640625,33.674,6.705
0.20605468750,33.656,6.705
0.20654296875,33.638,6.705
0.20703125000,33.620,6.705
0.20751953125,33.601,6.706
0.20800781250,33.583,6.706
0.20849609375,33.565,6.706
0.20898437500,33.546,6.706
0.20947265625,33.528,6.706
0.20996093750,33.509,6.706
0.21044921875,33.490,6.706
0.21093750000,33.472,6.706
0.21142578125,33.453,6.706
0.21191406250,33.434,6.706
0.21240234375,33.416,6.706
0.21289062500,33.397,6.706
0.21337890625,33.378,6.706
0.21386718750,33.359,6.706
0.21435546875,33.341,6.706
0.21484375000,33.322,6.706
0.21533203125,33.304,6.707
0.21582031250,33.285,6.707
0.21630859375,33.267,6.707
0.21679687500,33.248,6.707
0.21728515625,33.230,6.707
0.21777343750,33.212,6.707
0.21826171875,33.194,6.707
0.21875000000,33.176,6.707
0.21923828125,33.158,6.708
0.21972656250,33.140,6.708
0.22021484375,33.122,6.708
0.22070312500,33.105,6.708
0.22119140625,33.087,6.708
0.22167968750,33.070,6.708
0.22216796875,33.053,6.708
0.22265625000,33.036,6.708
0.22314453125,33.019,6.708
0.22363281250,33.003,6.708
0.22412109375,32.987,6.708
0.22460937500,32.970,6.708
0.22509765625,32.954,6.708
0.22558593750,32.939,6.708
0.22607421875,32.923,6.708
0.22656250000,32.908,6.708
0.22705078125,32.892,6.710
0.22753906250,32.877,6.710
0.22802734375,32.863,6.710
0.22851562500,32.848,6.710
0.22900390625,32.834,6.710
0.22949218750,32.820,6.710
0.22998046875,32.806,6.710
0.23046875000,32.793,6.710
0.23095703125,32.779,6.710
0.23144531250,32.766,6.710
0.23193359375,32.754,6.710
0.23242187500,32.741,6.710
0.23291015625,32.729,6.710
0.23339843750,32.717,6.710
0.23388671875,32.705,6.710
0.23437500000,32.694,6.710
0.23486328125,32.683,6.711
0.23535156250,32.672,6.711
0.23583984375,32.661,6.711
0.23632812500,32.651,6.711
0.23681640625,32.641,6.711
0.23730468750,32.631,6.711
0.23779296875,32.622,6.711
0.23828125000,32.612,6.711
0.23876953125,32.603,6.712
0.23925781250,32.595,6.712
0.23974609375,32.586,6.712
0.24023437500,32.578,6.712
0.24072265625,32.571,6.712
0.24121093750,32.563,6.712
0.24169921875,32.556,6.712
0.24218750000,32.549,6.712
0.24267578125,32.542,6.712
0.24316406250,32.536,6.712
0.24365234375,32.530,6.712
0.24414062500,32.524,6.712
0.24462890625,32.518,6.712
0.24511718750,32.513,6.712
0.24560546875,32.508,6.712
0.24609375000,32.503,6.712
0.24658203125,32.499,6.713
0.24707031250,32.495,6.713
0.24755859375,32.491,6.713
0.24804687500,32.487,6.713
0.24853515625,32.484,6.713
0.24902343750,32.481,6.713
0.24951171875,32.478,6.713
0.25000000000,32.475,6.713
0.25048828125,32.473,6.714
0.25097656250,32.471,6.714
0.25146484375,32.469,6.714
0.25195312500,32.467,6.714
0.25244140625,32.466,6.714
0.25292968750,32.465,6.714
0.25341796875,32.464,6.714
0.25390625000,32.464,6.714
0.25439453125,32.463,6.715
0.25488281250,32.463,6.715
0.25537109375,32.463,6.715
0.25585937500,32.464,6.715
0.25634765625,32.464,6.715
0.25683593750,32.465,6.715
0.25732421875,32.466,6.715
0.25781250000,32.468,6.715
0.25830078125,32.469,6.716
0.25878906250,32.471,6.716
0.25927734375,32.473,6.716
0.25976562500,32.475,6.716
0.26025390625,32.477,6.716
0.26074218750,32.480,6.716
0.26123046875,32.483,6.716
0.26171875000,32.486,6.716
0.26220703125,32.489,6.717
0.26269531250,32.492,6.717
0.26318359375,32.496,6.717
0.26367187500,32.500,6.717
0.26416015625,32.504,6.717
0.26464843750,32.508,6.717
0.26513671875,32.512,6.717
0.26562500000,32.516,6.717
0.26611328125,32.521,6.718
0.26660156250,32.526,6.718
0.26708984375,32.531,6.718
0.26757812500,32.536,6.718
0.26806640625,32.541,6.718
0.26855468750,32.547,6.718
0.26904296875,32.553,6.718
0.26953125000,32.558,6.718
0.27001953125,32.564,6.719
0.27050781250,32.570,6.719
0.27099609375,32.576,6.719
0.27148437500,32.583,6.719
0.27197265625,32.589,6.719
0.27246093750,32.596,6.719
0.27294921875,32.603,6.719
0.27343750000,32.609,6.719
0.27392578125,32.616,6.719
0.27441406250,32.624,6.719
0.27490234375,32.631,6.719
0.27539062500,32.638,6.719
0.27587890625,32.645,6.719
0.27636718750,32.653,6.719
0.27685546875,32.661,6.719
0.27734375000,32.668,6.719
0.27783203125,32.676,6.720
0.27832031250,32.684,6.720
0.27880859375,32.692,6.720
0.27929687500,32.700,6.720
0.27978515625,32.708,6.720
0.28027343750,32.717,6.720
0.28076171875,32.725,6.720
0.28125000000,32.734,6.720
0.28173828125,32.742,6.721
0.28222656250,32.751,6.721
0.28271484375,32.759,6.721
0.28320312500,32.768,6.721
0.28369140625,32.777,6.721
0.28417968750,32.786,6.721
0.28466796875,32.795,6.721
0.28515625000,32.804,6.721
0.28564453125,32.813,6.722
0.28613281250,32.822,6.722
0.28662109375,32.831,6.722
0.28710937500,32.840,6.722
0.28759765625,32.849,6.722
0.28808593750,32.858,6.722
0.28857421875,32.868,6.722
0.28906250000,32.877,6.722
0.28955078125,32.886,6.723
0.29003906250,32.896,6.723
0.29052734375,32.905,6.723
0.29101562500,32.915,6.723
0.29150390625,32.924,6.723
0.29199218750,32.934,6.723
0.29248046875,32.943,6.723
0.29296875000,32.953,6.723
0.29345703125,32.962,6.724
0.29394531250,32.972,6.724
0.29443359375,32.981,6.724
0.29492187500,32.991,6.724
0.29541015625,33.000,6.724
0.29589843750,33.010,6.724
0.29638671875,33.020,6.724
0.29687500000,33.029,6.724
0.29736328125,33.039,6.725
0.29785156250,33.048,6.725
0.29833984375,33.058,6.725
0.29882812500,33.067,6.725
0.29931640625,33.077,6.725
0.29980468750,33.086,6.725
0.30029296875,33.096,6.725
0.30078125000,33.105,6.725
0.30126953125,33.115,6.726
0.30175781250,33.124,6.726
0.30224609375,33.134,6.726
0.30273437500,33.143,6.726
0.30322265625,33.152,6.726
0.30371093750,33.161,6.726
0.30419921875,33.171,6.726
0.30468750000,33.180,6.726
0.30517578125,33.189,6.727
0.30566406250,33.198,6.727
0.30615234375,33.207,6.727
0.30664062500,33.216,6.727
0.30712890625,33.225,6.727
0.30761718750,33.234,6.727
0.30810546875,33.243,6.727
0.30859375000,33.251,6.727
0.30908203125,33.260,6.728
0.30957031250,33.268,6.728
0.31005859375,33.277,6.728
0.31054687500,33.285,6.728
0.31103515625,33.294,6.728
0.31152343750,33.302,6.728
0.31201171875,33.310,6.728
0.31250000000,33.318,6.728
0.31298828125,33.327,6.729
0.31347656250,33.335,6.729
0.31396484375,33.342,6.729
0.31445312500,33.350,6.729
0.31494140625,33.358,6.729
0.31542968750,33.366,6.729
0.31591796875,33.373,6.729
0.31640625000,33.381,6.729
0.31689453125,33.388,6.730
0.31738281250,33.395,6.730
0.31787109375,33.402,6.730
0.31835937500,33.409,6.730
0.31884765625,33.416,6.730
0.31933593750,33.423,6.730
0.31982421875,33.430,6.730
0.32031250000,33.437,6.730
0.32080078125,33.443,6.731
0.32128906250,33.450,6.731
0.32177734375,33.456,6.731
0.32226562500,33.462,6.731
0.32275390625,33.468,6.731
0.32324218750,33.475,6.731
0.32373046875,33.480,6.731
0.32421875000,33.486,6.731
0.32470703125,33.492,6.732
0.32519531250,33.498,6.732
0.32568359375,33.503,6.732
0.32617187500,33.508,6.732
0.32666015625,33.514,6.732
0.32714843750,33.519,6.732
0.32763671875,33.524,6.732
0.32812500000,33.529,6.732
0.32861328125,33.533,6.733
0.32910156250,33.538,6.733
0.32958984375,33.542,6.733
0.33007812500,33.547,6.733
0.33056640625,33.551,6.733
0.33105468750,33.555,6.733
0.33154296875,33.559,6.733
0.33203125000,33.563,6.733
0.33251953125,33.567,6.734
0.33300781250,33.570,6.734
0.33349609375,33.574,6.734
0.33398437500,33.577,6.734
0.33447265625,33.580,6.734
0.33496093750,33.583,6.734
0.33544921875,33.586,6.734
0.33593750000,33.589,6.734
0.33642578125,33.591,6.734
0.33691406250,33.594,6.734
0.33740234375,33.596,6.734
0.33789062500,33.598,6.734
0.33837890625,33.600,6.734
0.33886718750,33.602,6.734
0.33935546875,33.604,6.734
0.33984375000,33.605,6.734
0.34033203125,33.607,6.735
0.34082031250,33.608,6.735
0.34130859375,33.609,6.735
0.34179687500,33.610,6.735
0.34228515625,33.611,6.735
0.34277343750,33.611,6.735
0.34326171875,33.612,6.735
0.34375000000,33.612,6.735
0.34423828125,33.612,6.736
0.34472656250,33.612,6.736
0.34521484375,33.612,6.736
0.34570312500,33.612,6.736
0.34619140625,33.612,6.736
0.34667968750,33.611,6.736
0.34716796875,33.610,6.736
0.34765625000,33.609,6.736
0.34814453125,33.608,6.737
0.34863281250,33.607,6.737
0.34912109375,33.606,6.737
0.34960937500,33.604,6.737
0.35009765625,33.602,6.737
0.35058593750,33.601,6.737
0.35107421875,33.599,6.737
0.35156250000,33.596,6.737
0.35205078125,33.594,6.738
0.35253906250,33.592,6.738
0.35302734375,33.589,6.738
0.35351562500,33.586,6.738
0.35400390625,33.584,6.738
0.35449218750,33.581,6.738
0.35498046875,33.577,6.738
0.35546875000,33.574,6.738
0.35595703125,33.571,6.739
0.35644531250,33.567,6.739
0.35693359375,33.564,6.739
0.35742187500,33.560,6.739
0.35791015625,33.556,6.739
0.35839843750,33.552,6.739
0.35888671875,33.547,6.739
0.35937500000,33.543,6.739
0.35986328125,33.539,6.740
0.36035156250,33.534,6.740
0.36083984375,33.529,6.740
0.36132812500,33.524,6.740
0.36181640625,33.519,6.740
0.36230468750,33.514,6.740
0.36279296875,33.509,6.740
0.36328125000,33.504,6.740
0.36376953125,33.498,6.741
0.36425781250,33.493,6.741
0.36474609375,33.487,6.741
0.36523437500,33.481,6.741
0.36572265625,33.475,6.741
0.36621093750,33.469,6.741
0.36669921875,33.463,6.741
0.36718750000,33.457,6.741
0.36767578125,33.450,6.742
0.36816406250,33.444,6.742
0.36865234375,33.437,6.742
0.36914062500,33.431,6.742
0.36962890625,33.424,6.742
0.37011718750,33.417,6.742
0.37060546875,33.410,6.742
0.37109375000,33.403,6.742
0.37158203125,33.396,6.743
0.37207031250,33.389,6.743
0.37255859375,33.381,6.743
0.37304687500,33.374,6.743
0.37353515625,33.366,6.743
0.37402343750,33.359,6.743
0.37451171875,33.351,6.743
0.37500000000,33.343,6.743
0.37548828125,33.335,6.743
0.37597656250,33.327,6.743
0.37646484375,33.319,6.743
0.37695312500,33.311,6.743
0.37744140625,33.303,6.743
0.37792968750,33.295,6.743
0.37841796875,33.287,6.743
0.37890625000,33.278,6.743
0.37939453125,33.270,6.744
0.37988281250,33.261,6.744
0.38037109375,33.252,6.744
0.38085937500,33.244,6.744
0.38134765625,33.235,6.744
0.38183593750,33.226,6.744
0.38232421875,33.217,6.744
0.38281250000,33.208,6.744
0.38330078125,33.199,6.745
0.38378906250,33.190,6.745
0.38427734375,33.181,6.745
0.38476562500,33.172,6.745
0.38525390625,33.163,6.745
0.38574218750,33.154,6.745
0.38623046875,33.144,6.745
0.38671875000,33.135,6.745
0.38720703125,33.126,6.746
0.38769531250,33.116,6.746
0.38818359375,33.107,6.746
0.38867187500,33.097,6.746
0.38916015625,33.087,6.746
0.38964843750,33.078,6.746
0.39013671875,33.068,6.746
0.39062500000,33.058,6.746
0.39111328125,33.049,6.747
0.39160156250,33.039,6.747
0.39208984375,33.029,6.747
0.39257812500,33.019,6.747
0.39306640625,33.009,6.747
0.39355468750,32.999,6.747
0.39404296875,32.989,6.747
0.39453125000,32.979,6.747
0.39501953125,32.969,6.747
0.39550781250,32.959,6.747
0.39599609375,32.949,6.747
0.39648437500,32.939,6.747
0.39697265625,32.929,6.747
0.39746093750,32.918,6.747
0.39794921875,32.908,6.747
0.39843750000,32.898,6.747
0.39892578125,32.888,6.748
0.39941406250,32.878,6.748
0.39990234375,32.867,6.748
0.40039062500,32.857,6.748
0.40087890625,32.847,6.748
0.40136718750,32.836,6.748
0.40185546875,32.826,6.748
0.40234375000,32.815,6.748
0.40283203125,32.805,6.749
0.40332031250,32.795,6.749
0.40380859375,32.784,6.749
0.40429687500,32.774,6.749
0.40478515625,32.763,6.749
0.40527343750,32.753,6.749
0.40576171875,32.742,6.749
0.40625000000,32.732,6.749
0.40673828125,32.721,6.750
0.40722656250,32.711,6.750
0.40771484375,32.700,6.750
0.40820312500,32.690,6.750
0.40869140625,32.679,6.750
0.40917968750,32.669,6.750
0.40966796875,32.658,6.750
0.41015625000,32.648,6.750
0.41064453125,32.637,6.751
0.41113281250,32.627,6.751
0.41162109375,32.616,6.751
0.41210937500,32.606,6.751
0.41259765625,32.595,6.751
0.41308593750,32.585,6.751
0.41357421875,32.574,6.751
0.41406250000,32.564,6.751
0.41455078125,32.553,6.751
0.41503906250,32.543,6.751
0.41552734375,32.532,6.751
0.41601562500,32.522,6.751
0.41650390625,32.511,6.751
0.41699218750,32.501,6.751
0.41748046875,32.490,6.751
0.41796875000,32.480,6.751
0.41845703125,32.469,6.752
0.41894531250,32.459,6.752
0.41943359375,32.448,6.752
0.41992187500,32.438,6.752
0.42041015625,32.427,6.752
0.42089843750,32.417,6.752
0.42138671875,32.407,6.752
0.42187500000,32.396,6.752
0.42236328125,32.386,6.753
0.42285156250,32.376,6.753
0.42333984375,32.365,6.753
0.42382812500,32.355,6.753
0.42431640625,32.345,6.753
0.42480468750,32.334,6.753
0.42529296875,32.324,6.753
0.42578125000,32.314,6.753
0.42626953125,32.303,6.754
0.42675781250,32.293,6.754
0.42724609375,32.283,6.754
0.42773437500,32.273,6.754
0.42822265625,32.263,6.754
0.42871093750,32.252,6.754
0.42919921875,32.242,6.754
0.42968750000,32.232,6.754
0.43017578125,32.222,6.755
0.43066406250,32.212,6.755
0.43115234375,32.202,6.755
0.43164062500,32.192,6.755
0.43212890625,32.182,6.755
0.43261718750,32.172,6.755
0.43310546875,32.162,6.755
0.43359375000,32.152,6.755
0.43408203125,32.142,6.755
0.43457031250,32.133,6.755
0.43505859375,32.123,6.755
0.43554687500,32.113,6.755
0.43603515625,32.103,6.755
0.43652343750,32.094,6.755
0.43701171875,32.084,6.755
0.43750000000,32.074,6.755
0.43798828125,32.065,6.756
0.43847656250,32.055,6.756
0.43896484375,32.045,6.756
0.43945312500,32.036,6.756
0.43994140625,32.026,6.756
0.44042968750,32.017,6.756
0.44091796875,32.007,6.756
0.44140625000,31.998,6.756
0.44189453125,31.988,6.757
0.44238281250,31.979,6.757
0.44287109375,31.970,6.757
0.44335937500,31.960,6.757
0.44384765625,31.951,6.757
0.44433593750,31.942,6.757
0.44482421875,31.933,6.757
0.44531250000,31.924,6.757
0.44580078125,31.914,6.758
0.44628906250,31.905,6.758
0.44677734375,31.896,6.758
0.44726562500,31.887,6.758
0.44775390625,31.878,6.758
0.44824218750,31.869,6.758
0.44873046875,31.860,6.758
0.44921875000,31.852,6.758
0.44970703125,31.843,6.759
0.45019531250,31.834,6.759
0.45068359375,31.825,6.759
0.45117187500,31.817,6.759
0.45166015625,31.808,6.759
0.45214843750,31.799,6.759
0.45263671875,31.791,6.759
0.45312500000,31.782,6.759
0.45361328125,31.774,6.759
0.45410156250,31.765,6.759
0.45458984375,31.757,6.759
0.45507812500,31.748,6.759
0.45556640625,31.740,6.759
0.45605468750,31.732,6.759
0.45654296875,31.724,6.759
0.45703125000,31.716,6.759
0.45751953125,31.707,6.760
0.45800781250,31.699,6.760
0.45849609375,31.691,6.760
0.45898437500,31.683,6.760
0.45947265625,31.675,6.760
0.45996093750,31.668,6.760
0.46044921875,31.660,6.760
0.46093750000,31.652,6.760
0.46142578125,31.644,6.761
0.46191406250,31.637,6.761
0.46240234375,31.629,6.761
0.46289062500,31.621,6.761
0.46337890625,31.614,6.761
0.46386718750,31.606,6.761
0.46435546875,31.599,6.761
0.46484375000,31.592,6.761
0.46533203125,31.584,6.761
0.46582031250,31.577,6.761
0.46630859375,31.570,6.761
0.46679687500,31.563,6.761
0.46728515625,31.556,6.761
0.46777343750,31.549,6.761
0.46826171875,31.542,6.761
0.46875000000,31.535,6.761
0.46923828125,31.528,6.762
0.46972656250,31.521,6.762
0.47021484375,31.514,6.762
0.47070312500,31.507,6.762
0.47119140625,31.500,6.762
0.47167968750,31.494,6.762
0.47216796875,31.487,6.762
0.47265625000,31.480,6.762
0.47314453125,31.474,6.763
0.47363281250,31.467,6.763
0.47412109375,31.461,6.763
0.47460937500,31.454,6.763
0.47509765625,31.448,6.763
0.47558593750,31.442,6.763
0.47607421875,31.435,6.763
0.47656250000,31.429,6.763
0.47705078125,31.423,6.764
0.47753906250,31.416,6.764
0.47802734375,31.410,6.764
0.47851562500,31.404,6.764
0.47900390625,31.398,6.764
0.47949218750,31.392,6.764
0.47998046875,31.386,6.764
0.48046875000,31.380,6.764
0.48095703125,31.374,6.764
0.48144531250,31.368,6.764
0.48193359375,31.362,6.764
0.48242187500,31.356,6.764
0.48291015625,31.351,6.764
0.48339843750,31.345,6.764
0.48388671875,31.339,6.764
0.48437500000,31.333,6.764
0.48486328125,31.327,6.765
0.48535156250,31.322,6.765
0.48583984375,31.316,6.765
0.48632812500,31.311,6.765
0.48681640625,31.305,6.765
0.48730468750,31.299,6.765
0.48779296875,31.294,6.765
0.48828125000,31.288,6.765
0.48876953125,31.283,6.766
0.48925781250,31.277,6.766
0.48974609375,31.272,6.766
0.49023437500,31.267,6.766
0.49072265625,31.261,6.766
0.49121093750,31.256,6.766
0.49169921875,31.250,6.766
0.49218750000,31.245,6.766
0.49267578125,31.240,6.767
0.49316406250,31.235,6.767
0.49365234375,31.229,6.767
0.49414062500,31.224,6.767
0.49462890625,31.219,6.767
0.49511718750,31.214,6.767
0.49560546875,31.209,6.767
0.49609375000,31.204,6.767
0.49658203125,31.199,6.767
0.49707031250,31.194,6.767
0.49755859375,31.188,6.767
0.49804687500,31.183,6.767
0.49853515625,31.179,6.767
0.49902343750,31.174,6.767
0.49951171875,31.169,6.767
0.50000000000,31.164,6.767
0.50048828125,31.159,6.768
0.50097656250,31.154,6.768
0.50146484375,31.149,6.768
0.50195312500,31.144,6.768
0.50244140625,31.140,6.768
0.50292968750,31.135,6.768
0.50341796875,31.130,6.768
0.50390625000,31.125,6.768
0.50439453125,31.121,6.769
0.50488281250,31.116,6.769
0.50537109375,31.111,6.769
0.50585937500,31.107,6.769
0.50634765625,31.102,6.769
0.50683593750,31.097,6.769
0.50732421875,31.093,6.769
0.50781250000,31.088,6.769
0.50830078125,31.084,6.770
0.50878906250,31.079,6.770
0.50927734375,31.074,6.770
0.50976562500,31.070,6.770
0.51025390625,31.065,6.770
0.51074218750,31.061,6.770
0.51123046875,31.056,6.770
0.51171875000,31.052,6.770
0.51220703125,31.047,6.771
0.51269531250,31.043,6.771
0.51318359375,31.038,6.771
0.51367187500,31.034,6.771
0.51416015625,31.029,6.771
0.51464843750,31.025,6.771
0.51513671875,31.020,6.771
0.51562500000,31.016,6.771
0.51611328125,31.011,6.771
0.51660156250,31.007,6.771
0.51708984375,31.002,6.771
0.51757812500,30.998,6.771
0.51806640625,30.993,6.771
0.51855468750,30.989,6.771
0.51904296875,30.984,6.771
0.51953125000,30.979,6.771
0.52001953125,30.975,6.772
0.52050781250,30.970,6.772
0.52099609375,30.966,6.772
0.52148437500,30.961,6.772
0.52197265625,30.956,6.772
0.52246093750,30.951,6.772
0.52294921875,30.947,6.772
0.52343750000,30.942,6.772
0.52392578125,30.937,6.773
0.52441406250,30.932,6.773
0.52490234375,30.928,6.773
0.52539062500,30.923,6.773
0.52587890625,30.918,6.773
0.52636718750,30.913,6.773
0.52685546875,30.908,6.773
0.52734375000,30.903,6.773
0.52783203125,30.898,6.774
0.52832031250,30.893,6.774
0.52880859375,30.888,6.774
0.52929687500,30.883,6.774
0.52978515625,30.878,6.774
0.53027343750,30.873,6.774
0.53076171875,30.868,6.774
0.53125000000,30.863,6.774
0.53173828125,30.858,6.775
0.53222656250,30.853,6.775
0.53271484375,30.848,6.775
0.53320312500,30.842,6.775
0.53369140625,30.837,6.775
0.53417968750,30.832,6.775
0.53466796875,30.827,6.775
0.53515625000,30.821,6.775
0.53564453125,30.816,6.775
0.53613281250,30.811,6.775
0.53662109375,30.805,6.775
0.53710937500,30.800,6.775
0.53759765625,30.795,6.775
0.53808593750,30.789,6.775
0.53857421875,30.784,6.775
0.53906250000,30.778,6.775
0.53955078125,30.773,6.776
0.54003906250,30.768,6.776
0.54052734375,30.762,6.776
0.54101562500,30.757,6.776
0.54150390625,30.751,6.776
0.54199218750,30.746,6.776
0.54248046875,30.740,6.776
0.54296875000,30.734,6.776
0.54345703125,30.729,6.777
0.54394531250,30.723,6.777
0.54443359375,30.718,6.777
0.54492187500,30.712,6.777
0.54541015625,30.707,6.777
0.54589843750,30.701,6.777
0.54638671875,30.695,6.777
0.54687500000,30.690,6.777
0.54736328125,30.684,6.778
0.54785156250,30.679,6.778
0.54833984375,30.673,6.778
0.54882812500,30.667,6.778
0.54931640625,30.662,6.778
0.54980468750,30.656,6.778
0.55029296875,30.650,6.778
0.55078125000,30.645,6.778
0.55126953125,30.639,6.779
0.55175781250,30.634,6.779
0.55224609375,30.628,6.779
0.55273437500,30.622,6.779
0.55322265625,30.617,6.779
0.55371093750,30.611,6.779
0.55419921875,30.605,6.779
0.55468750000,30.600,6.779
0.55517578125,30.594,6.779
0.55566406250,30.588,6.779
0.55615234375,30.583,6.779
0.55664062500,30.577,6.779
0.55712890625,30.571,6.779
0.55761718750,30.566,6.779
0.55810546875,30.560,6.779
0.55859375000,30.554,6.779
0.55908203125,30.549,6.780
0.55957031250,30.543,6.780
0.56005859375,30.538,6.780
0.56054687500,30.532,6.780
0.56103515625,30.527,6.780
0.56152343750,30.521,6.780
0.56201171875,30.515,6.780
0.56250000000,30.510,6.780
0.56298828125,30.504,6.781
0.56347656250,30.499,6.781
0.56396484375,30.494,6.781
0.56445312500,30.488,6.781
0.56494140625,30.483,6.781
0.56542968750,30.477,6.781
0.56591796875,30.472,6.781
0.56640625000,30.466,6.781
0.56689453125,30.461,6.782
0.56738281250,30.456,6.782
0.56787109375,30.450,6.782
0.56835937500,30.445,6.782
0.56884765625,30.440,6.782
0.56933593750,30.435,6.782
0.56982421875,30.429,6.782
0.57031250000,30.424,6.782
0.57080078125,30.419,6.782
0.57128906250,30.414,6.782
0.57177734375,30.409,6.782
0.57226562500,30.404,6.782
0.57275390625,30.399,6.782
0.57324218750,30.394,6.782
0.57373046875,30.389,6.782
0.57421875000,30.384,6.782
0.57470703125,30.379,6.783
0.57519531250,30.374,6.783
0.57568359375,30.369,6.783
0.57617187500,30.364,6.783
0.57666015625,30.359,6.783
0.57714843750,30.355,6.783
0.57763671875,30.350,6.783
0.57812500000,30.345,6.783
0.57861328125,30.340,6.784
0.57910156250,30.336,6.784
0.57958984375,30.331,6.784
0.58007812500,30.326,6.784
0.58056640625,30.322,6.784
0.58105468750,30.317,6.784
0.58154296875,30.313,6.784
0.58203125000,30.308,6.784
0.58251953125,30.304,6.784
0.58300781250,30.300,6.784
0.58349609375,30.295,6.784
0.58398437500,30.291,6.784
0.58447265625,30.287,6.784
0.58496093750,30.282,6.784
0.58544921875,30.278,6.784
0.58593750000,30.274,6.784
0.58642578125,30.270,6.785
0.58691406250,30.265,6.785
0.58740234375,30.261,6.785
0.58789062500,30.257,6.785
0.58837890625,30.253,6.785
0.58886718750,30.249,6.785
0.58935546875,30.245,6.785
0.58984375000,30.241,6.785
0.59033203125,30.237,6.786
0.59082031250,30.233,6.786
0.59130859375,30.229,6.786
0.59179687500,30.226,6.786
0.59228515625,30.222,6.786
0.59277343750,30.218,6.786
0.59326171875,30.214,6.786
0.59375000000,30.210,6.786
0.59423828125,30.207,6.787
0.59472656250,30.203,6.787
0.59521484375,30.199,6.787
0.59570312500,30.196,6.787
0.59619140625,30.192,6.787
0.59667968750,30.188,6.787
0.59716796875,30.185,6.787
0.59765625000,30.181,6.787
0.59814453125,30.177,6.787
0.59863281250,30.174,6.787
0.59912109375,30.170,6.787
0.59960937500,30.167,6.787
0.60009765625,30.163,6.787
0.60058593750,30.159,6.787
0.60107421875,30.156,6.787
0.60156250000,30.152,6.787
0.60205078125,30.149,6.788
0.60253906250,30.145,6.788
0.60302734375,30.141,6.788
0.60351562500,30.138,6.788
0.60400390625,30.134,6.788
0.60449218750,30.131,6.788
0.60498046875,30.127,6.788
0.60546875000,30.124,6.788
0.60595703125,30.120,6.789
0.60644531250,30.116,6.789
0.60693359375,30.113,6.789
0.60742187500,30.109,6.789
0.60791015625,30.105,6.789
0.60839843750,30.102,6.789
0.60888671875,30.098,6.789
0.60937500000,30.094,6.789
0.60986328125,30.091,6.790
0.61035156250,30.087,6.790
0.61083984375,30.083,6.790
0.61132812500,30.080,6.790
0.61181640625,30.076,6.790
0.61230468750,30.072,6.790
0.61279296875,30.068,6.790
0.61328125000,30.065,6.790
0.61376953125,30.061,6.790
0.61425781250,30.057,6.790
0.61474609375,30.053,6.790
0.61523437500,30.049,6.790
0.61572265625,30.045,6.790
0.61621093750,30.042,6.790
0.61669921875,30.038,6.790
0.61718750000,30.034,6.790
0.61767578125,30.030,6.791
0.61816406250,30.026,6.791
0.61865234375,30.022,6.791
0.61914062500,30.018,6.791
0.61962890625,30.014,6.791
0.62011718750,30.010,6.791
0.62060546875,30.006,6.791
0.62109375000,30.002,6.791
0.62158203125,29.998,6.792
0.62207031250,29.993,6.792
0.62255859375,29.989,6.792
0.62304687500,29.985,6.792
0.62353515625,29.981,6.792
0.62402343750,29.977,6.792
0.62451171875,29.972,6.792
0.62500000000,29.968,6.792
0.62548828125,29.964,6.792
0.62597656250,29.960,6.792
0.62646484375,29.955,6.792
0.62695312500,29.951,6.792
0.62744140625,29.947,6.792
0.62792968750,29.942,6.792
0.62841796875,29.938,6.792
0.62890625000,29.933,6.792
0.62939453125,29.929,6.793
0.62988281250,29.925,6.793
0.63037109375,29.920,6.793
0.63085937500,29.916,6.793
0.63134765625,29.911,6.793
0.63183593750,29.907,6.793
0.63232421875,29.902,6.793
0.63281250000,29.898,6.793
0.63330078125,29.893,6.794
0.63378906250,29.889,6.794
0.63427734375,29.884,6.794
0.63476562500,29.880,6.794
0.63525390625,29.875,6.794
0.63574218750,29.871,6.794
0.63623046875,29.866,6.794
0.63671875000,29.862,6.794
0.63720703125,29.857,6.794
0.63769531250,29.853,6.794
0.63818359375,29.848,6.794
0.63867187500,29.844,6.794
0.63916015625,29.839,6.794
0.63964843750,29.835,6.794
0.64013671875,29.830,6.794
0.64062500000,29.826,6.794
0.64111328125,29.822,6.795
0.64160156250,29.817,6.795
0.64208984375,29.813,6.795
0.64257812500,29.808,6.795
0.64306640625,29.804,6.795
0.64355468750,29.799,6.795
0.64404296875,29.795,6.795
0.64453125000,29.791,6.795
0.64501953125,29.786,6.796
0.64550781250,29.782,6.796
0.64599609375,29.778,6.796
0.64648437500,29.773,6.796
0.64697265625,29.769,6.796
0.64746093750,29.765,6.796
0.64794921875,29.761,6.796
0.64843750000,29.756,6.796
0.64892578125,29.752,6.796
0.64941406250,29.748,6.796
0.64990234375,29.744,6.796
0.65039062500,29.740,6.796
0.65087890625,29.736,6.796
0.65136718750,29.732,6.796
0.65185546875,29.728,6.796
0.65234375000,29.724,6.796
0.65283203125,29.720,6.797
0.65332031250,29.716,6.797
0.65380859375,29.712,6.797
0.65429687500,29.709,6.797
0.65478515625,29.705,6.797
0.65527343750,29.701,6.797
0.65576171875,29.697,6.797
0.65625000000,29.694,6.797
0.65673828125,29.690,6.797
0.65722656250,29.687,6.797
0.65771484375,29.683,6.797
0.65820312500,29.680,6.797
0.65869140625,29.676,6.797
0.65917968750,29.673,6.797
0.65966796875,29.669,6.797
0.66015625000,29.666,6.797
0.66064453125,29.663,6.798
0.66113281250,29.660,6.798
0.66162109375,29.656,6.798
0.66210937500,29.653,6.798
0.66259765625,29.650,6.798
0.66308593750,29.647,6.798
0.66357421875,29.644,6.798
0.66406250000,29.641,6.798
0.66455078125,29.638,6.799
0.66503906250,29.635,6.799
0.66552734375,29.632,6.799
0.66601562500,29.629,6.799
0.66650390625,29.626,6.799
0.66699218750,29.624,6.799
0.66748046875,29.621,6.799
0.66796875000,29.618,6.799
0.66845703125,29.615,6.799
0.66894531250,29.613,6.799
0.66943359375,29.610,6.799
0.66992187500,29.607,6.799
0.67041015625,29.605,6.799
0.67089843750,29.602,6.799
0.67138671875,29.600,6.799
0.67187500000,29.597,6.799
0.67236328125,29.595,6.800
0.67285156250,29.593,6.800
0.67333984375,29.590,6.800
0.67382812500,29.588,6.800
0.67431640625,29.586,6.800
0.67480468750,29.583,6.800
0.67529296875,29.581,6.800
0.67578125000,29.579,6.800
0.67626953125,29.577,6.801
0.67675781250,29.574,6.801
0.67724609375,29.572,6.801
0.67773437500,29.570,6.801
0.67822265625,29.568,6.801
0.67871093750,29.566,6.801
0.67919921875,29.564,6.801
0.67968750000,29.561,6.801
0.68017578125,29.559,6.801
0.68066406250,29.557,6.801
0.68115234375,29.555,6.801
0.68164062500,29.553,6.801
0.68212890625,29.551,6.801
0.68261718750,29.549,6.801
0.68310546875,29.547,6.801
0.68359375000,29.545,6.801
0.68408203125,29.543,6.802
0.68457031250,29.541,6.802
0.68505859375,29.539,6.802
0.68554687500,29.537,6.802
0.68603515625,29.535,6.802
0.68652343750,29.533,6.802
0.68701171875,29.531,6.802
0.68750000000,29.529,6.802
0.68798828125,29.526,6.803
0.68847656250,29.524,6.803
0.68896484375,29.522,6.803
0.68945312500,29.520,6.803
0.68994140625,29.518,6.803
0.69042968750,29.516,6.803
0.69091796875,29.514,6.803
0.69140625000,29.512,6.803
0.69189453125,29.510,6.803
0.69238281250,29.508,6.803
0.69287109375,29.506,6.803
0.69335937500,29.504,6.803
0.69384765625,29.502,6.803
0.69433593750,29.500,6.803
0.69482421875,29.498,6.803
0.69531250000,29.495,6.803
0.69580078125,29.493,6.804
0.69628906250,29.491,6.804
0.69677734375,29.489,6.804
0.69726562500,29.487,6.804
0.69775390625,29.485,6.804
0.69824218750,29.483,6.804
0.69873046875,29.481,6.804
0.69921875000,29.479,6.804
0.69970703125,29.477,6.804
0.70019531250,29.475,6.804
0.70068359375,29.472,6.804
0.70117187500,29.470,6.804
0.70166015625,29.468,6.804
0.70214843750,29.466,6.804
0.70263671875,29.464,6.804
0.70312500000,29.462,6.804
0.70361328125,29.460,6.805
0.70410156250,29.458,6.805
0.70458984375,29.455,6.805
0.70507812500,29.453,6.805
0.70556640625,29.451,6.805
0.70605468750,29.449,6.805
0.70654296875,29.447,6.805
0.70703125000,29.444,6.805
0.70751953125,29.442,6.805
0.70800781250,29.440,6.805
0.70849609375,29.438,6.805
0.70898437500,29.436,6.805
0.70947265625,29.433,6.805
0.70996093750,29.431,6.805
0.71044921875,29.429,6.805
0.71093750000,29.427,6.805
0.71142578125,29.424,6.806
0.71191406250,29.422,6.806
0.71240234375,29.420,6.806
0.71289062500,29.418,6.806
0.71337890625,29.415,6.806
0.71386718750,29.413,6.806
0.71435546875,29.411,6.806
0.71484375000,29.408,6.806
0.71533203125,29.406,6.806
0.71582031250,29.404,6.806
0.71630859375,29.402,6.806
0.71679687500,29.399,6.806
0.71728515625,29.397,6.806
0.71777343750,29.395,6.806
0.71826171875,29.393,6.806
0.71875000000,29.390,6.806
0.71923828125,29.388,6.807
0.71972656250,29.386,6.807
0.72021484375,29.384,6.807
0.72070312500,29.381,6.807
0.72119140625,29.379,6.807
0.72167968750,29.377,6.807
0.72216796875,29.375,6.807
0.72265625000,29.373,6.807
0.72314453125,29.370,6.808
0.72363281250,29.368,6.808
0.72412109375,29.366,6.808
0.72460937500,29.364,6.808
0.72509765625,29.362,6.808
0.72558593750,29.360,6.808
0.72607421875,29.358,6.808
0.72656250000,29.356,6.808
0.72705078125,29.354,6.808
0.72753906250,29.352,6.808
0.72802734375,29.350,6.808
0.72851562500,29.348,6.808
0.72900390625,29.346,6.808
0.72949218750,29.344,6.808
0.72998046875,29.343,6.808
0.73046875000,29.341,6.808
0.73095703125,29.339,6.809
0.73144531250,29.338,6.809
0.73193359375,29.336,6.809
0.73242187500,29.335,6.809
0.73291015625,29.333,6.809
0.73339843750,29.332,6.809
0.73388671875,29.330,6.809
0.73437500000,29.329,6.809
0.73486328125,29.328,6.809
0.73535156250,29.327,6.809
0.73583984375,29.326,6.809
0.73632812500,29.325,6.809
0.73681640625,29.324,6.809
0.73730468750,29.323,6.809
0.73779296875,29.323,6.809
0.73828125000,29.322,6.809
0.73876953125,29.322,6.810
0.73925781250,29.321,6.810
0.73974609375,29.321,6.810
0.74023437500,29.321,6.810
0.74072265625,29.321,6.810
0.74121093750,29.321,6.810
0.74169921875,29.321,6.810
0.74218750000,29.322,6.810
0.74267578125,29.322,6.810
0.74316406250,29.323,6.810
0.74365234375,29.324,6.810
0.74414062500,29.325,6.810
0.74462890625,29.326,6.810
0.74511718750,29.327,6.810
0.74560546875,29.329,6.810
0.74609375000,29.330,6.810
0.74658203125,29.332,6.811
0.74707031250,29.334,6.811
0.74755859375,29.337,6.811
0.74804687500,29.339,6.811
0.74853515625,29.342,6.811
0.74902343750,29.345,6.811
0.74951171875,29.348,6.811
0.75000000000,29.351,6.811
0.75048828125,29.355,6.812
0.75097656250,29.358,6.812
0.75146484375,29.363,6.812
0.75195312500,29.367,6.812
0.75244140625,29.371,6.812
0.75292968750,29.376,6.812
0.75341796875,29.382,6.812
0.75390625000,29.387,6.812
0.75439453125,29.393,6.812
0.75488281250,29.399,6.812
0.75537109375,29.405,6.812
0.75585937500,29.412,6.812
0.75634765625,29.419,6.812
0.75683593750,29.426,6.812
0.75732421875,29.434,6.812
0.75781250000,29.442,6.812
0.75830078125,29.450,6.813
0.75878906250,29.459,6.813
0.75927734375,29.468,6.813
0.75976562500,29.478,6.813
0.76025390625,29.488,6.813
0.76074218750,29.498,6.813
0.76123046875,29.509,6.813
0.76171875000,29.520,6.813
0.76220703125,29.532,6.813
0.76269531250,29.544,6.813
0.76318359375,29.556,6.813
0.76367187500,29.569,6.813
0.76416015625,29.582,6.813
0.76464843750,29.596,6.813
0.76513671875,29.610,6.813
0.76562500000,29.625,6.813
0.76611328125,29.640,6.814
0.76660156250,29.656,6.814
0.76708984375,29.672,6.814
0.76757812500,29.689,6.814
0.76806640625,29.706,6.814
0.76855468750,29.724,6.814
0.76904296875,29.742,6.814
0.76953125000,29.761,6.814
0.77001953125,29.780,6.814
0.77050781250,29.800,6.814
0.77099609375,29.821,6.814
0.77148437500,29.841,6.814
0.77197265625,29.863,6.814
0.77246093750,29.885,6.814
0.77294921875,29.908,6.814
0.77343750000,29.931,6.814
0.77392578125,29.954,6.815
0.77441406250,29.979,6.815
0.77490234375,30.004,6.815
0.77539062500,30.029,6.815
0.77587890625,30.055,6.815
0.77636718750,30.082,6.815
0.77685546875,30.109,6.815
0.77734375000,30.136,6.815
0.77783203125,30.165,6.815
0.77832031250,30.194,6.815
0.77880859375,30.223,6.815
0.77929687500,30.253,6.815
0.77978515625,30.284,6.815
0.78027343750,30.315,6.815
0.78076171875,30.347,6.815
0.78125000000,30.379,6.815
0.78173828125,30.412,6.816
0.78222656250,30.446,6.816
0.78271484375,30.480,6.816
0.78320312500,30.514,6.816
0.78369140625,30.550,6.816
0.78417968750,30.585,6.816
0.78466796875,30.622,6.816
0.78515625000,30.659,6.816
0.78564453125,30.696,6.817
0.78613281250,30.734,6.817
0.78662109375,30.773,6.817
0.78710937500,30.812,6.817
0.78759765625,30.852,6.817
0.78808593750,30.892,6.817
0.78857421875,30.932,6.817
0.78906250000,30.974,6.817
0.78955078125,31.015,6.817
0.79003906250,31.058,6.817
0.79052734375,31.100,6.817
0.79101562500,31.144,6.817
0.79150390625,31.187,6.817
0.79199218750,31.231,6.817
0.79248046875,31.276,6.817
0.79296875000,31.321,6.817
0.79345703125,31.367,6.818
0.79394531250,31.413,6.818
0.79443359375,31.459,6.818
0.79492187500,31.506,6.818
0.79541015625,31.553,6.818
0.79589843750,31.600,6.818
0.79638671875,31.648,6.818
0.79687500000,31.697,6.818
0.79736328125,31.746,6.819
0.79785156250,31.795,6.819
0.79833984375,31.844,6.819
0.79882812500,31.894,6.819
0.79931640625,31.944,6.819
0.79980468750,31.994,6.819
0.80029296875,32.045,6.819
0.80078125000,32.096,6.819
0.80126953125,32.147,6.819
0.80175781250,32.199,6.819
0.80224609375,32.251,6.819
0.80273437500,32.303,6.819
0.80322265625,32.355,6.819
0.80371093750,32.408,6.819
0.80419921875,32.460,6.819
0.80468750000,32.513,6.819
0.80517578125,32.566,6.820
0.80566406250,32.620,6.820
0.80615234375,32.673,6.820
0.80664062500,32.727,6.820
0.80712890625,32.780,6.820
0.80761718750,32.834,6.820
0.80810546875,32.888,6.820
0.80859375000,32.942,6.820
0.80908203125,32.996,6.820
0.80957031250,33.051,6.820
0.81005859375,33.105,6.820
0.81054687500,33.159,6.820
0.81103515625,33.214,6.820
0.81152343750,33.268,6.820
0.81201171875,33.322,6.820
0.81250000000,33.377,6.820
0.81298828125,33.431,6.821
0.81347656250,33.485,6.821
0.81396484375,33.540,6.821
0.81445312500,33.594,6.821
0.81494140625,33.648,6.821
0.81542968750,33.702,6.821
0.81591796875,33.756,6.821
0.81640625000,33.810,6.821
0.81689453125,33.863,6.821
0.81738281250,33.917,6.821
0.81787109375,33.970,6.821
0.81835937500,34.023,6.821
0.81884765625,34.077,6.821
0.81933593750,34.129,6.821
0.81982421875,34.182,6.821
0.82031250000,34.234,6.821
0.82080078125,34.287,6.822
0.82128906250,34.339,6.822
0.82177734375,34.390,6.822
0.82226562500,34.442,6.822
0.82275390625,34.493,6.822
0.82324218750,34.544,6.822
0.82373046875,34.595,6.822
0.82421875000,34.645,6.822
0.82470703125,34.695,6.823
0.82519531250,34.745,6.823
0.82568359375,34.794,6.823
0.82617187500,34.843,6.823
0.82666015625,34.892,6.823
0.82714843750,34.940,6.823
0.82763671875,34.988,6.823
0.82812500000,35.035,6.823
0.82861328125,35.082,6.823
0.82910156250,35.129,6.823
0.82958984375,35.175,6.823
0.83007812500,35.221,6.823
0.83056640625,35.267,6.823
0.83105468750,35.311,6.823
0.83154296875,35.356,6.823
0.83203125000,35.400,6.823
0.83251953125,35.444,6.824
0.83300781250,35.487,6.824
0.83349609375,35.529,6.824
0.83398437500,35.571,6.824
0.83447265625,35.613,6.824
0.83496093750,35.654,6.824
0.83544921875,35.695,6.824
0.83593750000,35.735,6.824
0.83642578125,35.774,6.824
0.83691406250,35.813,6.824
0.83740234375,35.852,6.824
0.83789062500,35.890,6.824
0.83837890625,35.927,6.824
0.83886718750,35.964,6.824
0.83935546875,36.000,6.824
0.83984375000,36.036,6.824
0.84033203125,36.071,6.825
0.84082031250,36.105,6.825
0.84130859375,36.139,6.825
0.84179687500,36.173,6.825
0.84228515625,36.205,6.825
0.84277343750,36.237,6.825
0.84326171875,36.269,6.825
0.84375000000,36.300,6.825
0.84423828125,36.330,6.825
0.84472656250,36.360,6.825
0.84521484375,36.389,6.825
0.84570312500,36.417,6.825
0.84619140625,36.445,6.825
0.84667968750,36.473,6.825
0.84716796875,36.499,6.825
0.84765625000,36.525,6.825
0.84814453125,36.550,6.826
0.84863281250,36.575,6.826
0.84912109375,36.599,6.826
0.84960937500,36.623,6.826
0.85009765625,36.646,6.826
0.85058593750,36.668,6.826
0.85107421875,36.690,6.826
0.85156250000,36.711,6.826
0.85205078125,36.731,6.826
0.85253906250,36.751,6.826
0.85302734375,36.770,6.826
0.85351562500,36.788,6.826
0.85400390625,36.806,6.826
0.85449218750,36.823,6.826
0.85498046875,36.840,6.826
0.85546875000,36.856,6.826
0.85595703125,36.872,6.827
0.85644531250,36.887,6.827
0.85693359375,36.901,6.827
0.85742187500,36.915,6.827
0.85791015625,36.928,6.827
0.85839843750,36.940,6.827
0.85888671875,36.952,6.827
0.85937500000,36.964,6.827
0.85986328125,36.974,6.827
0.86035156250,36.985,6.827
0.86083984375,36.994,6.827
0.86132812500,37.003,6.827
0.86181640625,37.012,6.827
0.86230468750,37.020,6.827
0.86279296875,37.027,6.827
0.86328125000,37.034,6.827
0.86376953125,37.041,6.828
0.86425781250,37.047,6.828
0.86474609375,37.052,6.828
0.86523437500,37.057,6.828
0.86572265625,37.061,6.828
0.86621093750,37.065,6.828
0.86669921875,37.069,6.828
0.86718750000,37.071,6.828
0.86767578125,37.074,6.828
0.86816406250,37.076,6.828
0.86865234375,37.077,6.828
0.86914062500,37.078,6.828
0.86962890625,37.079,6.828
0.87011718750,37.079,6.828
0.87060546875,37.078,6.828
0.87109375000,37.077,6.828
0.87158203125,37.076,6.829
0.87207031250,37.075,6.829
0.87255859375,37.072,6.829
0.87304687500,37.070,6.829
0.87353515625,37.067,6.829
0.87402343750,37.064,6.829
0.87451171875,37.060,6.829
0.87500000000,37.056,6.829
0.87548828125,37.051,6.829
0.87597656250,37.047,6.829
0.87646484375,37.041,6.829
0.87695312500,37.036,6.829
0.87744140625,37.030,6.829
0.87792968750,37.024,6.829
0.87841796875,37.017,6.829
0.87890625000,37.010,6.829
0.87939453125,37.003,6.830
0.87988281250,36.995,6.830
0.88037109375,36.987,6.830
0.88085937500,36.979,6.830
0.88134765625,36.971,6.830
0.88183593750,36.962,6.830
0.88232421875,36.953,6.830
0.88281250000,36.943,6.830
0.88330078125,36.934,6.830
0.88378906250,36.924,6.830
0.88427734375,36.914,6.830
0.88476562500,36.903,6.830
0.88525390625,36.893,6.830
0.88574218750,36.882,6.830
0.88623046875,36.871,6.830
0.88671875000,36.859,6.830
0.88720703125,36.848,6.831
0.88769531250,36.836,6.831
0.88818359375,36.824,6.831
0.88867187500,36.812,6.831
0.88916015625,36.800,6.831
0.88964843750,36.787,6.831
0.89013671875,36.774,6.831
0.89062500000,36.761,6.831
0.89111328125,36.748,6.831
0.89160156250,36.735,6.831
0.89208984375,36.722,6.831
0.89257812500,36.708,6.831
0.89306640625,36.694,6.831
0.89355468750,36.680,6.831
0.89404296875,36.666,6.831
0.89453125000,36.652,6.831
0.89501953125,36.638,6.832
0.89550781250,36.624,6.832
0.89599609375,36.609,6.832
0.89648437500,36.595,6.832
0.89697265625,36.580,6.832
0.89746093750,36.565,6.832
0.89794921875,36.550,6.832
0.89843750000,36.535,6.832
0.89892578125,36.520,6.832
0.89941406250,36.505,6.832
0.89990234375,36.490,6.832
0.90039062500,36.474,6.832
0.90087890625,36.459,6.832
0.90136718750,36.444,6.832
0.90185546875,36.428,6.832
0.90234375000,36.412,6.832
0.90283203125,36.397,6.833
0.90332031250,36.381,6.833
0.90380859375,36.365,6.833
0.90429687500,36.350,6.833
0.90478515625,36.334,6.833
0.90527343750,36.318,6.833
0.90576171875,36.302,6.833
0.90625000000,36.286,6.833
0.90673828125,36.270,6.833
0.90722656250,36.254,6.833
0.90771484375,36.238,6.833
0.90820312500,36.222,6.833
0.90869140625,36.206,6.833
0.90917968750,36.190,6.833
0.90966796875,36.173,6.833
0.91015625000,36.157,6.833
0.91064453125,36.141,6.834
0.91113281250,36.125,6.834
0.91162109375,36.109,6.834
0.91210937500,36.093,6.834
0.91259765625,36.077,6.834
0.91308593750,36.060,6.834
0.91357421875,36.044,6.834
0.91406250000,36.028,6.834
0.91455078125,36.012,6.834
0.91503906250,35.996,6.834
0.91552734375,35.980,6.834
0.91601562500,35.964,6.834
0.91650390625,35.948,6.834
0.91699218750,35.932,6.834
0.91748046875,35.916,6.834
0.91796875000,35.900,6.834
0.91845703125,35.884,6.835
0.91894531250,35.868,6.835
0.91943359375,35.852,6.835
0.91992187500,35.836,6.835
0.92041015625,35.820,6.835
0.92089843750,35.804,6.835
0.92138671875,35.788,6.835
0.92187500000,35.772,6.835
0.92236328125,35.757,6.835
0.92285156250,35.741,6.835
0.92333984375,35.725,6.835
0.92382812500,35.710,6.835
0.92431640625,35.694,6.835
0.92480468750,35.678,6.835
0.92529296875,35.663,6.835
0.92578125000,35.647,6.835
0.92626953125,35.632,6.836
0.92675781250,35.616,6.836
0.92724609375,35.601,6.836
0.92773437500,35.585,6.836
0.92822265625,35.570,6.836
0.92871093750,35.554,6.836
0.92919921875,35.539,6.836
0.92968750000,35.524,6.836
0.93017578125,35.508,6.837
0.93066406250,35.493,6.837
0.93115234375,35.478,6.837
0.93164062500,35.463,6.837
0.93212890625,35.448,6.837
0.93261718750,35.433,6.837
0.93310546875,35.418,6.837
0.93359375000,35.403,6.837
0.93408203125,35.388,6.837
0.93457031250,35.373,6.837
0.93505859375,35.358,6.837
0.93554687500,35.343,6.837
0.93603515625,35.328,6.837
0.93652343750,35.313,6.837
0.93701171875,35.299,6.837
0.93750000000,35.284,6.837
0.93798828125,35.269,6.837
0.93847656250,35.255,6.837
0.93896484375,35.240,6.837
0.93945312500,35.225,6.837
0.93994140625,35.211,6.837
0.94042968750,35.196,6.837
0.94091796875,35.182,6.837
0.94140625000,35.168,6.837
0.94189453125,35.153,6.838
0.94238281250,35.139,6.838
0.94287109375,35.125,6.838
0.94335937500,35.111,6.838
0.94384765625,35.096,6.838
0.94433593750,35.082,6.838
0.94482421875,35.068,6.838
0.94531250000,35.054,6.838
0.94580078125,35.040,6.838
0.94628906250,35.026,6.838
0.94677734375,35.012,6.838
0.94726562500,34.999,6.838
0.94775390625,34.985,6.838
0.94824218750,34.971,6.838
0.94873046875,34.957,6.838
0.94921875000,34.944,6.838
0.94970703125,34.930,6.839
0.95019531250,34.917,6.839
0.95068359375,34.903,6.839
0.95117187500,34.890,6.839
0.95166015625,34.876,6.839
0.95214843750,34.863,6.839
0.95263671875,34.850,6.839
0.95312500000,34.836,6.839
0.95361328125,34.823,6.840
0.95410156250,34.810,6.840
0.95458984375,34.797,6.840
0.95507812500,34.784,6.840
0.95556640625,34.771,6.840
0.95605468750,34.758,6.840
0.95654296875,34.745,6.840
0.95703125000,34.732,6.840
0.95751953125,34.719,6.840
0.95800781250,34.706,6.840
0.95849609375,34.693,6.840
0.95898437500,34.681,6.840
0.95947265625,34.668,6.840
0.95996093750,34.655,6.840
0.96044921875,34.642,6.840
0.96093750000,34.630,6.840
0.96142578125,34.617,6.841
0.96191406250,34.605,6.841
0.96240234375,34.592,6.841
0.96289062500,34.580,6.841
0.96337890625,34.567,6.841
0.96386718750,34.555,6.841
0.96435546875,34.542,6.841
0.96484375000,34.530,6.841
0.96533203125,34.518,6.841
0.96582031250,34.505,6.841
0.96630859375,34.493,6.841
0.96679687500,34.481,6.841
0.96728515625,34.468,6.841
0.96777343750,34.456,6.841
0.96826171875,34.444,6.841
0.96875000000,34.432,6.841
0.96923828125,34.419,6.842
0.96972656250,34.407,6.842
0.97021484375,34.395,6.842
0.97070312500,34.383,6.842
0.97119140625,34.371,6.842
0.97167968750,34.358,6.842
0.97216796875,34.346,6.842
0.97265625000,34.334,6.842
0.97314453125,34.322,6.842
0.97363281250,34.310,6.842
0.97412109375,34.298,6.842
0.97460937500,34.285,6.842
0.97509765625,34.273,6.842
0.97558593750,34.261,6.842
0.97607421875,34.249,6.842
0.97656250000,34.237,6.842
0.97705078125,34.224,6.842
0.97753906250,34.212,6.842
0.97802734375,34.200,6.842
0.97851562500,34.188,6.842
0.97900390625,34.176,6.842
0.97949218750,34.163,6.842
0.97998046875,34.151,6.842
0.98046875000,34.139,6.842
0.98095703125,34.126,6.843
0.98144531250,34.114,6.843
0.98193359375,34.102,6.843
0.98242187500,34.089,6.843
0.98291015625,34.077,6.843
0.98339843750,34.065,6.843
0.98388671875,34.052,6.843
0.98437500000,34.040,6.843
0.98486328125,34.027,6.844
0.98535156250,34.015,6.844
0.98583984375,34.002,6.844
0.98632812500,33.990,6.844
0.98681640625,33.977,6.844
0.98730468750,33.965,6.844
0.98779296875,33.952,6.844
0.98828125000,33.939,6.844
0.98876953125,33.927,6.844
0.98925781250,33.914,6.844
0.98974609375,33.901,6.844
0.99023437500,33.889,6.844
0.99072265625,33.876,6.844
0.99121093750,33.863,6.844
0.99169921875,33.850,6.844
0.99218750000,33.837,6.844
0.99267578125,33.824,6.845
0.99316406250,33.812,6.845
0.99365234375,33.799,6.845
0.99414062500,33.786,6.845
0.99462890625,33.773,6.845
0.99511718750,33.760,6.845
0.99560546875,33.747,6.845
0.99609375000,33.734,6.845
0.99658203125,33.721,6.845
0.99707031250,33.707,6.845
0.99755859375,33.694,6.845
0.99804687500,33.681,6.845
0.99853515625,33.668,6.845
0.99902343750,33.655,6.845
0.99951171875,33.642,6.845
1.00000000000,33.628,6.845
1.00048828125,33.615,6.845
1.00097656250,33.602,6.845
1.00146484375,33.589,6.845
1.00195312500,33.576,6.845
1.00244140625,33.562,6.845
1.00292968750,33.549,6.845
1.00341796875,33.536,6.845
1.00390625000,33.522,6.845
1.00439453125,33.509,6.846
1.00488281250,33.496,6.846
1.00537109375,33.482,6.846
1.00585937500,33.469,6.846
1.00634765625,33.456,6.846
1.00683593750,33.442,6.846
1.00732421875,33.429,6.846
1.00781250000,33.416,6.846
1.00830078125,33.402,6.847
1.00878906250,33.389,6.847
1.00927734375,33.375,6.847
1.00976562500,33.362,6.847
1.01025390625,33.349,6.847
1.01074218750,33.335,6.847
1.01123046875,33.322,6.847
1.01171875000,33.309,6.847
1.01220703125,33.295,6.847
1.01269531250,33.282,6.847
1.01318359375,33.269,6.847
1.01367187500,33.255,6.847
1.01416015625,33.242,6.847
1.01464843750,33.229,6.847
1.01513671875,33.216,6.847
1.01562500000,33.202,6.847
1.01611328125,33.189,6.847
1.01660156250,33.176,6.847
1.01708984375,33.163,6.847
1.01757812500,33.150,6.847
1.01806640625,33.137,6.847
1.01855468750,33.124,6.847
1.01904296875,33.111,6.847
1.01953125000,33.098,6.847
1.02001953125,33.085,6.848
1.02050781250,33.072,6.848
1.02099609375,33.060,6.848
1.02148437500,33.047,6.848
1.02197265625,33.034,6.848
1.02246093750,33.022,6.848
1.02294921875,33.009,6.848
1.02343750000,32.997,6.848
1.02392578125,32.984,6.848
1.02441406250,32.972,6.848
1.02490234375,32.960,6.848
1.02539062500,32.947,6.848
1.02587890625,32.935,6.848
1.02636718750,32.923,6.848
1.02685546875,32.911,6.848
1.02734375000,32.899,6.848
1.02783203125,32.888,6.849
1.02832031250,32.876,6.849
1.02880859375,32.864,6.849
1.02929687500,32.853,6.849
1.02978515625,32.841,6.849
1.03027343750,32.830,6.849
1.03076171875,32.819,6.849
1.03125000000,32.808,6.849
1.03173828125,32.797,6.849
1.03222656250,32.786,6.849
1.03271484375,32.775,6.849
1.03320312500,32.765,6.849
1.03369140625,32.754,6.849
1.03417968750,32.744,6.849
1.03466796875,32.733,6.849
1.03515625000,32.723,6.849
1.03564453125,32.713,6.850
1.03613281250,32.703,6.850
1.03662109375,32.693,6.850
1.03710937500,32.684,6.850
1.03759765625,32.674,6.850
1.03808593750,32.665,6.850
1.03857421875,32.656,6.850
1.03906250000,32.647,6.850
1.03955078125,32.638,6.850
1.04003906250,32.629,6.850
1.04052734375,32.620,6.850
1.04101562500,32.611,6.850
1.04150390625,32.603,6.850
1.04199218750,32.595,6.850
1.04248046875,32.587,6.850
1.04296875000,32.579,6.850
1.04345703125,32.571,6.851
1.04394531250,32.563,6.851
1.04443359375,32.556,6.851
1.04492187500,32.548,6.851
1.04541015625,32.541,6.851
1.04589843750,32.534,6.851
1.04638671875,32.527,6.851
1.04687500000,32.520,6.851
1.04736328125,32.514,6.851
1.04785156250,32.507,6.851
1.04833984375,32.501,6.851
1.04882812500,32.495,6.851
1.04931640625,32.489,6.851
1.04980468750,32.483,6.851
1.05029296875,32.477,6.851
1.05078125000,32.472,6.851
1.05126953125,32.466,6.852
1.05175781250,32.461,6.852
1.05224609375,32.456,6.852
1.05273437500,32.451,6.852
1.05322265625,32.447,6.852
1.05371093750,32.442,6.852
1.05419921875,32.438,6.852
1.05468750000,32.433,6.852
1.05517578125,32.429,6.852
1.05566406250,32.425,6.852
1.05615234375,32.422,6.852
1.05664062500,32.418,6.852
1.05712890625,32.414,6.852
1.05761718750,32.411,6.852
1.05810546875,32.408,6.852
1.05859375000,32.405,6.852
1.05908203125,32.402,6.852
1.05957031250,32.399,6.852
1.06005859375,32.397,6.852
1.06054687500,32.395,6.852
1.06103515625,32.392,6.852
1.06152343750,32.390,6.852
1.06201171875,32.388,6.852
1.06250000000,32.387,6.852
1.06298828125,32.385,6.853
1.06347656250,32.384,6.853
1.06396484375,32.382,6.853
1.06445312500,32.381,6.853
1.06494140625,32.380,6.853
1.06542968750,32.379,6.853
1.06591796875,32.379,6.853
1.06640625000,32.378,6.853
1.06689453125,32.378,6.853
1.06738281250,32.378,6.853
1.06787109375,32.378,6.853
1.06835937500,32.378,6.853
1.06884765625,32.378,6.853
1.06933593750,32.378,6.853
1.06982421875,32.379,6.853
1.07031250000,32.380,6.853
1.07080078125,32.381,6.854
1.07128906250,32.382,6.854
1.07177734375,32.383,6.854
1.07226562500,32.384,6.854
1.07275390625,32.386,6.854
1.07324218750,32.387,6.854
1.07373046875,32.389,6.854
1.07421875000,32.391,6.854
1.07470703125,32.393,6.854
1.07519531250,32.395,6.854
1.07568359375,32.398,6.854
1.07617187500,32.400,6.854
1.07666015625,32.403,6.854
1.07714843750,32.406,6.854
1.07763671875,32.408,6.854
1.07812500000,32.412,6.854
1.07861328125,32.415,6.855
1.07910156250,32.418,6.855
1.07958984375,32.422,6.855
1.08007812500,32.425,6.855
1.08056640625,32.429,6.855
1.08105468750,32.433,6.855
1.08154296875,32.437,6.855
1.08203125000,32.441,6.855
1.08251953125,32.446,6.855
1.08300781250,32.450,6.855
1.08349609375,32.455,6.855
1.08398437500,32.459,6.855
1.08447265625,32.464,6.855
1.08496093750,32.469,6.855
1.08544921875,32.474,6.855
1.08593750000,32.480,6.855
1.08642578125,32.485,6.856
1.08691406250,32.490,6.856
1.08740234375,32.496,6.856
1.08789062500,32.502,6.856
1.08837890625,32.507,6.856
1.08886718750,32.513,6.856
1.08935546875,32.519,6.856
1.08984375000,32.525,6.856
1.09033203125,32.532,6.856
1.09082031250,32.538,6.856
1.09130859375,32.544,6.856
1.09179687500,32.551,6.856
1.09228515625,32.558,6.856
1.09277343750,32.564,6.856
1.09326171875,32.571,6.856
1.09375000000,32.578,6.856
1.09423828125,32.585,6.857
1.09472656250,32.592,6.857
1.09521484375,32.599,6.857
1.09570312500,32.607,6.857
1.09619140625,32.614,6.857
1.09667968750,32.622,6.857
1.09716796875,32.629,6.857
1.09765625000,32.637,6.857
1.09814453125,32.644,6.857
1.09863281250,32.652,6.857
1.09912109375,32.660,6.857
1.09960937500,32.668,6.857
1.10009765625,32.675,6.857
1.10058593750,32.683,6.857
1.10107421875,32.691,6.857
1.10156250000,32.699,6.857
1.10205078125,32.707,6.857
1.10253906250,32.716,6.857
1.10302734375,32.724,6.857
1.10351562500,32.732,6.857
1.10400390625,32.740,6.857
1.10449218750,32.749,6.857
1.10498046875,32.757,6.857
1.10546875000,32.765,6.857
1.10595703125,32.773,6.858
1.10644531250,32.782,6.858
1.10693359375,32.790,6.858
1.10742187500,32.799,6.858
1.10791015625,32.807,6.858
1.10839843750,32.816,6.858
1.10888671875,32.824,6.858
1.10937500000,32.832,6.858
1.10986328125,32.841,6.859
1.11035156250,32.849,6.859
1.11083984375,32.858,6.859
1.11132812500,32.866,6.859
1.11181640625,32.875,6.859
1.11230468750,32.883,6.859
1.11279296875,32.891,6.859
1.11328125000,32.900,6.859
1.11376953125,32.908,6.859
1.11425781250,32.917,6.859
1.11474609375,32.925,6.859
1.11523437500,32.933,6.859
1.11572265625,32.942,6.859
1.11621093750,32.950,6.859
1.11669921875,32.958,6.859
1.11718750000,32.966,6.859
1.11767578125,32.975,6.859
1.11816406250,32.983,6.859
1.11865234375,32.991,6.859
1.11914062500,32.999,6.859
1.11962890625,33.007,6.859
1.12011718750,33.015,6.859
1.12060546875,33.023,6.859
1.12109375000,33.031,6.859
1.12158203125,33.039,6.860
1.12207031250,33.047,6.860
1.12255859375,33.054,6.860
1.12304687500,33.062,6.860
1.12353515625,33.070,6.860
1.12402343750,33.077,6.860
1.12451171875,33.085,6.860
1.12500000000,33.092,6.860
1.12548828125,33.100,6.860
1.12597656250,33.107,6.860
1.12646484375,33.115,6.860
1.12695312500,33.122,6.860
1.12744140625,33.129,6.860
1.12792968750,33.136,6.860
1.12841796875,33.143,6.860
1.12890625000,33.150,6.860
1.12939453125,33.157,6.861
1.12988281250,33.164,6.861
1.13037109375,33.171,6.861
1.13085937500,33.177,6.861
1.13134765625,33.184,6.861
1.13183593750,33.190,6.861
1.13232421875,33.197,6.861
1.13281250000,33.203,6.861
1.13330078125,33.209,6.861
1.13378906250,33.216,6.861
1.13427734375,33.222,6.861
1.13476562500,33.228,6.861
1.13525390625,33.234,6.861
1.13574218750,33.240,6.861
1.13623046875,33.245,6.861
1.13671875000,33.251,6.861
1.13720703125,33.257,6.861
1.13769531250,33.262,6.861
1.13818359375,33.268,6.861
1.13867187500,33.273,6.861
1.13916015625,33.278,6.861
1.13964843750,33.283,6.861
1.14013671875,33.288,6.861
1.14062500000,33.293,6.861
1.14111328125,33.298,6.862
1.14160156250,33.303,6.862
1.14208984375,33.308,6.862
1.14257812500,33.312,6.862
1.14306640625,33.317,6.862
1.14355468750,33.321,6.862
1.14404296875,33.326,6.862
1.14453125000,33.330,6.862
1.14501953125,33.334,6.863
1.14550781250,33.338,6.863
1.14599609375,33.342,6.863
1.14648437500,33.345,6.863
1.14697265625,33.349,6.863
1.14746093750,33.353,6.863
1.14794921875,33.356,6.863
1.14843750000,33.359,6.863
1.14892578125,33.363,6.863
1.14941406250,33.366,6.863
1.14990234375,33.369,6.863
1.15039062500,33.371,6.863
1.15087890625,33.374,6.863
1.15136718750,33.377,6.863
1.15185546875,33.379,6.863
1.15234375000,33.382,6.863
1.15283203125,33.384,6.863
1.15332031250,33.386,6.863
1.15380859375,33.388,6.863
1.15429687500,33.390,6.863
1.15478515625,33.392,6.863
1.15527343750,33.394,6.863
1.15576171875,33.395,6.863
1.15625000000,33.397,6.863
1.15673828125,33.398,6.864
1.15722656250,33.399,6.864
1.15771484375,33.400,6.864
1.15820312500,33.401,6.864
1.15869140625,33.402,6.864
1.15917968750,33.403,6.864
1.15966796875,33.403,6.864
1.16015625000,33.404,6.864
1.16064453125,33.404,6.864
1.16113281250,33.404,6.864
1.16162109375,33.404,6.864
1.16210937500,33.404,6.864
1.16259765625,33.404,6.864
1.16308593750,33.404,6.864
1.16357421875,33.404,6.864
1.16406250000,33.403,6.864
1.16455078125,33.403,6.865
1.16503906250,33.402,6.865
1.16552734375,33.401,6.865
1.16601562500,33.400,6.865
1.16650390625,33.399,6.865
1.16699218750,33.398,6.865
1.16748046875,33.397,6.865
1.16796875000,33.395,6.865
1.16845703125,33.394,6.865
1.16894531250,33.392,6.865
1.16943359375,33.391,6.865
1.16992187500,33.389,6.865
1.17041015625,33.387,6.865
1.17089843750,33.385,6.865
1.17138671875,33.383,6.865
1.17187500000,33.381,6.865
1.17236328125,33.379,6.866
1.17285156250,33.376,6.866
1.17333984375,33.374,6.866
1.17382812500,33.371,6.866
1.17431640625,33.369,6.866
1.17480468750,33.366,6.866
1.17529296875,33.363,6.866
1.17578125000,33.360,6.866
1.17626953125,33.357,6.866
1.17675781250,33.354,6.866
1.17724609375,33.351,6.866
1.17773437500,33.347,6.866
1.17822265625,33.344,6.866
1.17871093750,33.340,6.866
1.17919921875,33.337,6.866
1.17968750000,33.333,6.866
1.18017578125,33.329,6.866
1.18066406250,33.326,6.866
1.18115234375,33.322,6.866
1.18164062500,33.318,6.866
1.18212890625,33.314,6.866
1.18261718750,33.310,6.866
1.18310546875,33.305,6.866
1.18359375000,33.301,6.866
1.18408203125,33.297,6.867
1.18457031250,33.292,6.867
1.18505859375,33.288,6.867
1.18554687500,33.283,6.867
1.18603515625,33.278,6.867
1.18652343750,33.274,6.867
1.18701171875,33.269,6.867
1.18750000000,33.264,6.867
1.18798828125,33.259,6.867
1.18847656250,33.254,6.867
1.18896484375,33.249,6.867
1.18945312500,33.244,6.867
1.18994140625,33.238,6.867
1.19042968750,33.233,6.867
1.19091796875,33.228,6.867
1.19140625000,33.222,6.867
1.19189453125,33.217,6.868
1.19238281250,33.211,6.868
1.19287109375,33.205,6.868
1.19335937500,33.200,6.868
1.19384765625,33.194,6.868
1.19433593750,33.188,6.868
1.19482421875,33.182,6.868
1.19531250000,33.176,6.868
1.19580078125,33.170,6.868
1.19628906250,33.164,6.868
1.19677734375,33.158,6.868
1.19726562500,33.151,6.868
1.19775390625,33.145,6.868
1.19824218750,33.139,6.868
1.19873046875,33.132,6.868
1.19921875000,33.126,6.868
1.19970703125,33.119,6.868
1.20019531250,33.112,6.868
1.20068359375,33.106,6.868
1.20117187500,33.099,6.868
1.20166015625,33.092,6.868
1.20214843750,33.085,6.868
1.20263671875,33.078,6.868
1.20312500000,33.071,6.868
1.20361328125,33.064,6.869
1.20410156250,33.057,6.869
1.20458984375,33.050,6.869
1.20507812500,33.043,6.869
1.20556640625,33.036,6.869
1.20605468750,33.029,6.869
1.20654296875,33.021,6.869
1.20703125000,33.014,6.869
1.20751953125,33.006,6.869
1.20800781250,32.999,6.869
1.20849609375,32.992,6.869
1.20898437500,32.984,6.869
1.20947265625,32.976,6.869
1.20996093750,32.969,6.869
1.21044921875,32.961,6.869
1.21093750000,32.953,6.869
1.21142578125,32.946,6.870
1.21191406250,32.938,6.870
1.21240234375,32.930,6.870
1.21289062500,32.922,6.870
1.21337890625,32.914,6.870
1.21386718750,32.906,6.870
1.21435546875,32.898,6.870
1.21484375000,32.890,6.870
1.21533203125,32.882,6.870
1.21582031250,32.875,6.870
1.21630859375,32.866,6.870
1.21679687500,32.858,6.870
1.21728515625,32.850,6.870
1.21777343750,32.842,6.870
1.21826171875,32.834,6.870
1.21875000000,32.826,6.870
1.21923828125,32.818,6.870
1.21972656250,32.810,6.870
1.22021484375,32.802,6.870
1.22070312500,32.794,6.870
1.22119140625,32.786,6.870
1.22167968750,32.778,6.870
1.22216796875,32.770,6.870
1.22265625000,32.762,6.870
1.22314453125,32.754,6.871
1.22363281250,32.746,6.871
1.22412109375,32.738,6.871
1.22460937500,32.729,6.871
1.22509765625,32.721,6.871
1.22558593750,32.713,6.871
1.22607421875,32.705,6.871
1.22656250000,32.697,6.871
1.22705078125,32.689,6.871
1.22753906250,32.682,6.871
1.22802734375,32.674,6.871
1.22851562500,32.666,6.871
1.22900390625,32.658,6.871
1.22949218750,32.650,6.871
1.22998046875,32.642,6.871
1.23046875000,32.634,6.871
1.23095703125,32.626,6.871
1.23144531250,32.618,6.871
1.23193359375,32.611,6.871
1.23242187500,32.603,6.871
1.23291015625,32.595,6.871
1.23339843750,32.587,6.871
1.23388671875,32.580,6.871
1.23437500000,32.572,6.871
1.23486328125,32.564,6.872
1.23535156250,32.557,6.872
1.23583984375,32.549,6.872
1.23632812500,32.541,6.872
1.23681640625,32.534,6.872
1.23730468750,32.526,6.872
1.23779296875,32.519,6.872
1.23828125000,32.511,6.872
1.23876953125,32.504,6.872
1.23925781250,32.496,6.872
1.23974609375,32.489,6.872
1.24023437500,32.482,6.872
1.24072265625,32.474,6.872
1.24121093750,32.467,6.872
1.24169921875,32.459,6.872
1.24218750000,32.452,6.872
1.24267578125,32.445,6.872
1.24316406250,32.437,6.872
1.24365234375,32.430,6.872
1.24414062500,32.423,6.872
1.24462890625,32.416,6.872
1.24511718750,32.409,6.872
1.24560546875,32.401,6.872
1.24609375000,32.394,6.872
1.24658203125,32.387,6.873
1.24707031250,32.380,6.873
1.24755859375,32.373,6.873
1.24804687500,32.366,6.873
1.24853515625,32.359,6.873
1.24902343750,32.351,6.873
1.24951171875,32.344,6.873
1.25000000000,32.337,6.873
1.25048828125,32.330,6.873
1.25097656250,32.323,6.873
1.25146484375,32.316,6.873
1.25195312500,32.309,6.873
1.25244140625,32.302,6.873
1.25292968750,32.295,6.873
1.25341796875,32.288,6.873
1.25390625000,32.281,6.873
1.25439453125,32.275,6.873
1.25488281250,32.268,6.873
1.25537109375,32.261,6.873
1.25585937500,32.254,6.873
1.25634765625,32.247,6.873
1.25683593750,32.240,6.873
1.25732421875,32.233,6.873
1.25781250000,32.226,6.873
1.25830078125,32.220,6.873
1.25878906250,32.213,6.873
1.25927734375,32.206,6.873
1.25976562500,32.199,6.873
1.26025390625,32.192,6.873
1.26074218750,32.186,6.873
1.26123046875,32.179,6.873
1.26171875000,32.172,6.873
1.26220703125,32.165,6.874
1.26269531250,32.159,6.874
1.26318359375,32.152,6.874
1.26367187500,32.145,6.874
1.26416015625,32.138,6.874
1.26464843750,32.132,6.874
1.26513671875,32.125,6.874
1.26562500000,32.118,6.874
1.26611328125,32.112,6.874
1.26660156250,32.105,6.874
1.26708984375,32.098,6.874
1.26757812500,32.091,6.874
1.26806640625,32.085,6.874
1.26855468750,32.078,6.874
1.26904296875,32.071,6.874
1.26953125000,32.065,6.874
1.27001953125,32.058,6.874
1.27050781250,32.051,6.874
1.27099609375,32.045,6.874
1.27148437500,32.038,6.874
1.27197265625,32.031,6.874
1.27246093750,32.025,6.874
1.27294921875,32.018,6.874
1.27343750000,32.011,6.874
1.27392578125,32.004,6.874
1.27441406250,31.998,6.874
1.27490234375,31.991,6.874
1.27539062500,31.984,6.874
1.27587890625,31.978,6.874
1.27636718750,31.971,6.874
1.27685546875,31.964,6.874
1.27734375000,31.957,6.874
1.27783203125,31.951,6.875
1.27832031250,31.944,6.875
1.27880859375,31.937,6.875
1.27929687500,31.930,6.875
1.27978515625,31.924,6.875
1.28027343750,31.917,6.875
1.28076171875,31.910,6.875
1.28125000000,31.903,6.875
1.28173828125,31.897,6.875
1.28222656250,31.890,6.875
1.28271484375,31.883,6.875
1.28320312500,31.876,6.875
1.28369140625,31.869,6.875
1.28417968750,31.862,6.875
1.28466796875,31.856,6.875
1.28515625000,31.849,6.875
1.28564453125,31.842,6.875
1.28613281250,31.835,6.875
1.28662109375,31.828,6.875
1.28710937500,31.821,6.875
1.28759765625,31.814,6.875
1.28808593750,31.808,6.875
1.28857421875,31.801,6.875
1.28906250000,31.794,6.875
1.28955078125,31.787,6.876
1.29003906250,31.780,6.876
1.29052734375,31.773,6.876
1.29101562500,31.766,6.876
1.29150390625,31.759,6.876
1.29199218750,31.753,6.876
1.29248046875,31.746,6.876
1.29296875000,31.739,6.876
1.29345703125,31.732,6.876
1.29394531250,31.725,6.876
1.29443359375,31.718,6.876
1.29492187500,31.711,6.876
1.29541015625,31.704,6.876
1.29589843750,31.698,6.876
1.29638671875,31.691,6.876
1.29687500000,31.684,6.876
1.29736328125,31.677,6.876
1.29785156250,31.670,6.876
1.29833984375,31.663,6.876
1.29882812500,31.657,6.876
1.29931640625,31.650,6.876
1.29980468750,31.643,6.876
1.30029296875,31.636,6.876
1.30078125000,31.630,6.876
1.30126953125,31.623,6.876
1.30175781250,31.616,6.876
1.30224609375,31.609,6.876
1.30273437500,31.603,6.876
1.30322265625,31.596,6.876
1.30371093750,31.590,6.876
1.30419921875,31.583,6.876
1.30468750000,31.576,6.876
1.30517578125,31.570,6.876
1.30566406250,31.563,6.876
1.30615234375,31.557,6.876
1.30664062500,31.550,6.876
1.30712890625,31.544,6.876
1.30761718750,31.537,6.876
1.30810546875,31.531,6.876
1.30859375000,31.524,6.876
1.30908203125,31.518,6.877
1.30957031250,31.512,6.877
1.31005859375,31.506,6.877
1.31054687500,31.499,6.877
1.31103515625,31.493,6.877
1.31152343750,31.487,6.877
1.31201171875,31.481,6.877
1.31250000000,31.475,6.877
1.31298828125,31.469,6.877
1.31347656250,31.463,6.877
1.31396484375,31.457,6.877
1.31445312500,31.451,6.877
1.31494140625,31.445,6.877
1.31542968750,31.439,6.877
1.31591796875,31.433,6.877
1.31640625000,31.428,6.877
1.31689453125,31.422,6.877
1.31738281250,31.416,6.877
1.31787109375,31.411,6.877
1.31835937500,31.405,6.877
1.31884765625,31.400,6.877
1.31933593750,31.394,6.877
1.31982421875,31.389,6.877
1.32031250000,31.383,6.877
1.32080078125,31.378,6.877
1.32128906250,31.373,6.877
1.32177734375,31.368,6.877
1.32226562500,31.362,6.877
1.32275390625,31.357,6.877
1.32324218750,31.352,6.877
1.32373046875,31.347,6.877
1.32421875000,31.342,6.877
1.32470703125,31.337,6.877
1.32519531250,31.332,6.877
1.32568359375,31.328,6.877
1.32617187500,31.323,6.877
1.32666015625,31.318,6.877
1.32714843750,31.313,6.877
1.32763671875,31.309,6.877
1.32812500000,31.304,6.877
1.32861328125,31.300,6.878
1.32910156250,31.295,6.878
1.32958984375,31.291,6.878
1.33007812500,31.286,6.878
1.33056640625,31.282,6.878
1.33105468750,31.278,6.878
1.33154296875,31.273,6.878
1.33203125000,31.269,6.878
1.33251953125,31.265,6.878
1.33300781250,31.261,6.878
1.33349609375,31.257,6.878
1.33398437500,31.253,6.878
1.33447265625,31.249,6.878
1.33496093750,31.245,6.878
1.33544921875,31.241,6.878
1.33593750000,31.237,6.878
1.33642578125,31.233,6.878
1.33691406250,31.230,6.878
1.33740234375,31.226,6.878
1.33789062500,31.222,6.878
1.33837890625,31.219,6.878
1.33886718750,31.215,6.878
1.33935546875,31.211,6.878
1.33984375000,31.208,6.878
1.34033203125,31.204,6.878
1.34082031250,31.201,6.878
1.34130859375,31.198,6.878
1.34179687500,31.194,6.878
1.34228515625,31.191,6.878
1.34277343750,31.187,6.878
1.34326171875,31.184,6.878
1.34375000000,31.181,6.878
1.34423828125,31.178,6.878
1.34472656250,31.175,6.878
1.34521484375,31.171,6.878
1.34570312500,31.168,6.878
1.34619140625,31.165,6.878
1.34667968750,31.162,6.878
1.34716796875,31.159,6.878
1.34765625000,31.156,6.878
1.34814453125,31.153,6.879
1.34863281250,31.150,6.879
1.34912109375,31.147,6.879
1.34960937500,31.144,6.879
1.35009765625,31.141,6.879
1.35058593750,31.138,6.879
1.35107421875,31.136,6.879
1.35156250000,31.133,6.879
1.35205078125,31.130,6.879
1.35253906250,31.127,6.879
1.35302734375,31.124,6.879
1.35351562500,31.121,6.879
1.35400390625,31.119,6.879
1.35449218750,31.116,6.879
1.35498046875,31.113,6.879
1.35546875000,31.111,6.879
1.35595703125,31.108,6.879
1.35644531250,31.105,6.879
1.35693359375,31.103,6.879
1.35742187500,31.100,6.879
1.35791015625,31.097,6.879
1.35839843750,31.095,6.879
1.35888671875,31.092,6.879
1.35937500000,31.090,6.879
1.35986328125,31.087,6.879
1.36035156250,31.084,6.879
1.36083984375,31.082,6.879
1.36132812500,31.079,6.879
1.36181640625,31.077,6.879
1.36230468750,31.074,6.879
1.36279296875,31.072,6.879
1.36328125000,31.070,6.879
1.36376953125,31.067,6.879
1.36425781250,31.065,6.879
1.36474609375,31.062,6.879
1.36523437500,31.060,6.879
1.36572265625,31.058,6.879
1.36621093750,31.055,6.879
1.36669921875,31.053,6.879
1.36718750000,31.051,6.879
1.36767578125,31.048,6.880
1.36816406250,31.046,6.880
1.36865234375,31.044,6.880
1.36914062500,31.041,6.880
1.36962890625,31.039,6.880
1.37011718750,31.037,6.880
1.37060546875,31.035,6.880
1.37109375000,31.032,6.880
1.37158203125,31.030,6.880
1.37207031250,31.028,6.880
1.37255859375,31.025,6.880
1.37304687500,31.023,6.880
1.37353515625,31.021,6.880
1.37402343750,31.019,6.880
1.37451171875,31.017,6.880
1.37500000000,31.014,6.880
1.37548828125,31.012,6.880
1.37597656250,31.010,6.880
1.37646484375,31.008,6.880
1.37695312500,31.005,6.880
1.37744140625,31.003,6.880
1.37792968750,31.001,6.880
1.37841796875,30.999,6.880
1.37890625000,30.997,6.880
1.37939453125,30.995,6.880
1.37988281250,30.992,6.880
1.38037109375,30.990,6.880
1.38085937500,30.988,6.880
1.38134765625,30.986,6.880
1.38183593750,30.984,6.880
1.38232421875,30.982,6.880
1.38281250000,30.979,6.880
1.38330078125,30.977,6.880
1.38378906250,30.975,6.880
1.38427734375,30.973,6.880
1.38476562500,30.971,6.880
1.38525390625,30.969,6.880
1.38574218750,30.967,6.880
1.38623046875,30.964,6.880
1.38671875000,30.962,6.880
1.38720703125,30.960,6.880
1.38769531250,30.958,6.880
1.38818359375,30.956,6.880
1.38867187500,30.954,6.880
1.38916015625,30.952,6.880
1.38964843750,30.950,6.880
1.39013671875,30.948,6.880
1.39062500000,30.946,6.880
1.39111328125,30.944,6.881
1.39160156250,30.942,6.881
1.39208984375,30.940,6.881
1.39257812500,30.937,6.881
1.39306640625,30.935,6.881
1.39355468750,30.933,6.881
1.39404296875,30.931,6.881
1.39453125000,30.929,6.881
1.39501953125,30.927,6.881
1.39550781250,30.925,6.881
1.39599609375,30.923,6.881
1.39648437500,30.921,6.881
1.39697265625,30.919,6.881
1.39746093750,30.917,6.881
1.39794921875,30.915,6.881
1.39843750000,30.913,6.881
1.39892578125,30.911,6.881
1.39941406250,30.909,6.881
1.39990234375,30.907,6.881
1.40039062500,30.905,6.881
1.40087890625,30.903,6.881
1.40136718750,30.901,6.881
1.40185546875,30.899,6.881
1.40234375000,30.897,6.881
1.40283203125,30.895,6.881
1.40332031250,30.893,6.881
1.40380859375,30.891,6.881
1.40429687500,30.888,6.881
1.40478515625,30.886,6.881
1.40527343750,30.884,6.881
1.40576171875,30.882,6.881
1.40625000000,30.880,6.881
1.40673828125,30.878,6.881
1.40722656250,30.876,6.881
1.40771484375,30.874,6.881
1.40820312500,30.872,6.881
1.40869140625,30.870,6.881
1.40917968750,30.867,6.881
1.40966796875,30.865,6.881
1.41015625000,30.863,6.881
1.41064453125,30.861,6.881
1.41113281250,30.859,6.881
1.41162109375,30.857,6.881
1.41210937500,30.854,6.881
1.41259765625,30.852,6.881
1.41308593750,30.850,6.881
1.41357421875,30.848,6.881
1.41406250000,30.845,6.881
1.41455078125,30.843,6.881
1.41503906250,30.841,6.881
1.41552734375,30.839,6.881
1.41601562500,30.836,6.881
1.41650390625,30.834,6.881
1.41699218750,30.832,6.881
1.41748046875,30.829,6.881
1.41796875000,30.827,6.881
1.41845703125,30.824,6.881
1.41894531250,30.822,6.881
1.41943359375,30.820,6.881
1.41992187500,30.817,6.881
1.42041015625,30.815,6.881
1.42089843750,30.812,6.881
1.42138671875,30.809,6.881
1.42187500000,30.807,6.881
1.42236328125,30.804,6.881
1.42285156250,30.802,6.881
1.42333984375,30.799,6.881
1.42382812500,30.796,6.881
1.42431640625,30.794,6.881
1.42480468750,30.791,6.881
1.42529296875,30.788,6.881
1.42578125000,30.786,6.881
1.42626953125,30.783,6.881
1.42675781250,30.780,6.881
1.42724609375,30.777,6.881
1.42773437500,30.775,6.881
1.42822265625,30.772,6.881
1.42871093750,30.769,6.881
1.42919921875,30.766,6.881
1.42968750000,30.763,6.881
1.43017578125,30.760,6.882
1.43066406250,30.757,6.882
1.43115234375,30.754,6.882
1.43164062500,30.751,6.882
1.43212890625,30.748,6.882
1.43261718750,30.745,6.882
1.43310546875,30.742,6.882
1.43359375000,30.739,6.882
1.43408203125,30.736,6.881
1.43457031250,30.733,6.881
1.43505859375,30.730,6.881
1.43554687500,30.727,6.881
1.43603515625,30.724,6.881
1.43652343750,30.721,6.881
1.43701171875,30.718,6.881
1.43750000000,30.715,6.881
1.43798828125,30.711,6.881
1.43847656250,30.708,6.881
1.43896484375,30.705,6.881
1.43945312500,30.702,6.881
1.43994140625,30.699,6.881
1.44042968750,30.696,6.881
1.44091796875,30.692,6.881
1.44140625000,30.689,6.881
1.44189453125,30.686,6.881
1.44238281250,30.683,6.881
1.44287109375,30.679,6.881
1.44335937500,30.676,6.881
1.44384765625,30.673,6.881
1.44433593750,30.670,6.881
1.44482421875,30.667,6.881
1.44531250000,30.663,6.881
1.44580078125,30.660,6.882
1.44628906250,30.657,6.882
1.44677734375,30.654,6.882
1.44726562500,30.650,6.882
1.44775390625,30.647,6.882
1.44824218750,30.644,6.882
1.44873046875,30.641,6.882
1.44921875000,30.637,6.882
1.44970703125,30.634,6.882
1.45019531250,30.631,6.882
1.45068359375,30.628,6.882
1.45117187500,30.624,6.882
1.45166015625,30.621,6.882
1.45214843750,30.618,6.882
1.45263671875,30.615,6.882
1.45312500000,30.612,6.882
1.45361328125,30.609,6.882
1.45410156250,30.605,6.882
1.45458984375,30.602,6.882
1.45507812500,30.599,6.882
1.45556640625,30.596,6.882
1.45605468750,30.593,6.882
1.45654296875,30.590,6.882
1.45703125000,30.587,6.882
1.45751953125,30.584,6.881
1.45800781250,30.581,6.881
1.45849609375,30.578,6.881
1.45898437500,30.575,6.881
1.45947265625,30.572,6.881
1.45996093750,30.569,6.881
1.46044921875,30.566,6.881
1.46093750000,30.563,6.881
1.46142578125,30.560,6.881
1.46191406250,30.558,6.881
1.46240234375,30.555,6.881
1.46289062500,30.552,6.881
1.46337890625,30.549,6.881
1.46386718750,30.546,6.881
1.46435546875,30.544,6.881
1.46484375000,30.541,6.881
1.46533203125,30.538,6.881
1.46582031250,30.536,6.881
1.46630859375,30.533,6.881
1.46679687500,30.530,6.881
1.46728515625,30.528,6.881
1.46777343750,30.525,6.881
1.46826171875,30.523,6.881
1.46875000000,30.520,6.881
1.46923828125,30.518,6.882
1.46972656250,30.515,6.882
1.47021484375,30.513,6.882
1.47070312500,30.511,6.882
1.47119140625,30.508,6.882
1.47167968750,30.506,6.882
1.47216796875,30.504,6.882
1.47265625000,30.501,6.882
1.47314453125,30.499,6.882
1.47363281250,30.497,6.882
1.47412109375,30.495,6.882
1.47460937500,30.493,6.882
1.47509765625,30.491,6.882
1.47558593750,30.489,6.882
1.47607421875,30.486,6.882
1.47656250000,30.484,6.882
1.47705078125,30.483,6.881
1.47753906250,30.481,6.881
1.47802734375,30.479,6.881
1.47851562500,30.477,6.881
1.47900390625,30.475,6.881
1.47949218750,30.473,6.881
1.47998046875,30.471,6.881
1.48046875000,30.470,6.881
1.48095703125,30.468,6.881
1.48144531250,30.466,6.881
1.48193359375,30.465,6.881
1.48242187500,30.463,6.881
1.48291015625,30.462,6.881
1.48339843750,30.460,6.881
1.48388671875,30.459,6.881
1.48437500000,30.457,6.881
1.48486328125,30.456,6.881
1.48535156250,30.455,6.881
1.48583984375,30.453,6.881
1.48632812500,30.452,6.881
1.48681640625,30.451,6.881
1.48730468750,30.450,6.881
1.48779296875,30.448,6.881
1.48828125000,30.447,6.881
1.48876953125,30.446,6.881
1.48925781250,30.445,6.881
1.48974609375,30.444,6.881
1.49023437500,30.443,6.881
1.49072265625,30.442,6.881
1.49121093750,30.441,6.881
1.49169921875,30.440,6.881
1.49218750000,30.440,6.881
1.49267578125,30.439,6.881
1.49316406250,30.438,6.881
1.49365234375,30.437,6.881
1.49414062500,30.437,6.881
1.49462890625,30.436,6.881
1.49511718750,30.436,6.881
1.49560546875,30.435,6.881
1.49609375000,30.435,6.881
1.49658203125,30.434,6.881
1.49707031250,30.434,6.881
1.49755859375,30.433,6.881
1.49804687500,30.433,6.881
1.49853515625,30.433,6.881
1.49902343750,30.432,6.881
1.49951171875,30.432,6.881
1.50000000000,30.432,6.881
1.50048828125,30.432,6.881
1.50097656250,30.432,6.881
1.50146484375,30.432,6.881
1.50195312500,30.432,6.881
1.50244140625,30.432,6.881
1.50292968750,30.432,6.881
1.50341796875,30.432,6.881
1.50390625000,30.432,6.881
1.50439453125,30.432,6.881
1.50488281250,30.432,6.881
1.50537109375,30.433,6.881
1.50585937500,30.433,6.881
1.50634765625,30.433,6.881
1.50683593750,30.433,6.881
1.50732421875,30.434,6.881
1.50781250000,30.434,6.881
1.50830078125,30.434,6.881
1.50878906250,30.435,6.881
1.50927734375,30.435,6.881
1.50976562500,30.436,6.881
1.51025390625,30.436,6.881
1.51074218750,30.437,6.881
1.51123046875,30.438,6.881
1.51171875000,30.438,6.881
1.51220703125,30.439,6.881
1.51269531250,30.439,6.881
1.51318359375,30.440,6.881
1.51367187500,30.441,6.881
1.51416015625,30.441,6.881
1.51464843750,30.442,6.881
1.51513671875,30.443,6.881
1.51562500000,30.444,6.881
1.51611328125,30.444,6.881
1.51660156250,30.445,6.881
1.51708984375,30.446,6.881
1.51757812500,30.447,6.881
1.51806640625,30.448,6.881
1.51855468750,30.448,6.881
1.51904296875,30.449,6.881
1.51953125000,30.450,6.881
1.52001953125,30.451,6.880
1.52050781250,30.452,6.880
1.52099609375,30.453,6.880
1.52148437500,30.454,6.880
1.52197265625,30.455,6.880
1.52246093750,30.455,6.880
1.52294921875,30.456,6.880
1.52343750000,30.457,6.880
1.52392578125,30.458,6.880
1.52441406250,30.459,6.880
1.52490234375,30.460,6.880
1.52539062500,30.461,6.880
1.52587890625,30.462,6.880
1.52636718750,30.463,6.880
1.52685546875,30.464,6.880
1.52734375000,30.465,6.880
1.52783203125,30.466,6.880
1.52832031250,30.466,6.880
1.52880859375,30.467,6.880
1.52929687500,30.468,6.880
1.52978515625,30.469,6.880
1.53027343750,30.470,6.880
1.53076171875,30.471,6.880
1.53125000000,30.472,6.880
1.53173828125,30.473,6.880
1.53222656250,30.475,6.880
1.53271484375,30.476,6.880
1.53320312500,30.477,6.880
1.53369140625,30.478,6.880
1.53417968750,30.479,6.880
1.53466796875,30.480,6.880
1.53515625000,30.482,6.880
1.53564453125,30.483,6.880
1.53613281250,30.484,6.880
1.53662109375,30.486,6.880
1.53710937500,30.487,6.880
1.53759765625,30.488,6.880
1.53808593750,30.490,6.880
1.53857421875,30.492,6.880
1.53906250000,30.493,6.880
1.53955078125,30.495,6.879
1.54003906250,30.497,6.879
1.54052734375,30.499,6.879
1.54101562500,30.501,6.879
1.54150390625,30.503,6.879
1.54199218750,30.505,6.879
1.54248046875,30.507,6.879
1.54296875000,30.510,6.879
1.54345703125,30.512,6.879
1.54394531250,30.515,6.879
1.54443359375,30.518,6.879
1.54492187500,30.521,6.879
1.54541015625,30.524,6.879
1.54589843750,30.527,6.879
1.54638671875,30.531,6.879
1.54687500000,30.534,6.879
1.54736328125,30.538,6.879
1.54785156250,30.542,6.879
1.54833984375,30.546,6.879
1.54882812500,30.551,6.879
1.54931640625,30.555,6.879
1.54980468750,30.560,6.879
1.55029296875,30.565,6.879
1.55078125000,30.570,6.879
1.55126953125,30.576,6.879
1.55175781250,30.581,6.879
1.55224609375,30.587,6.879
1.55273437500,30.594,6.879
1.55322265625,30.600,6.879
1.55371093750,30.607,6.879
1.55419921875,30.614,6.879
1.55468750000,30.621,6.879
1.55517578125,30.629,6.879
1.55566406250,30.637,6.879
1.55615234375,30.645,6.879
1.55664062500,30.654,6.879
1.55712890625,30.663,6.879
1.55761718750,30.672,6.879
1.55810546875,30.682,6.879
1.55859375000,30.692,6.879
1.55908203125,30.703,6.878
1.55957031250,30.713,6.878
1.56005859375,30.725,6.878
1.56054687500,30.736,6.878
1.56103515625,30.748,6.878
1.56152343750,30.761,6.878
1.56201171875,30.773,6.878
1.56250000000,30.787,6.878
1.56298828125,30.800,6.878
1.56347656250,30.814,6.878
1.56396484375,30.829,6.878
1.56445312500,30.844,6.878
1.56494140625,30.859,6.878
1.56542968750,30.875,6.878
1.56591796875,30.891,6.878
1.56640625000,30.908,6.878
1.56689453125,30.926,6.878
1.56738281250,30.943,6.878
1.56787109375,30.961,6.878
1.56835937500,30.980,6.878
1.56884765625,30.999,6.878
1.56933593750,31.019,6.878
1.56982421875,31.039,6.878
1.57031250000,31.060,6.878
1.57080078125,31.081,6.878
1.57128906250,31.103,6.878
1.57177734375,31.125,6.878
1.57226562500,31.147,6.878
1.57275390625,31.170,6.878
1.57324218750,31.194,6.878
1.57373046875,31.218,6.878
1.57421875000,31.243,6.878
1.57470703125,31.268,6.877
1.57519531250,31.294,6.877
1.57568359375,31.320,6.877
1.57617187500,31.347,6.877
1.57666015625,31.374,6.877
1.57714843750,31.401,6.877
1.57763671875,31.430,6.877
1.57812500000,31.458,6.877
1.57861328125,31.487,6.877
1.57910156250,31.517,6.877
1.57958984375,31.547,6.877
1.58007812500,31.578,6.877
1.58056640625,31.609,6.877
1.58105468750,31.641,6.877
1.58154296875,31.673,6.877
1.58203125000,31.705,6.877
1.58251953125,31.738,6.877
1.58300781250,31.772,6.877
1.58349609375,31.806,6.877
1.58398437500,31.840,6.877
1.58447265625,31.875,6.877
1.58496093750,31.911,6.877
1.58544921875,31.946,6.877
1.58593750000,31.983,6.877
1.58642578125,32.019,6.876
1.58691406250,32.056,6.876
1.58740234375,32.094,6.876
1.58789062500,32.132,6.876
1.58837890625,32.170,6.876
1.58886718750,32.209,6.876
1.58935546875,32.248,6.876
1.58984375000,32.287,6.876
1.59033203125,32.327,6.876
1.59082031250,32.367,6.876
1.59130859375,32.408,6.876
1.59179687500,32.449,6.876
1.59228515625,32.490,6.876
1.59277343750,32.531,6.876
1.59326171875,32.573,6.876
1.59375000000,32.615,6.876
1.59423828125,32.658,6.876
1.59472656250,32.700,6.876
1.59521484375,32.743,6.876
1.59570312500,32.787,6.876
1.59619140625,32.830,6.876
1.59667968750,32.874,6.876
1.59716796875,32.918,6.876
1.59765625000,32.962,6.876
1.59814453125,33.007,6.875
1.59863281250,33.051,6.875
1.59912109375,33.096,6.875
1.59960937500,33.141,6.875
1.60009765625,33.186,6.875
1.60058593750,33.232,6.875
1.60107421875,33.277,6.875
1.60156250000,33.323,6.875
1.60205078125,33.368,6.875
1.60253906250,33.414,6.875
1.60302734375,33.460,6.875
1.60351562500,33.506,6.875
1.60400390625,33.552,6.875
1.60449218750,33.598,6.875
1.60498046875,33.644,6.875
1.60546875000,33.691,6.875
1.60595703125,33.737,6.875
1.60644531250,33.783,6.875
1.60693359375,33.829,6.875
1.60742187500,33.876,6.875
1.60791015625,33.922,6.875
1.60839843750,33.968,6.875
1.60888671875,34.014,6.875
1.60937500000,34.060,6.875
1.60986328125,34.106,6.875
1.61035156250,34.152,6.875
1.61083984375,34.198,6.875
1.61132812500,34.244,6.875
1.61181640625,34.290,6.875
1.61230468750,34.335,6.875
1.61279296875,34.381,6.875
1.61328125000,34.426,6.875
1.61376953125,34.471,6.874
1.61425781250,34.516,6.874
1.61474609375,34.561,6.874
1.61523437500,34.606,6.874
1.61572265625,34.650,6.874
1.61621093750,34.694,6.874
1.61669921875,34.738,6.874
1.61718750000,34.782,6.874
1.61767578125,34.825,6.874
1.61816406250,34.869,6.874
1.61865234375,34.912,6.874
1.61914062500,34.954,6.874
1.61962890625,34.997,6.874
1.62011718750,35.039,6.874
1.62060546875,35.081,6.874
1.62109375000,35.122,6.874
1.62158203125,35.164,6.873
1.62207031250,35.205,6.873
1.62255859375,35.245,6.873
1.62304687500,35.286,6.873
1.62353515625,35.325,6.873
1.62402343750,35.365,6.873
1.62451171875,35.404,6.873
1.62500000000,35.443,6.873
1.62548828125,35.482,6.873
1.62597656250,35.520,6.873
1.62646484375,35.557,6.873
1.62695312500,35.595,6.873
1.62744140625,35.631,6.873
1.62792968750,35.668,6.873
1.62841796875,35.704,6.873
1.62890625000,35.740,6.873
1.62939453125,35.775,6.873
1.62988281250,35.810,6.873
1.63037109375,35.844,6.873
1.63085937500,35.878,6.873
1.63134765625,35.911,6.873
1.63183593750,35.944,6.873
1.63232421875,35.977,6.873
1.63281250000,36.009,6.873
1.63330078125,36.041,6.872
1.63378906250,36.072,6.872
1.63427734375,36.103,6.872
1.63476562500,36.133,6.872
1.63525390625,36.163,6.872
1.63574218750,36.192,6.872
1.63623046875,36.221,6.872
1.63671875000,36.249,6.872
1.63720703125,36.277,6.871
1.63769531250,36.304,6.871
1.63818359375,36.331,6.871
1.63867187500,36.358,6.871
1.63916015625,36.384,6.871
1.63964843750,36.409,6.871
1.64013671875,36.434,6.871
1.64062500000,36.458,6.871
1.64111328125,36.482,6.871
1.64160156250,36.506,6.871
1.64208984375,36.529,6.871
1.64257812500,36.551,6.871
1.64306640625,36.574,6.871
1.64355468750,36.595,6.871
1.64404296875,36.616,6.871
1.64453125000,36.637,6.871
1.64501953125,36.657,6.870
1.64550781250,36.676,6.870
1.64599609375,36.695,6.870
1.64648437500,36.714,6.870
1.64697265625,36.732,6.870
1.64746093750,36.750,6.870
1.64794921875,36.767,6.870
1.64843750000,36.784,6.870
1.64892578125,36.800,6.870
1.64941406250,36.816,6.870
1.64990234375,36.831,6.870
1.65039062500,36.846,6.870
1.65087890625,36.861,6.870
1.65136718750,36.875,6.870
1.65185546875,36.888,6.870
1.65234375000,36.901,6.870
1.65283203125,36.914,6.870
1.65332031250,36.926,6.870
1.65380859375,36.938,6.870
1.65429687500,36.949,6.870
1.65478515625,36.960,6.870
1.65527343750,36.970,6.870
1.65576171875,36.980,6.870
1.65625000000,36.990,6.870
1.65673828125,36.999,6.869
1.65722656250,37.008,6.869
1.65771484375,37.016,6.869
1.65820312500,37.024,6.869
1.65869140625,37.032,6.869
1.65917968750,37.039,6.869
1.65966796875,37.046,6.869
1.66015625000,37.052,6.869
1.66064453125,37.058,6.869
1.66113281250,37.064,6.869
1.66162109375,37.069,6.869
1.66210937500,37.074,6.869
1.66259765625,37.078,6.869
1.66308593750,37.083,6.869
1.66357421875,37.086,6.869
1.66406250000,37.090,6.869
1.66455078125,37.093,6.868
1.66503906250,37.096,6.868
1.66552734375,37.098,6.868
1.66601562500,37.100,6.868
1.66650390625,37.102,6.868
1.66699218750,37.103,6.868
1.66748046875,37.104,6.868
1.66796875000,37.105,6.868
1.66845703125,37.105,6.868
1.66894531250,37.105,6.868
1.66943359375,37.105,6.868
1.66992187500,37.104,6.868
1.67041015625,37.103,6.868
1.67089843750,37.102,6.868
1.67138671875,37.101,6.868
1.67187500000,37.099,6.868
1.67236328125,37.097,6.867
1.67285156250,37.095,6.867
1.67333984375,37.092,6.867
1.67382812500,37.089,6.867
1.67431640625,37.086,6.867
1.67480468750,37.082,6.867
1.67529296875,37.079,6.867
1.67578125000,37.075,6.867
1.67626953125,37.070,6.867
1.67675781250,37.066,6.867
1.67724609375,37.061,6.867
1.67773437500,37.056,6.867
1.67822265625,37.051,6.867
1.67871093750,37.045,6.867
1.67919921875,37.040,6.867
1.67968750000,37.034,6.867
1.68017578125,37.027,6.866
1.68066406250,37.021,6.866
1.68115234375,37.014,6.866
1.68164062500,37.007,6.866
1.68212890625,37.000,6.866
1.68261718750,36.993,6.866
1.68310546875,36.985,6.866
1.68359375000,36.978,6.866
1.68408203125,36.970,6.865
1.68457031250,36.961,6.865
1.68505859375,36.953,6.865
1.68554687500,36.944,6.865
1.68603515625,36.936,6.865
1.68652343750,36.927,6.865
1.68701171875,36.917,6.865
1.68750000000,36.908,6.865
1.68798828125,36.899,6.865
1.68847656250,36.889,6.865
1.68896484375,36.879,6.865
1.68945312500,36.869,6.865
1.68994140625,36.859,6.865
1.69042968750,36.848,6.865
1.69091796875,36.838,6.865
1.69140625000,36.827,6.865
1.69189453125,36.816,6.865
1.69238281250,36.805,6.865
1.69287109375,36.793,6.865
1.69335937500,36.782,6.865
1.69384765625,36.771,6.865
1.69433593750,36.759,6.865
1.69482421875,36.747,6.865
1.69531250000,36.735,6.865
1.69580078125,36.723,6.864
1.69628906250,36.711,6.864
1.69677734375,36.698,6.864
1.69726562500,36.686,6.864
1.69775390625,36.673,6.864
1.69824218750,36.660,6.864
1.69873046875,36.647,6.864
1.69921875000,36.634,6.864
1.69970703125,36.621,6.863
1.70019531250,36.608,6.863
1.70068359375,36.594,6.863
1.70117187500,36.581,6.863
1.70166015625,36.567,6.863
1.70214843750,36.553,6.863
1.70263671875,36.540,6.863
1.70312500000,36.526,6.863
1.70361328125,36.512,6.863
1.70410156250,36.497,6.863
1.70458984375,36.483,6.863
1.70507812500,36.469,6.863
1.70556640625,36.454,6.863
1.70605468750,36.440,6.863
1.70654296875,36.425,6.863
1.70703125000,36.410,6.863
1.70751953125,36.395,6.862
1.70800781250,36.381,6.862
1.70849609375,36.365,6.862
1.70898437500,36.350,6.862
1.70947265625,36.335,6.862
1.70996093750,36.320,6.862
1.71044921875,36.305,6.862
1.71093750000,36.289,6.862
1.71142578125,36.274,6.862
1.71191406250,36.258,6.862
1.71240234375,36.242,6.862
1.71289062500,36.227,6.862
1.71337890625,36.211,6.862
1.71386718750,36.195,6.862
1.71435546875,36.179,6.862
1.71484375000,36.163,6.862
1.71533203125,36.147,6.861
1.71582031250,36.131,6.861
1.71630859375,36.115,6.861
1.71679687500,36.099,6.861
1.71728515625,36.082,6.861
1.71777343750,36.066,6.861
1.71826171875,36.050,6.861
1.71875000000,36.033,6.861
1.71923828125,36.017,6.860
1.71972656250,36.000,6.860
1.72021484375,35.984,6.860
1.72070312500,35.967,6.860
1.72119140625,35.950,6.860
1.72167968750,35.934,6.860
1.72216796875,35.917,6.860
1.72265625000,35.900,6.860
1.72314453125,35.883,6.860
1.72363281250,35.866,6.860
1.72412109375,35.850,6.860
1.72460937500,35.833,6.860
1.72509765625,35.816,6.860
1.72558593750,35.799,6.860
1.72607421875,35.782,6.860
1.72656250000,35.765,6.860
1.72705078125,35.748,6.859
1.72753906250,35.731,6.859
1.72802734375,35.713,6.859
1.72851562500,35.696,6.859
1.72900390625,35.679,6.859
1.72949218750,35.662,6.859
1.72998046875,35.645,6.859
1.73046875000,35.628,6.859
1.73095703125,35.611,6.859
1.73144531250,35.594,6.859
1.73193359375,35.576,6.859
1.73242187500,35.559,6.859
1.73291015625,35.542,6.859
1.73339843750,35.525,6.859
1.73388671875,35.508,6.859
1.73437500000,35.491,6.859
1.73486328125,35.474,6.858
1.73535156250,35.456,6.858
1.73583984375,35.439,6.858
1.73632812500,35.422,6.858
1.73681640625,35.405,6.858
1.73730468750,35.388,6.858
1.73779296875,35.371,6.858
1.73828125000,35.354,6.858
1.73876953125,35.337,6.857
1.73925781250,35.320,6.857
1.73974609375,35.303,6.857
1.74023437500,35.286,6.857
1.74072265625,35.269,6.857
1.74121093750,35.252,6.857
1.74169921875,35.235,6.857
1.74218750000,35.218,6.857
1.74267578125,35.201,6.857
1.74316406250,35.185,6.857
1.74365234375,35.168,6.857
1.74414062500,35.151,6.857
1.74462890625,35.134,6.857
1.74511718750,35.118,6.857
1.74560546875,35.101,6.857
1.74609375000,35.084,6.857
1.74658203125,35.068,6.856
1.74707031250,35.051,6.856
1.74755859375,35.035,6.856
1.74804687500,35.018,6.856
1.74853515625,35.002,6.856
1.74902343750,34.986,6.856
1.74951171875,34.969,6.856
1.75000000000,34.953,6.856
1.75048828125,34.937,6.855
1.75097656250,34.921,6.855
1.75146484375,34.905,6.855
1.75195312500,34.889,6.855
1.75244140625,34.873,6.855
1.75292968750,34.857,6.855
1.75341796875,34.841,6.855
1.75390625000,34.825,6.855
1.75439453125,34.809,6.855
1.75488281250,34.793,6.855
1.75537109375,34.778,6.855
1.75585937500,34.762,6.855
1.75634765625,34.746,6.855
1.75683593750,34.731,6.855
1.75732421875,34.715,6.855
1.75781250000,34.700,6.855
1.75830078125,34.685,6.854
1.75878906250,34.669,6.854
1.75927734375,34.654,6.854
1.75976562500,34.639,6.854
1.76025390625,34.624,6.854
1.76074218750,34.609,6.854
1.76123046875,34.594,6.854
1.76171875000,34.579,6.854
1.76220703125,34.564,6.853
1.76269531250,34.549,6.853
1.76318359375,34.534,6.853
1.76367187500,34.520,6.853
1.76416015625,34.505,6.853
1.76464843750,34.490,6.853
1.76513671875,34.476,6.853
1.76562500000,34.461,6.853
1.76611328125,34.447,6.853
1.76660156250,34.432,6.853
1.76708984375,34.418,6.853
1.76757812500,34.404,6.853
1.76806640625,34.389,6.853
1.76855468750,34.375,6.853
1.76904296875,34.361,6.853
1.76953125000,34.347,6.853
1.77001953125,34.333,6.852
1.77050781250,34.319,6.852
1.77099609375,34.305,6.852
1.77148437500,34.291,6.852
1.77197265625,34.277,6.852
1.77246093750,34.263,6.852
1.77294921875,34.249,6.852
1.77343750000,34.235,6.852
1.77392578125,34.222,6.852
1.77441406250,34.208,6.852
1.77490234375,34.194,6.852
1.77539062500,34.181,6.852
1.77587890625,34.167,6.852
1.77636718750,34.153,6.852
1.77685546875,34.140,6.852
1.77734375000,34.126,6.852
1.77783203125,34.113,6.851
1.77832031250,34.099,6.851
1.77880859375,34.086,6.851
1.77929687500,34.073,6.851
1.77978515625,34.059,6.851
1.78027343750,34.046,6.851
1.78076171875,34.033,6.851
1.78125000000,34.019,6.851
1.78173828125,34.006,6.850
1.78222656250,33.993,6.850
1.78271484375,33.980,6.850
1.78320312500,33.967,6.850
1.78369140625,33.954,6.850
1.78417968750,33.940,6.850
1.78466796875,33.927,6.850
1.78515625000,33.914,6.850
1.78564453125,33.901,6.849
1.78613281250,33.888,6.849
1.78662109375,33.875,6.849
1.78710937500,33.862,6.849
1.78759765625,33.849,6.849
1.78808593750,33.836,6.849
1.78857421875,33.823,6.849
1.78906250000,33.811,6.849
1.78955078125,33.798,6.849
1.79003906250,33.785,6.849
1.79052734375,33.772,6.849
1.79101562500,33.759,6.849
1.79150390625,33.746,6.849
1.79199218750,33.734,6.849
1.79248046875,33.721,6.849
1.79296875000,33.708,6.849
1.79345703125,33.696,6.848
1.79394531250,33.683,6.848
1.79443359375,33.670,6.848
1.79492187500,33.658,6.848
1.79541015625,33.645,6.848
1.79589843750,33.633,6.848
1.79638671875,33.620,6.848
1.79687500000,33.608,6.848
1.79736328125,33.596,6.847
1.79785156250,33.583,6.847
1.79833984375,33.571,6.847
1.79882812500,33.559,6.847
1.79931640625,33.547,6.847
1.79980468750,33.534,6.847
1.80029296875,33.522,6.847
1.80078125000,33.510,6.847
1.80126953125,33.498,6.847
1.80175781250,33.486,6.847
1.80224609375,33.474,6.847
1.80273437500,33.462,6.847
1.80322265625,33.450,6.847
1.80371093750,33.439,6.847
1.80419921875,33.427,6.847
1.80468750000,33.415,6.847
1.80517578125,33.404,6.846
1.80566406250,33.392,6.846
1.80615234375,33.381,6.846
1.80664062500,33.369,6.846
1.80712890625,33.358,6.846
1.80761718750,33.347,6.846
1.80810546875,33.335,6.846
1.80859375000,33.324,6.846
1.80908203125,33.313,6.845
1.80957031250,33.302,6.845
1.81005859375,33.291,6.845
1.81054687500,33.280,6.845
1.81103515625,33.270,6.845
1.81152343750,33.259,6.845
1.81201171875,33.249,6.845
1.81250000000,33.238,6.845
1.81298828125,33.228,6.845
1.81347656250,33.217,6.845
1.81396484375,33.207,6.845
1.81445312500,33.197,6.845
1.81494140625,33.187,6.845
1.81542968750,33.177,6.845
1.81591796875,33.168,6.845
1.81640625000,33.158,6.845
1.81689453125,33.148,6.844
1.81738281250,33.139,6.844
1.81787109375,33.130,6.844
1.81835937500,33.120,6.844
1.81884765625,33.111,6.844
1.81933593750,33.102,6.844
1.81982421875,33.094,6.844
1.82031250000,33.085,6.844
1.82080078125,33.076,6.843
1.82128906250,33.068,6.843
1.82177734375,33.060,6.843
1.82226562500,33.051,6.843
1.82275390625,33.043,6.843
1.82324218750,33.035,6.843
1.82373046875,33.028,6.843
1.82421875000,33.020,6.843
1.82470703125,33.012,6.842
1.82519531250,33.005,6.842
1.82568359375,32.998,6.842
1.82617187500,32.991,6.842
1.82666015625,32.984,6.842
1.82714843750,32.977,6.842
1.82763671875,32.971,6.842
1.82812500000,32.964,6.842
1.82861328125,32.958,6.842
1.82910156250,32.952,6.842
1.82958984375,32.946,6.842
1.83007812500,32.940,6.842
1.83056640625,32.934,6.842
1.83105468750,32.929,6.842
1.83154296875,32.923,6.842
1.83203125000,32.918,6.842
1.83251953125,32.913,6.841
1.83300781250,32.908,6.841
1.83349609375,32.904,6.841
1.83398437500,32.899,6.841
1.83447265625,32.895,6.841
1.83496093750,32.891,6.841
1.83544921875,32.887,6.841
1.83593750000,32.883,6.841
1.83642578125,32.879,6.840
1.83691406250,32.875,6.840
1.83740234375,32.872,6.840
1.83789062500,32.869,6.840
1.83837890625,32.866,6.840
1.83886718750,32.863,6.840
1.83935546875,32.860,6.840
1.83984375000,32.858,6.840
1.84033203125,32.856,6.839
1.84082031250,32.854,6.839
1.84130859375,32.852,6.839
1.84179687500,32.850,6.839
1.84228515625,32.848,6.839
1.84277343750,32.847,6.839
1.84326171875,32.845,6.839
1.84375000000,32.844,6.839
1.84423828125,32.843,6.839
1.84472656250,32.842,6.839
1.84521484375,32.842,6.839
1.84570312500,32.841,6.839
1.84619140625,32.841,6.839
1.84667968750,32.841,6.839
1.84716796875,32.841,6.839
1.84765625000,32.841,6.839
1.84814453125,32.842,6.838
1.84863281250,32.842,6.838
1.84912109375,32.843,6.838
1.84960937500,32.844,6.838
1.85009765625,32.845,6.838
1.85058593750,32.846,6.838
1.85107421875,32.847,6.838
1.85156250000,32.849,6.838
1.85205078125,32.850,6.837
1.85253906250,32.852,6.837
1.85302734375,32.854,6.837
1.85351562500,32.856,6.837
1.85400390625,32.858,6.837
1.85449218750,32.861,6.837
1.85498046875,32.863,6.837
1.85546875000,32.866,6.837
1.85595703125,32.869,6.836
1.85644531250,32.872,6.836
1.85693359375,32.875,6.836
1.85742187500,32.878,6.836
1.85791015625,32.882,6.836
1.85839843750,32.885,6.836
1.85888671875,32.889,6.836
1.85937500000,32.892,6.836
1.85986328125,32.896,6.835
1.86035156250,32.900,6.835
1.86083984375,32.905,6.835
1.86132812500,32.909,6.835
1.86181640625,32.913,6.835
1.86230468750,32.918,6.835
1.86279296875,32.922,6.835
1.86328125000,32.927,6.835
1.86376953125,32.932,6.834
1.86425781250,32.937,6.834
1.86474609375,32.942,6.834
1.86523437500,32.947,6.834
1.86572265625,32.952,6.834
1.86621093750,32.957,6.834
1.86669921875,32.963,6.834
1.86718750000,32.968,6.834
1.86767578125,32.974,6.834
1.86816406250,32.980,6.834
1.86865234375,32.986,6.834
1.86914062500,32.991,6.834
1.86962890625,32.997,6.834
1.87011718750,33.003,6.834
1.87060546875,33.010,6.834
1.87109375000,33.016,6.834
1.87158203125,33.022,6.833
1.87207031250,33.029,6.833
1.87255859375,33.035,6.833
1.87304687500,33.042,6.833
1.87353515625,33.048,6.833
1.87402343750,33.055,6.833
1.87451171875,33.062,6.833
1.87500000000,33.068,6.833
1.87548828125,33.075,6.832
1.87597656250,33.082,6.832
1.87646484375,33.089,6.832
1.87695312500,33.096,6.832
1.87744140625,33.103,6.832
1.87792968750,33.110,6.832
1.87841796875,33.118,6.832
1.87890625000,33.125,6.832
1.87939453125,33.132,6.831
1.87988281250,33.140,6.831
1.88037109375,33.147,6.831
1.88085937500,33.154,6.831
1.88134765625,33.162,6.831
1.88183593750,33.169,6.831
1.88232421875,33.177,6.831
1.88281250000,33.184,6.831
1.88330078125,33.192,6.830
1.88378906250,33.200,6.830
1.88427734375,33.207,6.830
1.88476562500,33.215,6.830
1.88525390625,33.223,6.830
1.88574218750,33.230,6.830
1.88623046875,33.238,6.830
1.88671875000,33.246,6.830
1.88720703125,33.254,6.830
1.88769531250,33.261,6.830
1.88818359375,33.269,6.830
1.88867187500,33.277,6.830
1.88916015625,33.285,6.830
1.88964843750,33.293,6.830
1.89013671875,33.300,6.830
1.89062500000,33.308,6.830
1.89111328125,33.316,6.829
1.89160156250,33.324,6.829
1.89208984375,33.332,6.829
1.89257812500,33.340,6.829
1.89306640625,33.347,6.829
1.89355468750,33.355,6.829
1.89404296875,33.363,6.829
1.89453125000,33.371,6.829
1.89501953125,33.379,6.828
1.89550781250,33.386,6.828
1.89599609375,33.394,6.828
1.89648437500,33.402,6.828
1.89697265625,33.410,6.828
1.89746093750,33.418,6.828
1.89794921875,33.425,6.828
1.89843750000,33.433,6.828
1.89892578125,33.441,6.827
1.89941406250,33.448,6.827
1.89990234375,33.456,6.827
1.90039062500,33.464,6.827
1.90087890625,33.471,6.827
1.90136718750,33.479,6.827
1.90185546875,33.486,6.827
1.90234375000,33.494,6.827
1.90283203125,33.501,6.826
1.90332031250,33.509,6.826
1.90380859375,33.516,6.826
1.90429687500,33.524,6.826
1.90478515625,33.531,6.826
1.90527343750,33.538,6.826
1.90576171875,33.546,6.826
1.90625000000,33.553,6.826
1.90673828125,33.560,6.825
1.90722656250,33.567,6.825
1.90771484375,33.574,6.825
1.90820312500,33.581,6.825
1.90869140625,33.588,6.825
1.90917968750,33.595,6.825
1.90966796875,33.602,6.825
1.91015625000,33.609,6.825
1.91064453125,33.616,6.825
1.91113281250,33.623,6.825
1.91162109375,33.630,6.825
1.91210937500,33.636,6.825
1.91259765625,33.643,6.825
1.91308593750,33.650,6.825
1.91357421875,33.656,6.825
1.91406250000,33.663,6.825
1.91455078125,33.669,6.824
1.91503906250,33.676,6.824
1.91552734375,33.682,6.824
1.91601562500,33.688,6.824
1.91650390625,33.695,6.824
1.91699218750,33.701,6.824
1.91748046875,33.707,6.824
1.91796875000,33.713,6.824
1.91845703125,33.719,6.823
1.91894531250,33.725,6.823
1.91943359375,33.731,6.823
1.91992187500,33.737,6.823
1.92041015625,33.743,6.823
1.92089843750,33.749,6.823
1.92138671875,33.755,6.823
1.92187500000,33.760,6.823
1.92236328125,33.766,6.822
1.92285156250,33.772,6.822
1.92333984375,33.777,6.822
1.92382812500,33.783,6.822
1.92431640625,33.788,6.822
1.92480468750,33.793,6.822
1.92529296875,33.799,6.822
1.92578125000,33.804,6.822
1.92626953125,33.809,6.821
1.92675781250,33.814,6.821
1.92724609375,33.819,6.821
1.92773437500,33.824,6.821
1.92822265625,33.829,6.821
1.92871093750,33.834,6.821
1.92919921875,33.839,6.821
1.92968750000,33.844,6.821
1.93017578125,33.849,6.820
1.93066406250,33.853,6.820
1.93115234375,33.858,6.820
1.93164062500,33.863,6.820
1.93212890625,33.867,6.820
1.93261718750,33.872,6.820
1.93310546875,33.876,6.820
1.93359375000,33.880,6.820
1.93408203125,33.885,6.819
1.93457031250,33.889,6.819
1.93505859375,33.893,6.819
1.93554687500,33.897,6.819
1.93603515625,33.901,6.819
1.93652343750,33.905,6.819
1.93701171875,33.909,6.819
1.93750000000,33.913,6.819
1.93798828125,33.917,6.818
1.93847656250,33.920,6.818
1.93896484375,33.924,6.818
1.93945312500,33.928,6.818
1.93994140625,33.931,6.818
1.94042968750,33.935,6.818
1.94091796875,33.938,6.818
1.94140625000,33.942,6.818
1.94189453125,33.945,6.817
1.94238281250,33.948,6.817
1.94287109375,33.951,6.817
1.94335937500,33.954,6.817
1.94384765625,33.957,6.817
1.94433593750,33.960,6.817
1.94482421875,33.963,6.817
1.94531250000,33.966,6.817
1.94580078125,33.969,6.817
1.94628906250,33.971,6.817
1.94677734375,33.974,6.817
1.94726562500,33.976,6.817
1.94775390625,33.979,6.817
1.94824218750,33.981,6.817
1.94873046875,33.983,6.817
1.94921875000,33.986,6.817
1.94970703125,33.988,6.816
1.95019531250,33.990,6.816
1.95068359375,33.992,6.816
1.95117187500,33.994,6.816
1.95166015625,33.996,6.816
1.95214843750,33.997,6.816
1.95263671875,33.999,6.816
1.95312500000,34.000,6.816
1.95361328125,34.002,6.815
1.95410156250,34.003,6.815
1.95458984375,34.005,6.815
1.95507812500,34.006,6.815
1.95556640625,34.007,6.815
1.95605468750,34.008,6.815
1.95654296875,34.009,6.815
1.95703125000,34.010,6.815
1.95751953125,34.011,6.814
1.95800781250,34.012,6.814
1.95849609375,34.013,6.814
1.95898437500,34.013,6.814
1.95947265625,34.014,6.814
1.95996093750,34.014,6.814
1.96044921875,34.014,6.814
1.96093750000,34.015,6.814
1.96142578125,34.015,6.813
1.96191406250,34.015,6.813
1.96240234375,34.015,6.813
1.96289062500,34.015,6.813
1.96337890625,34.015,6.813
1.96386718750,34.014,6.813
1.96435546875,34.014,6.813
1.96484375000,34.014,6.813
1.96533203125,34.013,6.812
1.96582031250,34.013,6.812
1.96630859375,34.012,6.812
1.96679687500,34.011,6.812
1.96728515625,34.010,6.812
1.96777343750,34.009,6.812
1.96826171875,34.008,6.812
1.96875000000,34.007,6.812
1.96923828125,34.006,6.812
1.96972656250,34.005,6.812
1.97021484375,34.004,6.812
1.97070312500,34.002,6.812
1.97119140625,34.001,6.812
1.97167968750,33.999,6.812
1.97216796875,33.998,6.812
1.97265625000,33.996,6.812
1.97314453125,33.994,6.811
1.97363281250,33.993,6.811
1.97412109375,33.991,6.811
1.97460937500,33.989,6.811
1.97509765625,33.987,6.811
1.97558593750,33.984,6.811
1.97607421875,33.982,6.811
1.97656250000,33.980,6.811
1.97705078125,33.978,6.810
1.97753906250,33.975,6.810
1.97802734375,33.973,6.810
1.97851562500,33.970,6.810
1.97900390625,33.967,6.810
1.97949218750,33.965,6.810
1.97998046875,33.962,6.810
1.98046875000,33.959,6.810
1.98095703125,33.956,6.809
1.98144531250,33.953,6.809
1.98193359375,33.950,6.809
1.98242187500,33.947,6.809
1.98291015625,33.944,6.809
1.98339843750,33.941,6.809
1.98388671875,33.937,6.809
1.98437500000,33.934,6.809
1.98486328125,33.930,6.808
1.98535156250,33.927,6.808
1.98583984375,33.923,6.808
1.98632812500,33.919,6.808
1.98681640625,33.916,6.808
1.98730468750,33.912,6.808
1.98779296875,33.908,6.808
1.98828125000,33.904,6.808
1.98876953125,33.900,6.807
1.98925781250,33.896,6.807
1.98974609375,33.892,6.807
1.99023437500,33.888,6.807
1.99072265625,33.883,6.807
1.99121093750,33.879,6.807
1.99169921875,33.874,6.807
1.99218750000,33.870,6.807
1.99267578125,33.865,6.806
1.99316406250,33.861,6.806
1.99365234375,33.856,6.806
1.99414062500,33.851,6.806
1.99462890625,33.846,6.806
1.99511718750,33.841,6.806
1.99560546875,33.836,6.806
1.99609375000,33.831,6.806
1.99658203125,33.826,6.805
1.99707031250,33.821,6.805
1.99755859375,33.815,6.805
1.99804687500,33.810,6.805
1.99853515625,33.805,6.805
1.99902343750,33.799,6.805
1.99951171875,33.794,6.805
2.00000000000,33.788,6.805
2.00048828125,33.782,6.804
2.00097656250,33.776,6.804
2.00146484375,33.771,6.804
2.00195312500,33.765,6.804
2.00244140625,33.759,6.804
2.00292968750,33.752,6.804
2.00341796875,33.746,6.804
2.00390625000,33.740,6.804
2.00439453125,33.734,6.803
2.00488281250,33.727,6.803
2.00537109375,33.721,6.803
2.00585937500,33.715,6.803
2.00634765625,33.708,6.803
2.00683593750,33.701,6.803
2.00732421875,33.695,6.803
2.00781250000,33.688,6.803
2.00830078125,33.681,6.802
2.00878906250,33.674,6.802
2.00927734375,33.667,6.802
2.00976562500,33.660,6.802
2.01025390625,33.653,6.802
2.01074218750,33.646,6.802
2.01123046875,33.638,6.802
2.01171875000,33.631,6.802
2.01220703125,33.624,6.801
2.01269531250,33.616,6.801
2.01318359375,33.609,6.801
2.01367187500,33.601,6.801
2.01416015625,33.594,6.801
2.01464843750,33.586,6.801
2.01513671875,33.578,6.801
2.01562500000,33.570,6.801
2.01611328125,33.562,6.800
2.01660156250,33.554,6.800
2.01708984375,33.546,6.800
2.01757812500,33.538,6.800
2.01806640625,33.530,6.800
2.01855468750,33.522,6.800
2.01904296875,33.514,6.800
2.01953125000,33.505,6.800
2.02001953125,33.497,6.799
2.02050781250,33.488,6.799
2.02099609375,33.480,6.799
2.02148437500,33.471,6.799
2.02197265625,33.463,6.799
2.02246093750,33.454,6.799
2.02294921875,33.445,6.799
2.02343750000,33.437,6.799
2.02392578125,33.428,6.798
2.02441406250,33.419,6.798
2.02490234375,33.410,6.798
2.02539062500,33.401,6.798
2.02587890625,33.392,6.798
2.02636718750,33.383,6.798
2.02685546875,33.374,6.798
2.02734375000,33.364,6.798
2.02783203125,33.355,6.798
2.02832031250,33.346,6.798
2.02880859375,33.336,6.798
2.02929687500,33.327,6.798
2.02978515625,33.318,6.798
2.03027343750,33.308,6.798
2.03076171875,33.299,6.798
2.03125000000,33.289,6.798
2.03173828125,33.279,6.797
2.03222656250,33.270,6.797
2.03271484375,33.260,6.797
2.03320312500,33.250,6.797
2.03369140625,33.241,6.797
2.03417968750,33.231,6.797
2.03466796875,33.221,6.797
2.03515625000,33.211,6.797
2.03564453125,33.201,6.796
2.03613281250,33.191,6.796
2.03662109375,33.181,6.796
2.03710937500,33.171,6.796
2.03759765625,33.161,6.796
2.03808593750,33.151,6.796
2.03857421875,33.141,6.796
2.03906250000,33.131,6.796
2.03955078125,33.121,6.795
2.04003906250,33.111,6.795
2.04052734375,33.101,6.795
2.04101562500,33.091,6.795
2.04150390625,33.081,6.795
2.04199218750,33.071,6.795
2.04248046875,33.061,6.795
2.04296875000,33.051,6.795
2.04345703125,33.040,6.794
2.04394531250,33.030,6.794
2.04443359375,33.020,6.794
2.04492187500,33.010,6.794
2.04541015625,33.000,6.794
2.04589843750,32.990,6.794
2.04638671875,32.980,6.794
2.04687500000,32.970,6.794
2.04736328125,32.960,6.793
2.04785156250,32.950,6.793
2.04833984375,32.940,6.793
2.04882812500,32.930,6.793
2.04931640625,32.920,6.793
2.04980468750,32.910,6.793
2.05029296875,32.900,6.793
2.05078125000,32.890,6.793
2.05126953125,32.880,6.792
2.05175781250,32.870,6.792
2.05224609375,32.860,6.792
2.05273437500,32.851,6.792
2.05322265625,32.841,6.792
2.05371093750,32.831,6.792
2.05419921875,32.821,6.792
2.05468750000,32.812,6.792
2.05517578125,32.802,6.791
2.05566406250,32.792,6.791
2.05615234375,32.783,6.791
2.05664062500,32.773,6.791
2.05712890625,32.764,6.791
2.05761718750,32.755,6.791
2.05810546875,32.745,6.791
2.05859375000,32.736,6.791
2.05908203125,32.727,6.790
2.05957031250,32.717,6.790
2.06005859375,32.708,6.790
2.06054687500,32.699,6.790
2.06103515625,32.690,6.790
2.06152343750,32.681,6.790
2.06201171875,32.672,6.790
2.06250000000,32.663,6.790
2.06298828125,32.654,6.789
2.06347656250,32.646,6.789
2.06396484375,32.637,6.789
2.06445312500,32.628,6.789
2.06494140625,32.620,6.789
2.06542968750,32.611,6.789
2.06591796875,32.603,6.789
2.06640625000,32.594,6.789
2.06689453125,32.586,6.788
2.06738281250,32.577,6.788
2.06787109375,32.569,6.788
2.06835937500,32.561,6.788
2.06884765625,32.553,6.788
2.06933593750,32.545,6.788
2.06982421875,32.537,6.788
2.07031250000,32.529,6.788
2.07080078125,32.522,6.787
2.07128906250,32.514,6.787
2.07177734375,32.506,6.787
2.07226562500,32.499,6.787
2.07275390625,32.491,6.787
2.07324218750,32.484,6.787
2.07373046875,32.476,6.787
2.07421875000,32.469,6.787
2.07470703125,32.462,6.787
2.07519531250,32.455,6.787
2.07568359375,32.448,6.787
2.07617187500,32.441,6.787
2.07666015625,32.434,6.787
2.07714843750,32.427,6.787
2.07763671875,32.420,6.787
2.07812500000,32.414,6.787
2.07861328125,32.407,6.785
2.07910156250,32.401,6.785
2.07958984375,32.394,6.785
2.08007812500,32.388,6.785
2.08056640625,32.382,6.785
2.08105468750,32.376,6.785
2.08154296875,32.369,6.785
2.08203125000,32.363,6.785
2.08251953125,32.357,6.785
2.08300781250,32.352,6.785
2.08349609375,32.346,6.785
2.08398437500,32.340,6.785
2.08447265625,32.334,6.785
2.08496093750,32.329,6.785
2.08544921875,32.323,6.785
2.08593750000,32.318,6.785
2.08642578125,32.313,6.784
2.08691406250,32.307,6.784
2.08740234375,32.302,6.784
2.08789062500,32.297,6.784
2.08837890625,32.292,6.784
2.08886718750,32.287,6.784
2.08935546875,32.282,6.784
2.08984375000,32.277,6.784
2.09033203125,32.272,6.783
2.09082031250,32.268,6.783
2.09130859375,32.263,6.783
2.09179687500,32.259,6.783
2.09228515625,32.254,6.783
2.09277343750,32.250,6.783
2.09326171875,32.245,6.783
2.09375000000,32.241,6.783
2.09423828125,32.237,6.782
2.09472656250,32.233,6.782
2.09521484375,32.229,6.782
2.09570312500,32.225,6.782
2.09619140625,32.221,6.782
2.09667968750,32.217,6.782
2.09716796875,32.213,6.782
2.09765625000,32.210,6.782
2.09814453125,32.206,6.781
2.09863281250,32.202,6.781
2.09912109375,32.199,6.781
2.09960937500,32.195,6.781
2.10009765625,32.192,6.781
2.10058593750,32.189,6.781
2.10107421875,32.185,6.781
2.10156250000,32.182,6.781
2.10205078125,32.179,6.780
2.10253906250,32.176,6.780
2.10302734375,32.173,6.780
2.10351562500,32.170,6.780
2.10400390625,32.167,6.780
2.10449218750,32.164,6.780
2.10498046875,32.161,6.780
2.10546875000,32.159,6.780
2.10595703125,32.156,6.779
2.10644531250,32.153,6.779
2.10693359375,32.151,6.779
2.10742187500,32.148,6.779
2.10791015625,32.145,6.779
2.10839843750,32.143,6.779
2.10888671875,32.141,6.779
2.10937500000,32.138,6.779
2.10986328125,32.136,6.778
2.11035156250,32.134,6.778
2.11083984375,32.131,6.778
2.11132812500,32.129,6.778
2.11181640625,32.127,6.778
2.11230468750,32.125,6.778
2.11279296875,32.123,6.778
2.11328125000,32.121,6.778
2.11376953125,32.119,6.778
2.11425781250,32.117,6.778
2.11474609375,32.115,6.778
2.11523437500,32.113,6.778
2.11572265625,32.111,6.778
2.11621093750,32.109,6.778
2.11669921875,32.108,6.778
2.11718750000,32.106,6.778
2.11767578125,32.104,6.776
2.11816406250,32.102,6.776
2.11865234375,32.101,6.776
2.11914062500,32.099,6.776
2.11962890625,32.098,6.776
2.12011718750,32.096,6.776
2.12060546875,32.094,6.776
2.12109375000,32.093,6.776
2.12158203125,32.091,6.775
2.12207031250,32.090,6.775
2.12255859375,32.088,6.775
2.12304687500,32.087,6.775
2.12353515625,32.085,6.775
2.12402343750,32.084,6.775
2.12451171875,32.083,6.775
2.12500000000,32.081,6.775
2.12548828125,32.080,6.775
2.12597656250,32.079,6.775
2.12646484375,32.077,6.775
2.12695312500,32.076,6.775
2.12744140625,32.074,6.775
2.12792968750,32.073,6.775
2.12841796875,32.072,6.775
2.12890625000,32.070,6.775
2.12939453125,32.069,6.774
2.12988281250,32.068,6.774
2.13037109375,32.066,6.774
2.13085937500,32.065,6.774
2.13134765625,32.064,6.774
2.13183593750,32.062,6.774
2.13232421875,32.061,6.774
2.13281250000,32.060,6.774
2.13330078125,32.058,6.773
2.13378906250,32.057,6.773
2.13427734375,32.055,6.773
2.13476562500,32.054,6.773
2.13525390625,32.052,6.773
2.13574218750,32.051,6.773
2.13623046875,32.049,6.773
2.13671875000,32.048,6.773
2.13720703125,32.046,6.772
2.13769531250,32.045,6.772
2.13818359375,32.043,6.772
2.13867187500,32.042,6.772
2.13916015625,32.040,6.772
2.13964843750,32.039,6.772
2.14013671875,32.037,6.772
2.14062500000,32.035,6.772
2.14111328125,32.034,6.771
2.14160156250,32.032,6.771
2.14208984375,32.030,6.771
2.14257812500,32.028,6.771
2.14306640625,32.027,6.771
2.14355468750,32.025,6.771
2.14404296875,32.023,6.771
2.14453125000,32.021,6.771
2.14501953125,32.019,6.770
2.14550781250,32.017,6.770
2.14599609375,32.015,6.770
2.14648437500,32.013,6.770
2.14697265625,32.011,6.770
2.14746093750,32.009,6.770
2.14794921875,32.007,6.770
2.14843750000,32.005,6.770
2.14892578125,32.003,6.770
2.14941406250,32.001,6.770
2.14990234375,31.999,6.770
2.15039062500,31.997,6.770
2.15087890625,31.995,6.770
2.15136718750,31.992,6.770
2.15185546875,31.990,6.770
2.15234375000,31.988,6.770
2.15283203125,31.986,6.769
2.15332031250,31.983,6.769
2.15380859375,31.981,6.769
2.15429687500,31.979,6.769
2.15478515625,31.976,6.769
2.15527343750,31.974,6.769
2.15576171875,31.971,6.769
2.15625000000,31.969,6.769
2.15673828125,31.966,6.768
2.15722656250,31.964,6.768
2.15771484375,31.961,6.768
2.15820312500,31.959,6.768
2.15869140625,31.956,6.768
2.15917968750,31.954,6.768
2.15966796875,31.951,6.768
2.16015625000,31.948,6.768
2.16064453125,31.946,6.767
2.16113281250,31.943,6.767
2.16162109375,31.940,6.767
2.16210937500,31.938,6.767
2.16259765625,31.935,6.767
2.16308593750,31.932,6.767
2.16357421875,31.929,6.767
2.16406250000,31.927,6.767
2.16455078125,31.924,6.767
2.16503906250,31.921,6.767
2.16552734375,31.918,6.767
2.16601562500,31.915,6.767
2.16650390625,31.913,6.767
2.16699218750,31.910,6.767
2.16748046875,31.907,6.767
2.16796875000,31.904,6.767
2.16845703125,31.901,6.766
2.16894531250,31.898,6.766
2.16943359375,31.895,6.766
2.16992187500,31.892,6.766
2.17041015625,31.889,6.766
2.17089843750,31.886,6.766
